229.000000 1.138757 229.000000 237.000000 171.000000 -0.043718 189.000000 0.031830 207.000000 -0.085835 218.000000 -0.086307 15.000000 -0.012732 108.000000 0.070204 171.000000 -0.043718
466.000000 1.221045 237.000000 241.000000 165.000000 -0.061475 192.000000 0.023901 212.000000 -0.088592 223.000000 -0.088639 17.000000 -0.045616 101.000000 0.066599 106.000000 0.038136
1188.000000 1.156306 243.000000 243.000000 162.000000 -0.050517 195.000000 0.050879 213.000000 -0.108634 228.000000 -0.109352 15.000000 0.023216 110.000000 0.089888 162.000000 -0.050517
1671.000000 1.231413 240.000000 232.000000 158.000000 -0.059748 181.000000 0.039485 183.000000 0.038747 215.000000 -0.084372 13.000000 0.020157 97.000000 0.057414 102.000000 0.028620
2393.000000 1.076534 247.000000 243.000000 105.000000 0.080567 193.000000 0.044424 217.000000 -0.108540 227.000000 -0.077271 15.000000 -0.012947 105.000000 0.080567 192.000000 0.039721
2636.000000 1.091508 243.000000 238.000000 141.000000 -0.047051 189.000000 0.053706 206.000000 -0.098992 220.000000 -0.088867 16.000000 -0.023020 105.000000 0.069939 108.000000 0.061083
3113.000000 1.291557 239.000000 241.000000 105.000000 0.039722 191.000000 0.041737 207.000000 -0.058857 222.000000 -0.095911 15.000000 -0.030934 106.000000 0.054674 191.000000 0.041737
3354.000000 1.238212 241.000000 241.000000 158.000000 -0.082428 188.000000 0.053682 210.000000 -0.127699 227.000000 -0.103971 15.000000 0.003856 106.000000 0.073324 160.000000 -0.074905
3840.000000 1.161550 245.000000 244.000000 163.000000 -0.038320 196.000000 0.073359 213.000000 -0.087553 228.000000 -0.095985 17.000000 -0.033103 110.000000 0.079218 135.000000 -0.026739
4084.000000 1.236822 244.000000 240.000000 169.000000 -0.064840 191.000000 0.051257 217.000000 -0.080387 224.000000 -0.104524 13.000000 0.050880 107.000000 0.072851 156.000000 -0.064420
4324.000000 1.202719 240.000000 238.000000 165.000000 -0.058680 188.000000 0.040977 206.000000 -0.095607 219.000000 -0.082710 16.000000 -0.043225 109.000000 0.053699 165.000000 -0.058680
4806.000000 1.158152 244.000000 253.000000 112.000000 0.032510 204.000000 0.072557 229.000000 -0.092649 238.000000 -0.087774 16.000000 -0.025844 118.000000 0.052949 192.000000 0.008153
5059.000000 1.192492 253.000000 244.000000 164.000000 -0.041835 192.000000 0.050311 219.000000 -0.102792 227.000000 -0.083750 14.000000 0.009765 106.000000 0.076364 116.000000 0.033542
5543.000000 1.129118 240.000000 240.000000 107.000000 0.055500 188.000000 0.045718 197.000000 0.002300 219.000000 -0.085300 15.000000 -0.013435 105.000000 0.069779 111.000000 0.046895
5783.000000 1.180797 240.000000 241.000000 154.000000 -0.061558 195.000000 0.039257 220.000000 -0.087870 227.000000 -0.093670 14.000000 -0.002448 103.000000 0.057303 112.000000 0.049121
6024.000000 1.150063 241.000000 243.000000 167.000000 -0.056523 191.000000 0.038557 194.000000 0.037146 226.000000 -0.102275 14.000000 0.014372 103.000000 0.071236 106.000000 0.051612
6753.000000 1.194556 239.000000 239.000000 165.000000 -0.040176 191.000000 0.063663 210.000000 -0.094331 223.000000 -0.084379 13.000000 0.031406 106.000000 0.077286 115.000000 0.065076
7228.000000 1.226957 236.000000 243.000000 160.000000 -0.061392 194.000000 0.055586 206.000000 -0.046389 225.000000 -0.119619 19.000000 -0.062836 108.000000 0.078481 161.000000 -0.062394
7471.000000 1.279505 243.000000 238.000000 135.000000 -0.043917 190.000000 0.056041 196.000000 -0.011107 219.000000 -0.100669 14.000000 0.004253 108.000000 0.063967 109.000000 0.059436
7709.000000 1.297793 238.000000 240.000000 108.000000 0.053514 190.000000 0.047871 208.000000 -0.081926 222.000000 -0.092852 19.000000 -0.076265 111.000000 0.054141 190.000000 0.047871
8181.000000 1.154451 232.000000 239.000000 106.000000 0.072979 189.000000 0.066273 207.000000 -0.103475 222.000000 -0.093603 14.000000 0.045283 106.000000 0.072979 189.000000 0.066273
8420.000000 1.157556 239.000000 235.000000 156.000000 -0.056220 188.000000 0.054078 206.000000 -0.106534 219.000000 -0.107570 15.000000 -0.020122 108.000000 0.087337 130.000000 -0.030624
8899.000000 1.240310 244.000000 242.000000 155.000000 -0.066143 190.000000 0.061709 209.000000 -0.102694 224.000000 -0.112696 15.000000 -0.007056 108.000000 0.071551 155.000000 -0.066143
9375.000000 1.183990 234.000000 236.000000 167.000000 -0.067966 186.000000 0.058525 212.000000 -0.099957 218.000000 -0.084580 16.000000 -0.006180 112.000000 0.064592 167.000000 -0.067966
9611.000000 1.177066 236.000000 240.000000 165.000000 -0.041927 189.000000 0.070203 196.000000 -0.037225 222.000000 -0.099657 15.000000 -0.010535 106.000000 0.064265 108.000000 0.050048
9851.000000 1.182255 240.000000 247.000000 168.000000 -0.042800 195.000000 0.059722 220.000000 -0.105859 231.000000 -0.100407 16.000000 -0.034954 107.000000 0.070534 116.000000 0.053325
10338.000000 1.154014 240.000000 238.000000 160.000000 -0.047692 189.000000 0.036369 209.000000 -0.100749 223.000000 -0.108931 15.000000 0.011147 109.000000 0.072494 160.000000 -0.047692
10810.000000 1.291837 234.000000 235.000000 104.000000 0.044093 185.000000 0.049345 192.000000 -0.009118 216.000000 -0.079262 16.000000 -0.041862 107.000000 0.059328 185.000000 0.049345
11279.000000 1.184844 234.000000 241.000000 165.000000 -0.044733 192.000000 0.062900 203.000000 -0.016347 227.000000 -0.079879 14.000000 0.011554 107.000000 0.072480 165.000000 -0.044733
11520.000000 1.159870 241.000000 248.000000 165.000000 -0.035893 196.000000 0.051376 211.000000 -0.017292 232.000000 -0.112544 12.000000 0.055183 106.000000 0.082132 108.000000 0.077540
12000.000000 1.217494 232.000000 237.000000 166.000000 -0.051455 189.000000 0.060318 213.000000 -0.075497 222.000000 -0.089415 6.000000 -0.036220 105.000000 0.081565 107.000000 0.067161
12237.000000 1.248328 237.000000 238.000000 128.000000 -0.037568 189.000000 0.046979 207.000000 -0.102724 219.000000 -0.103461 19.000000 -0.091186 105.000000 0.057870 128.000000 -0.037568
12475.000000 1.216963 238.000000 247.000000 170.000000 -0.042487 196.000000 0.065742 221.000000 -0.100545 231.000000 -0.080906 16.000000 -0.015795 110.000000 0.062150 160.000000 -0.042207
12722.000000 1.159800 247.000000 239.000000 164.000000 -0.043960 190.000000 0.058142 217.000000 -0.090825 223.000000 -0.075872 15.000000 -0.012895 107.000000 0.071146 164.000000 -0.043960
12961.000000 1.136494 239.000000 243.000000 110.000000 0.042540 194.000000 0.045504 218.000000 -0.116830 227.000000 -0.076405 17.000000 -0.044291 105.000000 0.070722 110.000000 0.042540
13442.000000 1.116810 238.000000 244.000000 165.000000 -0.067049 191.000000 0.036243 200.000000 -0.002707 225.000000 -0.071500 15.000000 -0.039652 105.000000 0.070782 147.000000 -0.068696
13686.000000 1.209519 244.000000 239.000000 104.000000 0.049860 186.000000 0.058424 200.000000 -0.042250 223.000000 -0.100528 18.000000 -0.026970 100.000000 0.069483 104.000000 0.049860
13925.000000 1.205475 239.000000 245.000000 162.000000 -0.041518 196.000000 0.048030 221.000000 -0.092393 229.000000 -0.106969 15.000000 0.007436 113.000000 0.057352 163.000000 -0.034339
14170.000000 1.138908 245.000000 250.000000 170.000000 -0.055748 201.000000 0.038830 216.000000 -0.059180 231.000000 -0.088396 16.000000 -0.013223 109.000000 0.060394 112.000000 0.056429
14420.000000 1.144472 250.000000 243.000000 162.000000 -0.059198 193.000000 0.063514 200.000000 -0.023366 224.000000 -0.099196 15.000000 0.008436 110.000000 0.065265 166.000000 -0.071125
14663.000000 1.207714 243.000000 239.000000 160.000000 -0.060625 190.000000 0.045443 198.000000 -0.041814 222.000000 -0.102329 20.000000 -0.052053 107.000000 0.062271 131.000000 -0.034154
14902.000000 1.249800 239.000000 244.000000 162.000000 -0.069372 194.000000 0.050348 219.000000 -0.085720 228.000000 -0.081329 14.000000 0.028152 109.000000 0.076333 162.000000 -0.069372
15146.000000 1.169331 244.000000 249.000000 177.000000 -0.038427 198.000000 0.048440 205.000000 -0.014648 230.000000 -0.103898 17.000000 -0.037364 106.000000 0.055375 110.000000 0.051299
15640.000000 1.125381 245.000000 237.000000 164.000000 -0.042850 189.000000 0.058375 206.000000 -0.085060 218.000000 -0.099432 14.000000 0.023471 105.000000 0.073905 114.000000 0.046756
15877.000000 1.098091 237.000000 241.000000 165.000000 -0.052536 191.000000 0.046260 201.000000 -0.026781 227.000000 -0.092297 17.000000 -0.037364 107.000000 0.081052 130.000000 -0.024027
16118.000000 1.189034 241.000000 239.000000 154.000000 -0.053963 189.000000 0.057808 197.000000 -0.028617 220.000000 -0.098318 15.000000 -0.028724 107.000000 0.077007 141.000000 -0.042148
16357.000000 1.253815 239.000000 242.000000 156.000000 -0.069855 190.000000 0.043424 220.000000 -0.098177 226.000000 -0.078664 17.000000 -0.055908 108.000000 0.038949 143.000000 -0.040874
16843.000000 1.096273 244.000000 245.000000 163.000000 -0.032149 197.000000 0.057021 221.000000 -0.078761 230.000000 -0.102271 14.000000 0.034249 115.000000 0.071818 149.000000 -0.048122
17088.000000 1.075518 245.000000 238.000000 133.000000 -0.032244 189.000000 0.041705 208.000000 -0.097072 222.000000 -0.102054 17.000000 -0.054455 109.000000 0.064151 135.000000 -0.032401
17326.000000 1.184231 238.000000 236.000000 105.000000 0.025956 185.000000 0.052197 186.000000 0.051773 219.000000 -0.065152 13.000000 0.020955 110.000000 0.051754 186.000000 0.051773
17562.000000 1.239691 236.000000 243.000000 163.000000 -0.035921 189.000000 0.046918 198.000000 -0.002392 225.000000 -0.073992 14.000000 0.005816 105.000000 0.061895 163.000000 -0.035921
18293.000000 1.099879 242.000000 239.000000 165.000000 -0.043492 188.000000 0.046069 208.000000 -0.113727 223.000000 -0.084605 12.000000 0.052873 104.000000 0.075549 106.000000 0.066286
18770.000000 1.208436 238.000000 239.000000 162.000000 -0.061814 191.000000 0.047309 219.000000 -0.087347 230.000000 -0.122756 16.000000 -0.033243 106.000000 0.049499 108.000000 0.040094
19009.000000 1.151773 239.000000 242.000000 107.000000 0.041370 192.000000 0.060802 219.000000 -0.080267 228.000000 -0.070644 12.000000 0.026742 109.000000 0.056449 190.000000 0.041916
19251.000000 1.108997 242.000000 249.000000 165.000000 -0.056942 197.000000 0.034301 226.000000 -0.088946 232.000000 -0.103508 14.000000 0.035849 107.000000 0.071692 141.000000 -0.040299
19500.000000 1.078640 249.000000 238.000000 140.000000 -0.057379 189.000000 0.049663 207.000000 -0.069711 219.000000 -0.069994 16.000000 -0.021045 110.000000 0.053166 140.000000 -0.057379
19738.000000 1.161415 238.000000 243.000000 142.000000 -0.073071 194.000000 0.047811 201.000000 -0.033616 228.000000 -0.098316 20.000000 -0.054461 113.000000 0.065628 148.000000 -0.044011
19981.000000 1.233519 243.000000 237.000000 148.000000 -0.072099 186.000000 0.029912 200.000000 -0.064288 219.000000 -0.076437 18.000000 -0.052408 99.000000 0.062227 103.000000 0.053010
20218.000000 1.128609 237.000000 246.000000 166.000000 -0.059025 196.000000 0.062809 222.000000 -0.083572 231.000000 -0.078651 16.000000 -0.019571 113.000000 0.052259 142.000000 -0.060986
20464.000000 1.091255 246.000000 245.000000 163.000000 -0.053821 194.000000 0.052401 220.000000 -0.087006 226.000000 -0.072272 14.000000 0.033278 108.000000 0.076916 117.000000 0.038594
20709.000000 1.049140 245.000000 245.000000 164.000000 -0.041297 194.000000 0.023767 197.000000 0.012919 229.000000 -0.096754 13.000000 0.036493 105.000000 0.054969 108.000000 0.045972
21192.000000 1.184473 238.000000 243.000000 140.000000 -0.058352 193.000000 0.033463 210.000000 -0.068575 224.000000 -0.081257 17.000000 -0.026968 102.000000 0.062558 109.000000 0.043546
21435.000000 1.131971 243.000000 240.000000 169.000000 -0.038718 190.000000 0.046109 194.000000 0.009102 222.000000 -0.085756 18.000000 -0.056430 108.000000 0.068700 133.000000 -0.022318
21675.000000 1.039070 240.000000 252.000000 157.000000 -0.034937 204.000000 0.053803 222.000000 -0.104629 237.000000 -0.093972 17.000000 -0.033876 110.000000 0.066851 166.000000 -0.040315
21927.000000 1.047659 252.000000 250.000000 164.000000 -0.061484 200.000000 0.039342 219.000000 -0.092712 233.000000 -0.100895 16.000000 -0.017685 109.000000 0.077699 119.000000 0.035474
22420.000000 1.063515 243.000000 239.000000 104.000000 0.053134 190.000000 0.040930 200.000000 -0.026641 225.000000 -0.083005 16.000000 -0.021625 106.000000 0.058574 184.000000 -0.002251
22659.000000 1.133514 239.000000 244.000000 166.000000 -0.057801 194.000000 0.047782 212.000000 -0.102001 228.000000 -0.083444 14.000000 0.015928 109.000000 0.042509 166.000000 -0.057801
23393.000000 1.039118 242.000000 238.000000 169.000000 -0.031565 191.000000 0.044532 209.000000 -0.102147 223.000000 -0.085140 15.000000 -0.008514 107.000000 0.079674 109.000000 0.070207
23631.000000 1.032620 238.000000 240.000000 171.000000 -0.042641 192.000000 0.043034 194.000000 0.022454 225.000000 -0.102173 14.000000 0.041446 111.000000 0.064752 146.000000 -0.046655
23871.000000 1.099567 240.000000 239.000000 134.000000 -0.025014 187.000000 0.029503 188.000000 0.029284 220.000000 -0.069415 20.000000 -0.065606 100.000000 0.060222 108.000000 0.031663
24110.000000 1.136917 239.000000 237.000000 104.000000 0.032823 186.000000 0.048721 215.000000 -0.087456 220.000000 -0.057880 18.000000 -0.044511 100.000000 0.042055 104.000000 0.032823
24589.000000 0.993469 242.000000 246.000000 156.000000 -0.068590 198.000000 0.055817 215.000000 -0.101094 231.000000 -0.080402 16.000000 -0.003898 114.000000 0.066143 156.000000 -0.068590
24835.000000 0.981728 246.000000 235.000000 154.000000 -0.065437 185.000000 0.035928 206.000000 -0.088508 222.000000 -0.103320 16.000000 -0.055028 108.000000 0.051116 154.000000 -0.065437
25070.000000 0.922354 235.000000 236.000000 148.000000 -0.048149 188.000000 0.045411 204.000000 -0.078196 220.000000 -0.069919 13.000000 0.048748 102.000000 0.063308 112.000000 0.050409
25306.000000 1.025959 236.000000 240.000000 165.000000 -0.035704 189.000000 0.062902 214.000000 -0.086110 221.000000 -0.095450 15.000000 -0.017568 105.000000 0.084014 166.000000 -0.040405
25546.000000 1.067028 240.000000 246.000000 164.000000 -0.042690 194.000000 0.021198 220.000000 -0.095057 230.000000 -0.085575 15.000000 -0.013932 106.000000 0.051097 108.000000 0.036662
26028.000000 1.044407 236.000000 239.000000 163.000000 -0.038649 190.000000 0.041117 205.000000 -0.060247 220.000000 -0.099290 14.000000 0.011729 105.000000 0.070344 110.000000 0.047411
26267.000000 1.044391 239.000000 237.000000 152.000000 -0.065548 189.000000 0.044029 206.000000 -0.089260 219.000000 -0.098804 15.000000 -0.021584 105.000000 0.058352 153.000000 -0.055423
26504.000000 0.982465 237.000000 241.000000 153.000000 -0.048514 191.000000 0.047191 208.000000 -0.061145 223.000000 -0.096143 15.000000 -0.009843 108.000000 0.078085 153.000000 -0.048514
26745.000000 1.070439 241.000000 239.000000 155.000000 -0.057382 187.000000 0.031507 194.000000 -0.021582 223.000000 -0.086564 16.000000 -0.047038 107.000000 0.057746 156.000000 -0.061065
26984.000000 1.118217 239.000000 242.000000 108.000000 0.063214 191.000000 0.062920 219.000000 -0.085513 227.000000 -0.071894 13.000000 0.039596 108.000000 0.063214 192.000000 0.057419
27226.000000 1.196617 242.000000 241.000000 165.000000 -0.039357 191.000000 0.063010 198.000000 -0.014669 226.000000 -0.069781 17.000000 -0.033085 106.000000 0.051259 110.000000 0.027246
27467.000000 1.100125 241.000000 239.000000 137.000000 -0.068478 190.000000 0.066096 207.000000 -0.102932 222.000000 -0.088766 16.000000 -0.049685 105.000000 0.075941 137.000000 -0.068478
27945.000000 1.066801 239.000000 245.000000 167.000000 -0.036173 193.000000 0.056019 208.000000 -0.043150 224.000000 -0.103215 15.000000 0.005062 107.000000 0.083184 109.000000 0.078936
28190.000000 1.059436 245.000000 249.000000 168.000000 -0.054464 199.000000 0.062387 216.000000 -0.083727 232.000000 -0.107080 16.000000 -0.031080 106.000000 0.075049 113.000000 0.057416
28439.000000 1.201588 249.000000 240.000000 155.000000 -0.072475 190.000000 0.048218 202.000000 -0.025873 224.000000 -0.087879 16.000000 -0.031737 106.000000 0.056864 163.000000 -0.063900
28679.000000 1.257105 240.000000 234.000000 154.000000 -0.069432 187.000000 0.045551 191.000000 0.008451 213.000000 -0.076631 15.000000 -0.016029 106.000000 0.061791 131.000000 -0.028210
28913.000000 1.127978 234.000000 237.000000 141.000000 -0.059808 190.000000 0.031555 214.000000 -0.112649 219.000000 -0.092963 17.000000 -0.021785 111.000000 0.065754 149.000000 -0.041955
29150.000000 1.088072 237.000000 242.000000 164.000000 -0.041924 190.000000 0.028107 194.000000 0.026760 227.000000 -0.085908 16.000000 -0.039764 105.000000 0.067053 116.000000 0.039718
29392.000000 1.081068 242.000000 242.000000 106.000000 0.053212 189.000000 0.035822 190.000000 0.035493 229.000000 -0.117881 15.000000 -0.006330 103.000000 0.087255 149.000000 -0.053461
29634.000000 1.174015 242.000000 242.000000 104.000000 0.061491 193.000000 0.051369 210.000000 -0.086922 225.000000 -0.091403 14.000000 0.007230 102.000000 0.070848 112.000000 0.044280
30115.000000 1.185897 239.000000 239.000000 151.000000 -0.055152 187.000000 0.042452 188.000000 0.037060 223.000000 -0.088728 15.000000 0.001023 112.000000 0.051945 151.000000 -0.055152
30595.000000 1.096934 241.000000 245.000000 108.000000 0.051316 194.000000 0.042980 222.000000 -0.099718 228.000000 -0.094969 13.000000 0.043973 112.000000 0.067194 193.000000 0.038528
30840.000000 1.064844 245.000000 248.000000 179.000000 -0.047805 200.000000 0.044799 215.000000 -0.047710 232.000000 -0.097319 17.000000 -0.046879 108.000000 0.073217 112.000000 0.059235
31331.000000 1.239864 243.000000 236.000000 105.000000 0.050374 186.000000 0.028335 209.000000 -0.093966 219.000000 -0.078511 20.000000 -0.062365 108.000000 0.066392 185.000000 0.018569
31567.000000 1.269263 236.000000 237.000000 156.000000 -0.077182 186.000000 0.045281 197.000000 -0.018513 222.000000 -0.090140 17.000000 -0.027320 111.000000 0.044733 156.000000 -0.077182
31804.000000 1.190408 237.000000 239.000000 156.000000 -0.073967 191.000000 0.043464 214.000000 -0.100781 220.000000 -0.100812 14.000000 0.021895 106.000000 0.040671 110.000000 0.037052
32769.000000 1.250831 239.000000 240.000000 160.000000 -0.049422 193.000000 0.038085 223.000000 -0.090376 231.000000 -0.130624 18.000000 -0.040080 111.000000 0.060564 135.000000 -0.033012
33009.000000 1.249752 240.000000 233.000000 103.000000 0.028775 184.000000 0.075193 209.000000 -0.064635 220.000000 -0.081878 12.000000 0.035176 101.000000 0.048619 107.000000 0.023822
33242.000000 1.211101 233.000000 241.000000 160.000000 -0.058366 191.000000 0.066336 217.000000 -0.090861 227.000000 -0.086348 12.000000 0.064831 108.000000 0.064548 161.000000 -0.059730
33483.000000 1.144515 241.000000 242.000000 166.000000 -0.043163 192.000000 0.051429 208.000000 -0.062192 223.000000 -0.097788 13.000000 0.041226 107.000000 0.072824 111.000000 0.039360
33725.000000 1.134313 242.000000 240.000000 163.000000 -0.050010 191.000000 0.045980 207.000000 -0.071467 222.000000 -0.091092 13.000000 0.031541 106.000000 0.069517 163.000000 -0.050010
34198.000000 1.273545 233.000000 236.000000 162.000000 -0.051411 184.000000 0.045673 192.000000 -0.021804 215.000000 -0.119732 16.000000 0.001474 102.000000 0.058477 106.000000 0.039888
34669.000000 1.166446 235.000000 242.000000 163.000000 -0.063305 192.000000 0.055833 220.000000 -0.089875 229.000000 -0.080268 14.000000 0.040835 109.000000 0.080253 145.000000 -0.042865
34911.000000 1.195548 242.000000 244.000000 166.000000 -0.041503 193.000000 0.082664 210.000000 -0.077963 227.000000 -0.079659 12.000000 0.077133 107.000000 0.065517 131.000000 -0.042959
35155.000000 1.146470 244.000000 240.000000 110.000000 0.050222 191.000000 0.049750 212.000000 -0.099828 223.000000 -0.084406 14.000000 0.008461 112.000000 0.065692 191.000000 0.049750
35395.000000 1.167539 240.000000 239.000000 164.000000 -0.041170 189.000000 0.044659 207.000000 -0.066987 225.000000 -0.085673 16.000000 -0.049922 105.000000 0.078858 138.000000 -0.050355
35634.000000 1.272039 239.000000 236.000000 159.000000 -0.076108 187.000000 0.051026 206.000000 -0.098663 219.000000 -0.124369 17.000000 -0.038695 107.000000 0.068119 160.000000 -0.076986
35870.000000 1.300552 236.000000 242.000000 164.000000 -0.058479 190.000000 0.060562 214.000000 -0.095207 228.000000 -0.078078 18.000000 -0.056940 108.000000 0.051760 132.000000 -0.033678
36112.000000 1.189742 242.000000 242.000000 166.000000 -0.030506 193.000000 0.065199 218.000000 -0.091695 224.000000 -0.092151 12.000000 0.068504 116.000000 0.048322 166.000000 -0.030506
36354.000000 1.146847 242.000000 240.000000 164.000000 -0.040283 190.000000 0.068024 214.000000 -0.081693 222.000000 -0.086318 14.000000 -0.003090 104.000000 0.074841 107.000000 0.065328
36594.000000 1.160345 240.000000 235.000000 105.000000 0.074405 184.000000 0.035264 214.000000 -0.096384 219.000000 -0.115318 14.000000 0.017553 105.000000 0.074405 180.000000 0.011360
37540.000000 1.106282 239.000000 243.000000 107.000000 0.061127 193.000000 0.053352 208.000000 -0.056036 225.000000 -0.092194 16.000000 -0.032260 107.000000 0.061127 191.000000 0.044292
38016.000000 1.074948 233.000000 239.000000 165.000000 -0.065726 193.000000 0.019823 210.000000 -0.086463 225.000000 -0.100350 18.000000 -0.036147 112.000000 0.067760 148.000000 -0.050113
38255.000000 1.201154 239.000000 233.000000 102.000000 0.059609 183.000000 0.050136 203.000000 -0.106352 216.000000 -0.093124 14.000000 -0.022294 101.000000 0.064499 103.000000 0.059797
40149.000000 1.168185 241.000000 240.000000 106.000000 0.065122 189.000000 0.054718 200.000000 -0.029310 225.000000 -0.080641 15.000000 -0.011474 106.000000 0.065122 187.000000 0.045690
40861.000000 1.244779 235.000000 235.000000 150.000000 -0.061644 185.000000 0.056837 211.000000 -0.104842 220.000000 -0.093887 15.000000 -0.002116 102.000000 0.069279 124.000000 -0.031959
41096.000000 1.344264 235.000000 238.000000 140.000000 -0.048854 187.000000 0.054109 190.000000 0.022432 223.000000 -0.095674 15.000000 -0.006314 107.000000 0.070221 141.000000 -0.049151
41334.000000 1.213072 238.000000 239.000000 163.000000 -0.042207 191.000000 0.073279 198.000000 -0.023617 220.000000 -0.089700 13.000000 0.048308 111.000000 0.066491 130.000000 -0.012802
41812.000000 1.186083 239.000000 231.000000 103.000000 0.062337 181.000000 0.062359 188.000000 -0.029507 215.000000 -0.100779 12.000000 0.057055 101.000000 0.086726 104.000000 0.067619
42507.000000 1.286241 234.000000 237.000000 169.000000 -0.033919 187.000000 0.073854 200.000000 -0.032228 221.000000 -0.086399 18.000000 -0.064812 102.000000 0.057228 107.000000 0.042809
42744.000000 1.187426 237.000000 239.000000 106.000000 0.066897 188.000000 0.066627 206.000000 -0.097557 222.000000 -0.082574 12.000000 0.037270 104.000000 0.071364 107.000000 0.062227
42983.000000 1.189385 239.000000 234.000000 108.000000 0.053855 186.000000 0.051806 211.000000 -0.091863 221.000000 -0.116409 17.000000 -0.043639 106.000000 0.063118 141.000000 -0.045625
43217.000000 1.164845 234.000000 238.000000 161.000000 -0.037913 191.000000 0.056995 212.000000 -0.095169 222.000000 -0.075029 13.000000 0.051648 110.000000 0.064641 161.000000 -0.037913
43687.000000 1.270552 232.000000 242.000000 164.000000 -0.077816 191.000000 0.045462 194.000000 0.019114 226.000000 -0.097895 15.000000 0.013470 110.000000 0.059468 170.000000 -0.052111
44170.000000 1.185358 241.000000 242.000000 160.000000 -0.061255 192.000000 0.056172 207.000000 -0.042996 224.000000 -0.089221 17.000000 -0.064484 108.000000 0.075642 163.000000 -0.062321
44412.000000 1.116877 242.000000 236.000000 164.000000 -0.050751 187.000000 0.063761 192.000000 0.007163 212.000000 -0.080346 14.000000 0.003742 104.000000 0.084987 169.000000 -0.060737
44888.000000 1.191475 240.000000 239.000000 165.000000 -0.075987 191.000000 0.049532 218.000000 -0.099121 223.000000 -0.103682 21.000000 -0.076594 110.000000 0.061174 112.000000 0.056942
45127.000000 1.307479 239.000000 246.000000 107.000000 0.042638 196.000000 0.059168 219.000000 -0.107385 228.000000 -0.093545 18.000000 -0.038820 111.000000 0.053328 195.000000 0.044639
45373.000000 1.214886 246.000000 246.000000 165.000000 -0.022730 197.000000 0.068287 222.000000 -0.090850 230.000000 -0.085537 14.000000 0.000418 107.000000 0.062147 139.000000 -0.024138
45619.000000 1.180561 246.000000 240.000000 105.000000 0.042650 191.000000 0.054745 216.000000 -0.098657 222.000000 -0.093218 13.000000 0.047458 111.000000 0.059640 192.000000 0.039322
46099.000000 1.109219 240.000000 242.000000 106.000000 0.043229 193.000000 0.043859 207.000000 -0.039855 227.000000 -0.084949 17.000000 -0.056517 109.000000 0.074075 193.000000 0.043859
46586.000000 1.256288 245.000000 241.000000 110.000000 0.029188 191.000000 0.038341 201.000000 -0.005734 223.000000 -0.078842 13.000000 0.017982 107.000000 0.048200 110.000000 0.029188
46827.000000 1.155624 241.000000 240.000000 173.000000 -0.034905 192.000000 0.053891 209.000000 -0.068462 225.000000 -0.068056 13.000000 0.020906 105.000000 0.069343 110.000000 0.050880
47067.000000 1.109156 240.000000 239.000000 159.000000 -0.069132 189.000000 0.056275 199.000000 -0.015105 223.000000 -0.072896 15.000000 -0.033084 104.000000 0.075003 164.000000 -0.030808
47306.000000 1.135005 239.000000 238.000000 154.000000 -0.066958 189.000000 0.063718 207.000000 -0.103163 221.000000 -0.112002 15.000000 -0.021109 105.000000 0.069703 161.000000 -0.073382
47544.000000 1.105302 238.000000 239.000000 162.000000 -0.067068 190.000000 0.062914 208.000000 -0.090015 224.000000 -0.098557 16.000000 -0.035628 107.000000 0.090470 162.000000 -0.067068
47783.000000 1.213713 239.000000 241.000000 149.000000 -0.073704 191.000000 0.062016 216.000000 -0.085601 223.000000 -0.099879 16.000000 -0.036210 110.000000 0.069121 161.000000 -0.068454
48268.000000 1.127315 244.000000 237.000000 133.000000 -0.041066 187.000000 0.049163 200.000000 -0.034691 221.000000 -0.100368 11.000000 0.038131 105.000000 0.075817 140.000000 -0.037540
48505.000000 1.125463 237.000000 241.000000 167.000000 -0.037311 192.000000 0.061888 209.000000 -0.067891 225.000000 -0.063783 15.000000 -0.002452 108.000000 0.061475 149.000000 -0.076902
48746.000000 1.082190 241.000000 244.000000 164.000000 -0.062995 193.000000 0.036912 203.000000 -0.012525 227.000000 -0.076675 15.000000 -0.010536 107.000000 0.069624 155.000000 -0.059813
49239.000000 1.127847 249.000000 237.000000 167.000000 -0.054126 188.000000 0.057990 200.000000 -0.025787 220.000000 -0.111071 14.000000 0.007566 106.000000 0.056973 169.000000 -0.069127
49476.000000 1.255057 237.000000 239.000000 164.000000 -0.061352 192.000000 0.054871 198.000000 -0.026697 221.000000 -0.104566 19.000000 -0.050694 108.000000 0.071081 110.000000 0.066818
49715.000000 1.229917 239.000000 237.000000 144.000000 -0.029987 191.000000 0.043193 209.000000 -0.100522 222.000000 -0.096056 17.000000 -0.058860 109.000000 0.062165 144.000000 -0.029987
49952.000000 1.134320 237.000000 245.000000 162.000000 -0.035647 196.000000 0.063679 204.000000 -0.028311 228.000000 -0.085470 13.000000 0.034963 102.000000 0.057774 112.000000 0.029449
50197.000000 1.119969 245.000000 238.000000 157.000000 -0.064656 188.000000 0.040564 217.000000 -0.085783 222.000000 -0.110345 14.000000 0.042570 108.000000 0.061299 157.000000 -0.064656
50435.000000 1.114923 238.000000 245.000000 164.000000 -0.073137 194.000000 0.068995 213.000000 -0.092086 229.000000 -0.074057 17.000000 -0.027570 111.000000 0.082347 164.000000 -0.073137
50680.000000 1.151196 245.000000 239.000000 131.000000 -0.037035 193.000000 0.036933 216.000000 -0.086497 222.000000 -0.091154 14.000000 0.008418 107.000000 0.071458 131.000000 -0.037035
51393.000000 1.162245 233.000000 242.000000 107.000000 0.028449 191.000000 0.046597 192.000000 0.031221 225.000000 -0.081270 15.000000 0.012681 113.000000 0.045032 192.000000 0.031221
51635.000000 1.156050 242.000000 244.000000 171.000000 -0.043622 195.000000 0.056941 211.000000 -0.055565 227.000000 -0.100547 18.000000 -0.029454 110.000000 0.052789 147.000000 -0.065410
51879.000000 1.125738 244.000000 240.000000 134.000000 -0.038781 190.000000 0.064481 196.000000 -0.027338 221.000000 -0.104922 17.000000 -0.035894 107.000000 0.064717 134.000000 -0.038781
52119.000000 1.176003 240.000000 234.000000 139.000000 -0.070758 185.000000 0.040028 213.000000 -0.087854 218.000000 -0.072337 20.000000 -0.045551 106.000000 0.067960 143.000000 -0.046666
52353.000000 1.170455 234.000000 237.000000 162.000000 -0.052293 188.000000 0.038177 196.000000 -0.009550 222.000000 -0.077492 12.000000 0.028323 105.000000 0.046457 113.000000 0.039168
52590.000000 1.217807 237.000000 241.000000 163.000000 -0.038324 192.000000 0.053118 208.000000 -0.081474 225.000000 -0.068617 15.000000 -0.031096 106.000000 0.060846 109.000000 0.036300
53075.000000 1.138466 244.000000 248.000000 107.000000 0.037069 196.000000 0.064394 214.000000 -0.076156 232.000000 -0.077705 18.000000 -0.026882 109.000000 0.047760 196.000000 0.064394
53566.000000 1.109531 243.000000 241.000000 162.000000 -0.040680 189.000000 0.034602 213.000000 -0.092763 224.000000 -0.082530 12.000000 0.007366 100.000000 0.049905 109.000000 0.027538
53807.000000 1.164460 241.000000 235.000000 162.000000 -0.050249 185.000000 0.050504 199.000000 -0.030391 218.000000 -0.094117 14.000000 -0.003282 102.000000 0.069892 168.000000 -0.067960
54042.000000 1.144300 235.000000 240.000000 156.000000 -0.058557 191.000000 0.061429 217.000000 -0.105920 223.000000 -0.086343 15.000000 -0.000593 107.000000 0.075249 158.000000 -0.073964
54282.000000 1.093500 240.000000 249.000000 178.000000 -0.037988 201.000000 0.061761 210.000000 -0.025733 234.000000 -0.082993 16.000000 -0.045277 107.000000 0.063247 112.000000 0.034612
54770.000000 1.082545 239.000000 234.000000 151.000000 -0.063262 185.000000 0.057489 219.000000 -0.084017 227.000000 -0.016634 14.000000 0.051510 100.000000 0.082384 102.000000 0.073371
55004.000000 1.085419 234.000000 233.000000 165.000000 -0.052809 185.000000 0.043100 202.000000 -0.071210 215.000000 -0.081509 10.000000 0.003744 104.000000 0.058856 145.000000 -0.081163
55237.000000 1.144668 233.000000 239.000000 171.000000 -0.039158 191.000000 0.040872 197.000000 -0.006276 220.000000 -0.073985 19.000000 -0.042150 111.000000 0.076051 171.000000 -0.039158
55476.000000 1.176753 239.000000 239.000000 106.000000 0.031533 188.000000 0.033558 190.000000 0.027728 221.000000 -0.063881 20.000000 -0.055708 103.000000 0.051126 111.000000 0.032175
55715.000000 1.070788 239.000000 242.000000 107.000000 0.035172 190.000000 0.050748 191.000000 0.045418 225.000000 -0.071161 16.000000 -0.023792 103.000000 0.059374 113.000000 0.036521
55957.000000 1.067680 242.000000 240.000000 167.000000 -0.070789 192.000000 0.025152 206.000000 -0.067997 217.000000 -0.098296 14.000000 0.031646 102.000000 0.054183 109.000000 0.041722
56437.000000 1.029652 240.000000 237.000000 102.000000 0.082180 187.000000 0.051499 196.000000 -0.001949 222.000000 -0.074346 18.000000 -0.042323 102.000000 0.082180 188.000000 0.046186
56674.000000 1.097111 237.000000 245.000000 164.000000 -0.051869 192.000000 0.020045 193.000000 0.019590 227.000000 -0.085235 16.000000 -0.019768 105.000000 0.054152 114.000000 0.031205
56919.000000 1.158983 245.000000 244.000000 169.000000 -0.042804 194.000000 0.045973 212.000000 -0.109513 228.000000 -0.091609 17.000000 -0.023556 111.000000 0.061769 136.000000 -0.035207
57163.000000 1.147562 244.000000 243.000000 167.000000 -0.021735 192.000000 0.063641 218.000000 -0.077943 227.000000 -0.049276 18.000000 -0.061873 108.000000 0.054550 141.000000 -0.041388
57406.000000 1.040380 243.000000 239.000000 164.000000 -0.042321 188.000000 0.052789 205.000000 -0.082179 223.000000 -0.064202 13.000000 0.045648 105.000000 0.049188 164.000000 -0.042321
57645.000000 1.071380 239.000000 243.000000 167.000000 -0.050090 191.000000 0.051477 217.000000 -0.106298 224.000000 -0.085545 15.000000 -0.010907 106.000000 0.074608 140.000000 -0.038838
58369.000000 1.142708 243.000000 243.000000 165.000000 -0.056473 191.000000 0.027194 201.000000 -0.032084 226.000000 -0.104830 15.000000 -0.010865 104.000000 0.073574 112.000000 0.064687
58848.000000 1.044338 236.000000 237.000000 163.000000 -0.048670 189.000000 0.032944 217.000000 -0.110738 222.000000 -0.085942 15.000000 0.015876 105.000000 0.057351 114.000000 0.024591
59085.000000 1.035186 237.000000 238.000000 165.000000 -0.051885 189.000000 0.047722 196.000000 -0.044693 222.000000 -0.097231 17.000000 -0.042540 105.000000 0.079092 129.000000 -0.013607
59323.000000 1.023929 238.000000 241.000000 163.000000 -0.082120 190.000000 0.042520 196.000000 -0.004926 224.000000 -0.089404 18.000000 -0.067291 109.000000 0.068103 164.000000 -0.066211
59802.000000 1.136880 238.000000 235.000000 106.000000 0.058011 187.000000 0.030280 210.000000 -0.099502 217.000000 -0.078358 16.000000 -0.024986 109.000000 0.073936 188.000000 0.020139
60037.000000 1.061173 235.000000 234.000000 148.000000 -0.083293 185.000000 0.042474 204.000000 -0.094455 220.000000 -0.068704 15.000000 -0.024672 104.000000 0.057116 139.000000 -0.061428
60271.000000 1.043226 234.000000 236.000000 103.000000 0.043891 185.000000 0.025735 186.000000 0.025453 221.000000 -0.081180 15.000000 0.010580 99.000000 0.058138 107.000000 0.049408
60507.000000 0.961752 236.000000 236.000000 161.000000 -0.050515 187.000000 0.040769 203.000000 -0.071190 217.000000 -0.100124 16.000000 0.000875 101.000000 0.056397 107.000000 0.047683
60743.000000 0.983373 236.000000 242.000000 141.000000 -0.055829 191.000000 0.016491 204.000000 -0.022254 227.000000 -0.073934 15.000000 0.002715 106.000000 0.057085 109.000000 0.048024
60985.000000 1.037446 242.000000 242.000000 165.000000 -0.054436 190.000000 0.024859 204.000000 -0.049105 226.000000 -0.076051 15.000000 -0.010781 103.000000 0.061598 113.000000 0.037585
61227.000000 1.105345 242.000000 236.000000 104.000000 0.053040 186.000000 0.041196 197.000000 -0.016109 221.000000 -0.071174 19.000000 -0.026394 102.000000 0.077664 112.000000 0.035094
61700.000000 1.040674 237.000000 238.000000 104.000000 0.042897 189.000000 0.022836 207.000000 -0.105266 221.000000 -0.099918 15.000000 -0.020709 107.000000 0.063555 190.000000 0.017444
62187.000000 1.025739 249.000000 241.000000 106.000000 0.049592 191.000000 0.020786 216.000000 -0.106329 223.000000 -0.077254 13.000000 0.028544 104.000000 0.064185 113.000000 0.055565
62667.000000 1.145754 239.000000 233.000000 126.000000 -0.031956 185.000000 0.038760 202.000000 -0.097009 217.000000 -0.099737 15.000000 -0.018807 101.000000 0.063530 113.000000 0.019047
62900.000000 1.094118 233.000000 237.000000 146.000000 -0.051210 185.000000 0.031079 199.000000 -0.058967 220.000000 -0.075911 15.000000 -0.015708 98.000000 0.064201 99.000000 0.064201
63371.000000 0.977911 234.000000 243.000000 161.000000 -0.067294 193.000000 0.028882 223.000000 -0.100192 228.000000 -0.060113 16.000000 -0.043405 109.000000 0.078745 161.000000 -0.067294
63855.000000 1.105768 241.000000 233.000000 151.000000 -0.047680 185.000000 0.038744 210.000000 -0.072917 218.000000 -0.092933 16.000000 -0.045784 103.000000 0.071082 133.000000 -0.047538
64088.000000 1.051816 233.000000 234.000000 159.000000 -0.048277 183.000000 0.032099 210.000000 -0.112181 217.000000 -0.092417 14.000000 0.022789 110.000000 0.070314 164.000000 -0.066648
64322.000000 0.959197 234.000000 240.000000 136.000000 -0.051222 190.000000 0.058696 205.000000 -0.077041 225.000000 -0.079391 15.000000 -0.023341 105.000000 0.081708 140.000000 -0.042226
64562.000000 0.996751 240.000000 247.000000 163.000000 -0.024282 195.000000 0.036581 212.000000 -0.044392 232.000000 -0.095286 15.000000 -0.030287 105.000000 0.082164 108.000000 0.077963
64809.000000 1.106077 247.000000 241.000000 161.000000 -0.079606 191.000000 0.025708 210.000000 -0.110954 224.000000 -0.107832 15.000000 0.000906 108.000000 0.067603 161.000000 -0.079606
65288.000000 1.058671 238.000000 240.000000 159.000000 -0.042132 190.000000 0.041895 204.000000 -0.045597 223.000000 -0.109126 13.000000 0.045314 98.000000 0.086659 102.000000 0.072554
66006.000000 1.104667 239.000000 241.000000 163.000000 -0.029826 191.000000 0.041224 208.000000 -0.061849 222.000000 -0.079651 12.000000 -0.021258 111.000000 0.075971 163.000000 -0.029826
66247.000000 1.049611 241.000000 246.000000 112.000000 0.071157 195.000000 0.053542 207.000000 -0.034390 230.000000 -0.093309 17.000000 -0.034562 112.000000 0.071157 196.000000 0.043165
67443.000000 1.076114 244.000000 236.000000 109.000000 0.058006 187.000000 0.060205 212.000000 -0.085843 222.000000 -0.094224 16.000000 -0.019747 105.000000 0.070624 109.000000 0.058006
67679.000000 1.099035 236.000000 234.000000 111.000000 0.086206 186.000000 0.054021 212.000000 -0.112027 220.000000 -0.101072 14.000000 0.012621 110.000000 0.090642 158.000000 -0.052732
67913.000000 1.151986 234.000000 231.000000 102.000000 0.092994 183.000000 0.019690 185.000000 0.019125 212.000000 -0.098042 13.000000 -0.009877 103.000000 0.093355 175.000000 -0.003226
68144.000000 1.198900 231.000000 235.000000 105.000000 0.055048 184.000000 0.061342 202.000000 -0.096791 218.000000 -0.095397 13.000000 -0.019219 102.000000 0.064546 105.000000 0.055048
68379.000000 1.117847 235.000000 232.000000 106.000000 0.083025 181.000000 0.043556 195.000000 -0.047951 215.000000 -0.096553 15.000000 -0.023249 105.000000 0.087822 116.000000 0.044295
69327.000000 1.242674 235.000000 234.000000 158.000000 -0.075068 183.000000 0.012065 201.000000 -0.088608 212.000000 -0.104753 13.000000 0.010638 106.000000 0.092493 129.000000 -0.004844
69795.000000 1.100341 234.000000 247.000000 162.000000 -0.045599 192.000000 0.042757 214.000000 -0.089454 227.000000 -0.090096 15.000000 -0.028249 108.000000 0.066271 118.000000 0.063355
70281.000000 1.067161 239.000000 238.000000 166.000000 -0.061508 191.000000 0.034133 208.000000 -0.085678 221.000000 -0.086475 17.000000 -0.030567 112.000000 0.081442 168.000000 -0.062417
70519.000000 1.044889 238.000000 237.000000 164.000000 -0.035520 187.000000 0.057788 205.000000 -0.110975 222.000000 -0.101601 14.000000 -0.013984 104.000000 0.095000 143.000000 -0.049517
70756.000000 1.240656 237.000000 235.000000 135.000000 -0.037791 183.000000 0.025840 212.000000 -0.096179 218.000000 -0.121055 15.000000 -0.051178 105.000000 0.068606 135.000000 -0.037791
70991.000000 1.249854 235.000000 234.000000 106.000000 0.048180 184.000000 0.055110 210.000000 -0.109294 217.000000 -0.095140 9.000000 -0.108469 110.000000 0.063979 184.000000 0.055110
71708.000000 1.086195 244.000000 235.000000 156.000000 -0.083492 185.000000 0.048324 196.000000 -0.040768 215.000000 -0.113492 12.000000 0.012634 104.000000 0.083056 125.000000 0.005721
72174.000000 1.110520 231.000000 233.000000 165.000000 -0.037145 185.000000 0.045833 203.000000 -0.089181 216.000000 -0.099133 14.000000 -0.032929 104.000000 0.094059 140.000000 -0.040642
72407.000000 1.217605 233.000000 241.000000 149.000000 -0.062574 189.000000 0.007444 218.000000 -0.112743 224.000000 -0.107351 14.000000 0.000846 112.000000 0.084999 149.000000 -0.062574
72648.000000 1.074078 241.000000 236.000000 168.000000 -0.047395 190.000000 0.028186 210.000000 -0.115106 222.000000 -0.087536 14.000000 0.002150 110.000000 0.072787 169.000000 -0.042708
72884.000000 0.866021 236.000000 238.000000 162.000000 -0.034119 189.000000 0.032341 208.000000 -0.092286 220.000000 -0.092851 15.000000 -0.019745 114.000000 0.083401 125.000000 0.028526
73122.000000 0.908451 238.000000 235.000000 102.000000 0.065488 187.000000 0.015598 202.000000 -0.058212 218.000000 -0.083339 16.000000 -0.063977 105.000000 0.075801 187.000000 0.015598
74068.000000 1.022526 711.000000 243.000000 142.000000 -0.034763 192.000000 0.040536 202.000000 -0.022597 227.000000 -0.089326 17.000000 -0.048836 108.000000 0.070673 170.000000 -0.057662
74311.000000 1.057384 243.000000 235.000000 104.000000 0.081597 184.000000 0.026196 205.000000 -0.130027 218.000000 -0.110092 15.000000 -0.029622 106.000000 0.082083 181.000000 0.007434
74546.000000 1.036633 235.000000 238.000000 108.000000 0.069638 191.000000 0.038656 203.000000 -0.039120 223.000000 -0.108948 17.000000 -0.054541 110.000000 0.080328 193.000000 0.012841
75270.000000 1.175222 247.000000 238.000000 162.000000 -0.070876 189.000000 0.036948 195.000000 -0.049996 221.000000 -0.112740 16.000000 -0.044651 105.000000 0.099764 162.000000 -0.070876
75508.000000 1.239282 238.000000 238.000000 157.000000 -0.050860 190.000000 0.034346 206.000000 -0.079762 220.000000 -0.110626 17.000000 -0.065638 107.000000 0.083450 157.000000 -0.050860
75982.000000 1.099157 236.000000 241.000000 157.000000 -0.084077 190.000000 0.025767 205.000000 -0.081427 225.000000 -0.094353 18.000000 -0.050639 103.000000 0.094325 126.000000 -0.020255
76223.000000 1.119972 241.000000 243.000000 175.000000 -0.057787 194.000000 0.020408 201.000000 -0.047179 223.000000 -0.093352 15.000000 -0.019357 102.000000 0.095220 125.000000 -0.018996
76956.000000 1.173261 246.000000 242.000000 103.000000 0.090046 193.000000 0.021287 220.000000 -0.092852 226.000000 -0.117161 11.000000 0.015565 102.000000 0.094905 104.000000 0.085234
77198.000000 1.260567 242.000000 237.000000 103.000000 0.067539 189.000000 0.028137 203.000000 -0.070264 221.000000 -0.095198 13.000000 0.010190 102.000000 0.077241 105.000000 0.053071
77435.000000 1.152763 237.000000 244.000000 163.000000 -0.035190 193.000000 0.022631 214.000000 -0.129059 227.000000 -0.114277 16.000000 -0.023241 104.000000 0.079576 113.000000 0.062254
77930.000000 1.189990 251.000000 242.000000 162.000000 -0.053197 192.000000 0.042399 194.000000 0.031364 227.000000 -0.116578 15.000000 0.011869 102.000000 0.074639 105.000000 0.065516
78172.000000 1.165210 242.000000 240.000000 169.000000 -0.054010 191.000000 0.050974 199.000000 -0.057911 225.000000 -0.122727 16.000000 -0.020607 108.000000 0.090579 170.000000 -0.064229
78412.000000 1.152146 240.000000 240.000000 159.000000 -0.054828 193.000000 0.050202 220.000000 -0.100912 224.000000 -0.125927 15.000000 -0.030656 108.000000 0.082510 163.000000 -0.068497
78652.000000 1.249669 240.000000 244.000000 169.000000 -0.059143 194.000000 0.042002 210.000000 -0.092199 226.000000 -0.123094 16.000000 -0.031944 109.000000 0.076083 169.000000 -0.059143
79136.000000 1.124229 240.000000 243.000000 161.000000 -0.073511 191.000000 0.017478 208.000000 -0.103289 227.000000 -0.093856 14.000000 -0.002102 106.000000 0.091283 107.000000 0.086628
79379.000000 0.919028 243.000000 245.000000 163.000000 -0.039968 198.000000 0.037414 210.000000 -0.040987 231.000000 -0.111790 13.000000 0.012696 104.000000 0.084421 108.000000 0.065535
79624.000000 1.065076 245.000000 243.000000 164.000000 -0.056566 194.000000 0.059122 212.000000 -0.104233 226.000000 -0.108561 18.000000 -0.069718 110.000000 0.083702 173.000000 -0.046834
79867.000000 1.098806 243.000000 237.000000 145.000000 -0.053276 188.000000 0.035769 189.000000 0.035252 220.000000 -0.113669 15.000000 -0.016081 106.000000 0.086052 132.000000 -0.035797
80104.000000 1.238462 237.000000 245.000000 106.000000 0.071114 193.000000 0.045896 210.000000 -0.089966 226.000000 -0.130878 20.000000 -0.094810 108.000000 0.086443 193.000000 0.045896
80840.000000 1.193962 243.000000 237.000000 156.000000 -0.057446 190.000000 0.045329 216.000000 -0.094000 221.000000 -0.118562 16.000000 -0.075786 98.000000 0.076646 105.000000 0.062853
81077.000000 1.163853 237.000000 243.000000 158.000000 -0.060846 192.000000 0.039375 218.000000 -0.096396 227.000000 -0.130707 17.000000 -0.050471 107.000000 0.083654 163.000000 -0.084937
81320.000000 1.146426 243.000000 245.000000 166.000000 -0.044405 196.000000 0.033134 212.000000 -0.081960 229.000000 -0.078812 16.000000 -0.043730 109.000000 0.082276 137.000000 -0.060703
81565.000000 1.092427 245.000000 248.000000 162.000000 -0.066897 196.000000 0.029107 209.000000 -0.036316 232.000000 -0.098086 15.000000 -0.039672 102.000000 0.093291 168.000000 -0.070078
82061.000000 1.255873 248.000000 241.000000 160.000000 -0.053858 191.000000 0.014170 209.000000 -0.106614 223.000000 -0.117224 14.000000 0.026485 102.000000 0.069985 110.000000 0.066677
82542.000000 1.145832 240.000000 242.000000 103.000000 0.053195 193.000000 0.034749 205.000000 -0.044108 224.000000 -0.099137 16.000000 -0.030974 99.000000 0.067334 103.000000 0.053195
83525.000000 1.097708 243.000000 238.000000 162.000000 -0.044828 186.000000 0.021863 216.000000 -0.101602 220.000000 -0.086399 13.000000 0.024966 100.000000 0.092335 163.000000 -0.052869
83763.000000 1.162081 238.000000 237.000000 132.000000 -0.044321 186.000000 0.049465 201.000000 -0.038357 231.000000 0.134651 15.000000 -0.014172 101.000000 0.090598 127.000000 -0.029133
84000.000000 1.211093 237.000000 237.000000 157.000000 -0.067406 187.000000 0.055241 189.000000 0.039380 223.000000 -0.092822 6.000000 -0.062151 104.000000 0.073123 157.000000 -0.067406
84237.000000 1.134670 237.000000 241.000000 168.000000 -0.058963 191.000000 0.039470 198.000000 -0.038148 224.000000 -0.105987 13.000000 0.042807 110.000000 0.070282 157.000000 -0.063290
84478.000000 1.054970 241.000000 248.000000 168.000000 -0.048147 199.000000 0.039299 225.000000 -0.098133 233.000000 -0.112082 14.000000 0.012479 109.000000 0.082948 155.000000 -0.054182
84726.000000 1.091021 248.000000 239.000000 105.000000 0.056224 189.000000 0.043325 206.000000 -0.080734 218.000000 -0.085767 15.000000 -0.018900 102.000000 0.080503 105.000000 0.056224
84965.000000 1.097290 239.000000 238.000000 162.000000 -0.048556 187.000000 0.017557 205.000000 -0.086770 221.000000 -0.092932 14.000000 0.005504 101.000000 0.086317 110.000000 0.043182
85445.000000 1.140403 242.000000 249.000000 162.000000 -0.033731 197.000000 0.055562 204.000000 -0.042023 231.000000 -0.099423 16.000000 -0.012732 114.000000 0.076128 162.000000 -0.033731
85934.000000 1.116378 240.000000 240.000000 165.000000 -0.041617 192.000000 0.040546 208.000000 -0.078326 224.000000 -0.088892 16.000000 -0.048839 106.000000 0.078623 144.000000 -0.068149
86657.000000 1.178529 243.000000 238.000000 149.000000 -0.067363 186.000000 0.037700 197.000000 -0.025938 222.000000 -0.091987 15.000000 -0.015812 102.000000 0.069344 134.000000 -0.049997
86895.000000 1.169829 238.000000 243.000000 154.000000 -0.065561 190.000000 0.022542 213.000000 -0.100702 227.000000 -0.101159 16.000000 -0.036644 106.000000 0.078199 154.000000 -0.065561
87138.000000 1.060675 243.000000 243.000000 172.000000 -0.047880 195.000000 0.038217 206.000000 -0.050264 225.000000 -0.102071 17.000000 -0.035734 112.000000 0.081820 162.000000 -0.030969
87381.000000 1.079388 243.000000 245.000000 169.000000 -0.040266 195.000000 0.051211 203.000000 -0.041266 230.000000 -0.105954 15.000000 -0.022869 111.000000 0.083465 169.000000 -0.040266
87626.000000 1.086759 245.000000 234.000000 147.000000 -0.060890 186.000000 0.034755 200.000000 -0.048286 218.000000 -0.122410 15.000000 -0.033772 105.000000 0.093718 147.000000 -0.060890
87860.000000 1.180599 234.000000 241.000000 136.000000 -0.026742 188.000000 0.022602 189.000000 0.022179 221.000000 -0.110749 12.000000 0.018656 102.000000 0.063373 111.000000 0.050721
88101.000000 1.219549 241.000000 244.000000 165.000000 -0.049761 194.000000 0.060287 212.000000 -0.069041 227.000000 -0.084936 15.000000 -0.007834 112.000000 0.071133 137.000000 -0.026516
88345.000000 1.190866 244.000000 240.000000 147.000000 -0.071082 188.000000 0.032745 189.000000 0.032338 222.000000 -0.114619 14.000000 0.013312 107.000000 0.071316 147.000000 -0.071082
88585.000000 1.128124 240.000000 232.000000 102.000000 0.060140 184.000000 0.033562 196.000000 -0.050561 216.000000 -0.087440 15.000000 -0.033129 107.000000 0.075972 182.000000 0.019392
88817.000000 1.063091 232.000000 475.000000 249.000000 0.802110 285.000000 0.192188 429.000000 0.008372 458.000000 -0.099514 15.000000 0.025488 249.000000 0.802110 319.000000 -0.105818
89292.000000 1.234920 475.000000 241.000000 161.000000 -0.056235 190.000000 0.037119 211.000000 -0.134355 225.000000 -0.096253 16.000000 -0.036441 109.000000 0.122604 161.000000 -0.056235
89771.000000 1.088167 238.000000 239.000000 168.000000 -0.037714 191.000000 0.030608 220.000000 -0.084769 229.000000 -0.139832 13.000000 0.044045 111.000000 0.071584 146.000000 -0.048087
90010.000000 1.060794 239.000000 237.000000 160.000000 -0.049781 186.000000 0.040062 214.000000 -0.111066 221.000000 -0.085282 14.000000 0.027269 109.000000 0.080408 141.000000 -0.054920
90477.000000 1.142216 230.000000 240.000000 107.000000 0.031975 188.000000 0.027635 217.000000 -0.099951 223.000000 -0.085297 13.000000 0.000398 112.000000 0.053230 188.000000 0.027635
90717.000000 1.060223 240.000000 243.000000 162.000000 -0.039636 193.000000 0.042608 202.000000 -0.034461 228.000000 -0.105025 15.000000 0.006917 111.000000 0.061143 162.000000 -0.039636
90960.000000 1.061809 243.000000 236.000000 150.000000 -0.070890 183.000000 0.032483 184.000000 0.032185 220.000000 -0.097864 15.000000 -0.005763 100.000000 0.073951 104.000000 0.044704
91196.000000 1.118951 236.000000 229.000000 135.000000 -0.051705 181.000000 0.017465 201.000000 -0.093572 212.000000 -0.084795 15.000000 -0.009309 102.000000 0.063342 138.000000 -0.042631
91425.000000 1.054750 229.000000 233.000000 162.000000 -0.060205 184.000000 0.054841 204.000000 -0.113121 216.000000 -0.095756 15.000000 0.004296 112.000000 0.057118 143.000000 -0.069137
91898.000000 1.018834 240.000000 241.000000 169.000000 -0.040380 191.000000 0.065465 209.000000 -0.081870 224.000000 -0.100977 16.000000 -0.018859 108.000000 0.060470 152.000000 -0.057808
92139.000000 0.991469 241.000000 240.000000 167.000000 -0.040720 189.000000 0.041928 217.000000 -0.075095 223.000000 -0.089264 15.000000 -0.005301 108.000000 0.073794 167.000000 -0.040720
92379.000000 1.073527 240.000000 237.000000 157.000000 -0.052425 189.000000 0.044520 206.000000 -0.078977 221.000000 -0.098948 13.000000 0.022055 109.000000 0.069609 163.000000 -0.059495
92616.000000 1.052416 237.000000 236.000000 109.000000 0.056851 188.000000 0.033262 210.000000 -0.101316 221.000000 -0.076755 19.000000 -0.064715 109.000000 0.056851 186.000000 0.028873
93331.000000 0.989519 243.000000 244.000000 151.000000 -0.049810 196.000000 0.035598 215.000000 -0.093182 228.000000 -0.088356 13.000000 0.026825 116.000000 0.062588 168.000000 -0.057160
93575.000000 1.016975 244.000000 236.000000 162.000000 -0.043917 187.000000 0.056193 211.000000 -0.072760 221.000000 -0.087525 13.000000 0.008324 101.000000 0.085145 134.000000 -0.032972
94041.000000 1.133811 230.000000 233.000000 105.000000 0.050359 184.000000 0.032810 196.000000 -0.045107 216.000000 -0.110654 12.000000 0.011366 103.000000 0.059671 105.000000 0.050359
94274.000000 1.070945 233.000000 236.000000 109.000000 0.071758 191.000000 0.042762 209.000000 -0.099401 221.000000 -0.093663 17.000000 -0.035889 110.000000 0.077041 191.000000 0.042762
94510.000000 1.007840 236.000000 237.000000 147.000000 -0.048602 186.000000 0.041399 205.000000 -0.102270 222.000000 -0.082737 13.000000 0.009657 103.000000 0.065517 105.000000 0.050972
95215.000000 1.012057 230.000000 236.000000 165.000000 -0.036802 190.000000 0.040000 209.000000 -0.093592 220.000000 -0.083968 16.000000 -0.037220 107.000000 0.059300 129.000000 -0.010717
95451.000000 1.000437 236.000000 231.000000 103.000000 0.056632 182.000000 0.054093 208.000000 -0.076033 214.000000 -0.100752 16.000000 -0.014311 101.000000 0.071302 103.000000 0.056632
95682.000000 0.950110 231.000000 244.000000 111.000000 0.059547 195.000000 0.049919 224.000000 -0.087136 229.000000 -0.072576 16.000000 -0.038149 106.000000 0.083402 111.000000 0.059547
95926.000000 1.007096 244.000000 240.000000 107.000000 0.052244 189.000000 0.033041 215.000000 -0.099358 222.000000 -0.069123 14.000000 -0.001368 102.000000 0.076319 107.000000 0.052244
96166.000000 1.073982 240.000000 238.000000 107.000000 0.044843 189.000000 0.048471 213.000000 -0.065856 224.000000 -0.063428 13.000000 0.002386 104.000000 0.068872 107.000000 0.044843
96404.000000 1.045831 238.000000 232.000000 141.000000 -0.044282 180.000000 0.032738 181.000000 0.032644 216.000000 -0.070992 14.000000 0.015076 105.000000 0.072507 141.000000 -0.044282
96636.000000 0.998600 232.000000 234.000000 150.000000 -0.076191 185.000000 0.033526 203.000000 -0.101473 216.000000 -0.113416 15.000000 0.007349 104.000000 0.064247 106.000000 0.039873
97104.000000 1.092103 234.000000 236.000000 148.000000 -0.038577 186.000000 0.064310 197.000000 -0.002947 221.000000 -0.071940 16.000000 -0.012506 103.000000 0.065094 154.000000 -0.054062
97340.000000 1.071006 236.000000 238.000000 165.000000 -0.062302 187.000000 0.019078 196.000000 -0.051015 220.000000 -0.117977 15.000000 -0.019468 105.000000 0.065549 142.000000 -0.049888
97578.000000 1.054718 238.000000 235.000000 155.000000 -0.053102 184.000000 0.027229 194.000000 -0.025687 217.000000 -0.066124 16.000000 -0.054857 110.000000 0.095359 155.000000 -0.053102
98043.000000 1.017965 230.000000 227.000000 147.000000 -0.013701 176.000000 0.041596 188.000000 -0.080818 211.000000 -0.057726 19.000000 -0.046803 99.000000 0.126582 101.000000 0.112804
98502.000000 1.041770 232.000000 239.000000 108.000000 0.066739 192.000000 0.017931 210.000000 -0.080768 224.000000 -0.087902 13.000000 0.034528 107.000000 0.072068 118.000000 0.023621
98741.000000 1.065327 239.000000 230.000000 145.000000 -0.046960 181.000000 0.039592 193.000000 -0.021520 214.000000 -0.083853 11.000000 0.045499 99.000000 0.071189 105.000000 0.049920
98971.000000 1.153765 230.000000 227.000000 137.000000 -0.047558 180.000000 0.047158 194.000000 -0.070600 210.000000 -0.099990 13.000000 0.042589 109.000000 0.081786 137.000000 -0.047558
99198.000000 1.147504 227.000000 227.000000 156.000000 -0.068968 178.000000 0.056126 197.000000 -0.087227 212.000000 -0.106115 17.000000 -0.048609 106.000000 0.061113 107.000000 0.051270
99425.000000 1.100609 227.000000 234.000000 154.000000 -0.072103 183.000000 0.052254 209.000000 -0.085568 220.000000 -0.079910 13.000000 0.076926 109.000000 0.053996 154.000000 -0.072103
99659.000000 1.126690 234.000000 226.000000 102.000000 0.081632 177.000000 0.065131 194.000000 -0.086722 209.000000 -0.085090 14.000000 0.017724 104.000000 0.092212 177.000000 0.065131
100118.000000 1.109344 233.000000 232.000000 141.000000 -0.057398 186.000000 0.056003 203.000000 -0.078119 216.000000 -0.084168 13.000000 0.036662 114.000000 0.078104 149.000000 -0.059201
100802.000000 1.102695 223.000000 230.000000 144.000000 -0.079218 183.000000 0.021864 200.000000 -0.097557 213.000000 -0.097899 14.000000 -0.019863 102.000000 0.100674 107.000000 0.042305
101266.000000 1.065046 234.000000 227.000000 147.000000 -0.054937 176.000000 0.007666 179.000000 0.005471 211.000000 -0.113278 14.000000 0.015800 106.000000 0.112745 147.000000 -0.054937
101493.000000 1.106958 227.000000 226.000000 134.000000 -0.057840 172.000000 -0.005831 181.000000 -0.009938 206.000000 -0.102617 15.000000 -0.000737 108.000000 0.126595 142.000000 -0.066647
102163.000000 1.138945 221.000000 220.000000 107.000000 0.054155 176.000000 0.013577 196.000000 -0.088664 202.000000 -0.094729 14.000000 -0.001979 102.000000 0.079406 107.000000 0.054155
102383.000000 1.118438 220.000000 225.000000 139.000000 -0.031693 177.000000 0.037805 196.000000 -0.109624 207.000000 -0.109840 14.000000 0.031918 104.000000 0.116287 106.000000 0.111115
102830.000000 1.119704 222.000000 220.000000 137.000000 -0.061819 173.000000 0.036550 189.000000 -0.053169 200.000000 -0.121789 19.000000 -0.049685 104.000000 0.087522 144.000000 -0.083951
103050.000000 1.128290 220.000000 220.000000 143.000000 -0.098618 174.000000 0.030910 190.000000 -0.099764 202.000000 -0.129200 16.000000 -0.039722 100.000000 0.126504 126.000000 -0.038887
103486.000000 1.190643 216.000000 224.000000 105.000000 0.084451 170.000000 0.035962 171.000000 0.030821 209.000000 -0.107203 13.000000 0.012539 107.000000 0.089844 171.000000 0.030821
103710.000000 1.150492 224.000000 229.000000 136.000000 -0.054998 182.000000 0.027681 191.000000 -0.058526 212.000000 -0.123460 13.000000 0.018048 103.000000 0.096491 110.000000 0.079044
104596.000000 1.210673 222.000000 227.000000 143.000000 -0.110735 176.000000 0.033733 201.000000 -0.102975 210.000000 -0.078837 13.000000 0.003385 101.000000 0.108258 131.000000 -0.101536
104823.000000 1.281882 227.000000 221.000000 101.000000 0.107069 173.000000 0.035219 177.000000 0.018730 205.000000 -0.131127 16.000000 -0.038684 102.000000 0.107131 173.000000 0.035219
105044.000000 1.179781 221.000000 228.000000 154.000000 -0.061113 182.000000 0.029655 211.000000 -0.134564 213.000000 -0.129250 14.000000 0.011364 111.000000 0.111757 143.000000 -0.052884
105272.000000 1.181706 228.000000 233.000000 133.000000 -0.034499 184.000000 0.052320 195.000000 -0.021755 216.000000 -0.109574 15.000000 0.028430 110.000000 0.106928 152.000000 -0.092805
105729.000000 1.253872 224.000000 227.000000 107.000000 0.080251 180.000000 0.031316 200.000000 -0.124922 214.000000 -0.142962 15.000000 -0.005499 111.000000 0.110940 181.000000 0.026002
105956.000000 1.169702 227.000000 225.000000 100.000000 0.083948 176.000000 0.012479 190.000000 -0.072365 204.000000 -0.084868 11.000000 -0.008542 101.000000 0.089088 170.000000 -0.015265
106181.000000 1.274613 225.000000 234.000000 104.000000 0.083401 183.000000 0.009734 205.000000 -0.121802 218.000000 -0.110049 16.000000 -0.059933 108.000000 0.088527 181.000000 0.001019
106415.000000 1.267818 234.000000 231.000000 138.000000 -0.036485 183.000000 0.041095 207.000000 -0.104359 215.000000 -0.079720 16.000000 -0.003875 110.000000 0.102306 112.000000 0.087652
106875.000000 1.277664 229.000000 448.000000 371.000000 -0.113874 402.000000 0.034921 428.000000 -0.068011 434.000000 -0.092022 15.000000 0.038698 214.000000 0.804130 217.000000 0.789505
107323.000000 1.261567 448.000000 182.000000 57.000000 -0.081680 115.000000 0.134860 117.000000 0.129751 165.000000 0.076775 14.000000 0.053870 108.000000 0.085236 117.000000 0.129751
107505.000000 1.097915 182.000000 216.000000 101.000000 0.041316 195.000000 0.736677 183.000000 0.505533 190.000000 0.619795 13.000000 0.142915 111.000000 0.103838 202.000000 0.814640
108678.000000 0.826193 259.000000 234.000000 109.000000 0.079767 176.000000 0.023486 192.000000 -0.026185 218.000000 -0.086689 15.000000 -0.113884 104.000000 0.104014 114.000000 0.100300
110298.000000 0.924577 318.000000 220.000000 141.000000 -0.037927 169.000000 0.035944 184.000000 -0.052192 204.000000 -0.075203 13.000000 -0.124341 105.000000 0.072525 142.000000 -0.043366
110518.000000 1.209326 220.000000 233.000000 102.000000 0.165583 182.000000 0.029251 196.000000 -0.021156 216.000000 -0.110093 17.000000 -0.018198 101.000000 0.165614 102.000000 0.165583
110751.000000 1.282870 233.000000 223.000000 101.000000 0.027337 171.000000 0.044968 172.000000 0.039717 201.000000 -0.082321 16.000000 -0.051849 97.000000 0.071804 106.000000 0.057682
111198.000000 1.170650 224.000000 227.000000 99.000000 0.067255 178.000000 0.068284 195.000000 -0.092030 211.000000 -0.079143 16.000000 -0.061796 102.000000 0.097271 178.000000 0.068284
112120.000000 1.136972 230.000000 228.000000 132.000000 -0.021390 179.000000 0.050446 195.000000 -0.089070 207.000000 -0.126578 15.000000 -0.030457 96.000000 0.084014 100.000000 0.055143
112580.000000 0.998998 232.000000 230.000000 139.000000 -0.057480 184.000000 0.058589 212.000000 -0.056879 216.000000 -0.091864 13.000000 0.020973 105.000000 0.075185 148.000000 -0.063358
113517.000000 1.346586 232.000000 232.000000 127.000000 -0.013762 185.000000 0.040347 199.000000 0.000299 215.000000 0.002807 14.000000 -0.046123 103.000000 0.008638 127.000000 -0.013762
114451.000000 1.301316 236.000000 232.000000 155.000000 -0.055571 182.000000 0.028191 190.000000 0.005700 213.000000 -0.063015 15.000000 -0.035425 99.000000 0.029247 116.000000 -0.023952
115601.000000 1.110875 232.000000 234.000000 146.000000 -0.055693 182.000000 0.093243 198.000000 -0.026097 214.000000 -0.051834 14.000000 0.017896 107.000000 0.080325 133.000000 0.001234
116065.000000 1.226962 230.000000 229.000000 147.000000 -0.042927 177.000000 0.035647 178.000000 0.030647 212.000000 -0.081327 14.000000 0.009204 91.000000 0.060627 97.000000 0.026598
116294.000000 1.298908 229.000000 225.000000 122.000000 -0.048697 173.000000 0.034544 176.000000 0.028557 207.000000 -0.075328 14.000000 -0.002380 101.000000 0.032527 122.000000 -0.048697
117222.000000 1.269941 231.000000 228.000000 99.000000 0.085536 180.000000 0.032341 182.000000 0.021715 212.000000 -0.122315 14.000000 -0.009621 98.000000 0.105253 99.000000 0.085536
117450.000000 1.198404 228.000000 232.000000 103.000000 0.028417 182.000000 0.054315 192.000000 0.001400 217.000000 -0.089916 14.000000 0.000520 107.000000 0.058604 183.000000 0.053955
117682.000000 1.156589 232.000000 239.000000 164.000000 -0.015184 191.000000 0.060193 207.000000 -0.038210 222.000000 -0.079731 14.000000 0.007875 105.000000 0.092618 168.000000 -0.060262
118859.000000 1.136237 233.000000 228.000000 144.000000 -0.050797 177.000000 0.047292 178.000000 0.042214 211.000000 -0.097444 15.000000 -0.019436 94.000000 0.058306 101.000000 0.040784
119087.000000 1.068915 228.000000 239.000000 164.000000 -0.042525 187.000000 0.044919 200.000000 -0.016900 220.000000 -0.126176 16.000000 -0.044453 103.000000 0.083748 145.000000 -0.071680
119563.000000 1.191160 237.000000 233.000000 144.000000 -0.037723 181.000000 0.075894 202.000000 -0.063258 214.000000 -0.060956 13.000000 0.045077 102.000000 0.048716 128.000000 -0.059212
120721.000000 1.120077 232.000000 236.000000 153.000000 -0.058059 187.000000 0.057992 196.000000 -0.010911 221.000000 -0.077692 13.000000 0.023117 100.000000 0.046237 162.000000 -0.048858
120957.000000 1.085884 236.000000 238.000000 167.000000 -0.058464 190.000000 0.043074 217.000000 -0.091710 222.000000 -0.092540 15.000000 -0.009009 107.000000 0.067976 168.000000 -0.049232
121195.000000 1.219011 238.000000 234.000000 158.000000 -0.045583 183.000000 0.027522 192.000000 -0.015769 216.000000 -0.080626 18.000000 -0.048011 97.000000 0.074479 159.000000 -0.042275
121429.000000 1.188371 234.000000 231.000000 96.000000 0.024433 180.000000 0.040910 197.000000 -0.045000 216.000000 -0.067441 16.000000 -0.027585 93.000000 0.044668 103.000000 0.029135
121660.000000 1.101510 231.000000 242.000000 161.000000 -0.037991 191.000000 0.045663 210.000000 -0.071327 225.000000 -0.072801 14.000000 0.020648 101.000000 0.053544 149.000000 -0.044275
121902.000000 1.087307 242.000000 247.000000 158.000000 -0.034965 195.000000 0.053956 208.000000 -0.022974 229.000000 -0.081923 13.000000 0.044456 110.000000 0.062433 158.000000 -0.034965
122149.000000 1.180461 247.000000 237.000000 161.000000 -0.059592 187.000000 0.029545 205.000000 -0.100829 219.000000 -0.094964 13.000000 0.014364 92.000000 0.055254 97.000000 0.025772
123329.000000 1.170182 236.000000 238.000000 139.000000 -0.051147 186.000000 0.034307 196.000000 -0.013435 218.000000 -0.084707 12.000000 -0.016463 101.000000 0.065689 139.000000 -0.051147
123567.000000 1.121969 238.000000 237.000000 164.000000 -0.033104 190.000000 0.044874 201.000000 -0.022164 219.000000 -0.097620 16.000000 -0.005256 104.000000 0.051600 150.000000 -0.060974
123804.000000 1.077991 237.000000 238.000000 160.000000 -0.055223 188.000000 0.066127 207.000000 -0.099925 222.000000 -0.108278 15.000000 0.009716 105.000000 0.060313 144.000000 -0.032103
124273.000000 1.152317 231.000000 237.000000 155.000000 -0.052946 188.000000 0.035046 212.000000 -0.093591 220.000000 -0.098483 16.000000 -0.030174 106.000000 0.049937 136.000000 -0.056111
124510.000000 1.130951 237.000000 243.000000 163.000000 -0.031129 193.000000 0.062712 204.000000 0.005970 227.000000 -0.079031 13.000000 0.002048 109.000000 0.058070 140.000000 -0.041364
124753.000000 1.036455 243.000000 237.000000 161.000000 -0.072680 188.000000 0.053540 206.000000 -0.085940 219.000000 -0.087492 15.000000 -0.016805 95.000000 0.045941 105.000000 0.021834
124990.000000 1.071191 237.000000 235.000000 158.000000 -0.039845 186.000000 0.034323 204.000000 -0.064907 214.000000 -0.085439 10.000000 -0.003576 98.000000 0.071126 101.000000 0.056691
125225.000000 1.020878 235.000000 237.000000 103.000000 0.073306 189.000000 0.045216 217.000000 -0.084045 223.000000 -0.084326 14.000000 0.013011 102.000000 0.078149 104.000000 0.068510
125462.000000 1.146710 237.000000 239.000000 164.000000 -0.038226 191.000000 0.033386 220.000000 -0.096627 224.000000 -0.082254 12.000000 0.013512 103.000000 0.060155 164.000000 -0.038226
125701.000000 1.107808 239.000000 241.000000 99.000000 0.047964 189.000000 0.055721 216.000000 -0.076188 227.000000 -0.064652 16.000000 -0.035046 96.000000 0.058074 99.000000 0.047964
125942.000000 1.047654 241.000000 245.000000 165.000000 -0.035471 193.000000 0.048448 226.000000 -0.066737 230.000000 -0.091313 16.000000 -0.042459 105.000000 0.056690 145.000000 -0.061414
126187.000000 1.035193 245.000000 246.000000 163.000000 -0.046286 196.000000 0.041378 197.000000 0.041096 231.000000 -0.092411 15.000000 0.008310 102.000000 0.065988 112.000000 0.048856
126433.000000 1.068750 246.000000 242.000000 168.000000 -0.023933 192.000000 0.054013 214.000000 -0.072709 226.000000 -0.066939 14.000000 -0.008507 106.000000 0.081831 141.000000 -0.023186
126675.000000 1.175927 242.000000 237.000000 162.000000 -0.073146 188.000000 0.035286 207.000000 -0.110280 223.000000 -0.112618 13.000000 0.020203 93.000000 0.067083 97.000000 0.047225
126912.000000 1.071958 237.000000 245.000000 169.000000 -0.032614 193.000000 0.066178 213.000000 -0.088040 230.000000 -0.067600 14.000000 0.027570 108.000000 0.074769 170.000000 -0.042661
127157.000000 1.034453 245.000000 249.000000 169.000000 -0.048693 198.000000 0.070414 200.000000 0.059881 232.000000 -0.080029 14.000000 0.022793 104.000000 0.057010 113.000000 0.029738
127648.000000 1.104907 242.000000 242.000000 141.000000 -0.050156 190.000000 0.050656 215.000000 -0.094718 224.000000 -0.081818 20.000000 -0.045943 103.000000 0.078870 122.000000 -0.031880
128129.000000 1.035127 239.000000 240.000000 103.000000 0.062744 191.000000 0.047682 214.000000 -0.083966 222.000000 -0.078291 13.000000 0.018889 103.000000 0.062744 189.000000 0.038074
128369.000000 1.029704 240.000000 247.000000 164.000000 -0.052426 199.000000 0.048392 216.000000 -0.097661 230.000000 -0.086610 16.000000 -0.020703 104.000000 0.056662 151.000000 -0.056361
128865.000000 1.060929 249.000000 242.000000 164.000000 -0.068384 195.000000 0.015203 222.000000 -0.085843 228.000000 -0.094948 15.000000 -0.018023 101.000000 0.081675 135.000000 -0.059235
129847.000000 1.046393 252.000000 244.000000 172.000000 -0.069374 192.000000 0.022397 194.000000 0.021801 228.000000 -0.087617 12.000000 0.046408 105.000000 0.079904 152.000000 -0.044188
130091.000000 1.135660 244.000000 241.000000 162.000000 -0.066864 192.000000 0.038023 200.000000 -0.034563 226.000000 -0.094056 17.000000 -0.028401 103.000000 0.057444 141.000000 -0.078451
130332.000000 1.095334 241.000000 240.000000 162.000000 -0.042441 191.000000 0.049567 193.000000 0.038596 224.000000 -0.096799 15.000000 0.011307 102.000000 0.063293 162.000000 -0.042441
130572.000000 1.091367 240.000000 485.000000 256.000000 0.787757 291.000000 0.224512 380.000000 -0.205799 468.000000 -0.096457 19.000000 -0.034214 256.000000 0.787757 362.000000 -0.191663
131057.000000 1.101456 485.000000 243.000000 147.000000 -0.037619 191.000000 0.055735 208.000000 -0.083889 225.000000 -0.069406 15.000000 -0.010991 108.000000 0.104230 110.000000 0.084637
131540.000000 1.072613 240.000000 235.000000 149.000000 -0.056270 185.000000 0.045876 195.000000 -0.030520 218.000000 -0.084219 13.000000 0.018368 102.000000 0.074170 149.000000 -0.056270
131775.000000 1.103869 235.000000 232.000000 131.000000 -0.048434 181.000000 0.030121 186.000000 -0.020271 223.000000 -0.125258 15.000000 0.007145 100.000000 0.048151 101.000000 0.038433
132241.000000 1.084478 234.000000 241.000000 106.000000 0.027319 190.000000 0.040546 211.000000 -0.093357 225.000000 -0.099344 15.000000 0.011138 110.000000 0.042930 190.000000 0.040546
132482.000000 1.110798 241.000000 233.000000 132.000000 -0.037227 182.000000 0.056174 183.000000 0.050924 218.000000 -0.087370 16.000000 0.011879 99.000000 0.063243 108.000000 0.030830
132715.000000 1.059448 233.000000 234.000000 156.000000 -0.058635 187.000000 0.053371 206.000000 -0.101678 218.000000 -0.094765 15.000000 -0.017605 106.000000 0.078404 136.000000 -0.037991
132949.000000 1.203482 234.000000 233.000000 98.000000 0.060565 185.000000 0.025193 208.000000 -0.090875 216.000000 -0.100202 15.000000 -0.007252 97.000000 0.065409 98.000000 0.060565
133182.000000 1.197402 233.000000 238.000000 102.000000 0.047476 188.000000 0.063463 195.000000 -0.021426 218.000000 -0.098007 18.000000 -0.063255 105.000000 0.068008 184.000000 -0.000941
133653.000000 1.091599 233.000000 243.000000 162.000000 -0.047650 190.000000 0.028898 201.000000 -0.013970 227.000000 -0.102906 16.000000 -0.018417 103.000000 0.061601 106.000000 0.042604
133896.000000 1.075261 243.000000 246.000000 164.000000 -0.064299 195.000000 0.046597 212.000000 -0.067384 229.000000 -0.093373 16.000000 -0.015506 100.000000 0.072257 101.000000 0.062211
135100.000000 1.181866 248.000000 238.000000 154.000000 -0.051408 189.000000 0.027859 205.000000 -0.059414 223.000000 -0.118898 13.000000 0.044610 99.000000 0.073479 102.000000 0.064560
135338.000000 1.192292 238.000000 234.000000 159.000000 -0.049655 185.000000 0.061410 196.000000 0.002304 219.000000 -0.067025 13.000000 -0.011220 101.000000 0.064423 104.000000 0.045066
135572.000000 1.127052 234.000000 233.000000 136.000000 -0.049421 188.000000 0.050061 202.000000 -0.063638 217.000000 -0.080192 14.000000 0.012287 105.000000 0.059905 144.000000 -0.046678
135805.000000 0.959666 233.000000 238.000000 102.000000 0.061647 187.000000 0.064070 199.000000 -0.009142 221.000000 -0.075508 15.000000 -0.000694 103.000000 0.066804 185.000000 0.049744
136043.000000 1.011342 238.000000 233.000000 151.000000 -0.060959 183.000000 0.035841 210.000000 -0.094691 218.000000 -0.099361 16.000000 -0.032199 102.000000 0.069767 151.000000 -0.060959
136276.000000 1.166547 233.000000 238.000000 170.000000 -0.028327 188.000000 0.053521 211.000000 -0.111525 219.000000 -0.077230 15.000000 0.012879 110.000000 0.064530 145.000000 -0.041993
136514.000000 1.188315 238.000000 239.000000 161.000000 -0.016099 190.000000 0.048697 211.000000 -0.090802 223.000000 -0.086350 16.000000 -0.000556 111.000000 0.049579 137.000000 -0.031505
137213.000000 1.073227 229.000000 236.000000 139.000000 -0.083765 184.000000 0.034309 193.000000 -0.003560 217.000000 -0.080202 13.000000 0.031300 100.000000 0.064354 104.000000 0.045530
137922.000000 1.031458 231.000000 233.000000 137.000000 -0.049031 185.000000 0.048162 187.000000 0.037865 213.000000 -0.082685 14.000000 0.037162 109.000000 0.076675 137.000000 -0.049031
138155.000000 1.010218 233.000000 232.000000 139.000000 -0.064849 184.000000 0.031341 201.000000 -0.060789 218.000000 -0.119536 14.000000 -0.002040 103.000000 0.060156 139.000000 -0.064849
138387.000000 1.102078 232.000000 235.000000 101.000000 0.053259 184.000000 0.056374 191.000000 -0.024879 219.000000 -0.081795 14.000000 -0.006087 103.000000 0.058589 179.000000 -0.007026
138622.000000 1.129020 235.000000 229.000000 142.000000 -0.054970 178.000000 0.048337 179.000000 0.047804 211.000000 -0.091597 17.000000 -0.045600 97.000000 0.044249 101.000000 0.014530
138851.000000 1.016761 229.000000 240.000000 154.000000 -0.039848 190.000000 0.060419 199.000000 -0.006320 220.000000 -0.095756 15.000000 -0.003948 106.000000 0.076549 116.000000 0.033758
139794.000000 1.039027 229.000000 235.000000 105.000000 0.023980 184.000000 0.056181 208.000000 -0.070593 219.000000 -0.061374 19.000000 -0.047053 100.000000 0.038369 105.000000 0.023980
140503.000000 0.963486 232.000000 234.000000 104.000000 0.039783 185.000000 0.027434 186.000000 0.027105 220.000000 -0.059904 13.000000 0.029393 109.000000 0.055300 186.000000 0.027105
140737.000000 0.994705 234.000000 234.000000 143.000000 -0.057269 186.000000 0.035015 191.000000 0.003213 218.000000 -0.087276 14.000000 -0.015246 104.000000 0.070491 143.000000 -0.057269
140971.000000 1.011189 234.000000 233.000000 148.000000 -0.031723 181.000000 0.056158 192.000000 -0.006365 216.000000 -0.072996 16.000000 -0.000097 100.000000 0.059686 103.000000 0.045141
141204.000000 0.932490 233.000000 231.000000 143.000000 -0.042441 179.000000 0.033291 198.000000 -0.060109 215.000000 -0.065971 17.000000 -0.041711 105.000000 0.059157 143.000000 -0.042441
141435.000000 0.885595 231.000000 238.000000 139.000000 -0.029902 188.000000 0.047022 212.000000 -0.067319 224.000000 -0.056974 12.000000 0.026850 104.000000 0.052917 109.000000 0.034265
141673.000000 0.899422 238.000000 243.000000 157.000000 -0.073116 191.000000 0.045658 200.000000 -0.011396 228.000000 -0.071866 15.000000 -0.007614 107.000000 0.056319 160.000000 -0.080295
141916.000000 0.969906 243.000000 232.000000 143.000000 -0.073915 185.000000 0.007946 202.000000 -0.090801 215.000000 -0.087072 13.000000 0.001333 102.000000 0.053261 143.000000 -0.073915
142381.000000 0.957864 233.000000 234.000000 134.000000 -0.055091 185.000000 0.020263 203.000000 -0.088638 218.000000 -0.098577 15.000000 -0.005676 105.000000 0.050803 134.000000 -0.055091
142858.000000 0.944430 243.000000 233.000000 143.000000 -0.051942 183.000000 0.043731 184.000000 0.043559 214.000000 -0.092117 14.000000 0.021828 109.000000 0.056194 132.000000 -0.030922
143091.000000 0.956302 233.000000 238.000000 104.000000 0.047854 189.000000 0.043371 205.000000 -0.063308 222.000000 -0.082729 16.000000 -0.029810 105.000000 0.063121 189.000000 0.043371
143329.000000 1.079075 238.000000 233.000000 99.000000 0.044485 181.000000 0.039736 210.000000 -0.100468 216.000000 -0.069873 14.000000 0.020705 95.000000 0.058968 103.000000 0.044987
143562.000000 0.983828 233.000000 235.000000 139.000000 -0.052116 184.000000 0.042637 203.000000 -0.094039 220.000000 -0.077706 13.000000 0.006039 104.000000 0.053650 139.000000 -0.052116
143797.000000 0.974646 235.000000 233.000000 104.000000 0.051020 181.000000 0.053203 182.000000 0.052967 213.000000 -0.080167 15.000000 -0.003381 107.000000 0.056803 181.000000 0.053203
144270.000000 1.036760 240.000000 243.000000 163.000000 -0.051345 191.000000 0.031869 215.000000 -0.093587 225.000000 -0.084088 14.000000 0.009313 103.000000 0.059623 125.000000 -0.026848
144513.000000 1.211429 243.000000 232.000000 99.000000 0.057008 181.000000 0.046367 194.000000 -0.027175 215.000000 -0.092332 20.000000 -0.052411 99.000000 0.057008 182.000000 0.030959
144978.000000 1.066290 233.000000 235.000000 139.000000 -0.043889 185.000000 0.050895 197.000000 -0.036864 216.000000 -0.101847 12.000000 0.043076 104.000000 0.066363 139.000000 -0.043889
145213.000000 1.100584 235.000000 244.000000 160.000000 -0.048015 192.000000 0.061123 209.000000 -0.071055 222.000000 -0.095227 17.000000 -0.045015 108.000000 0.072068 170.000000 -0.041354
145692.000000 1.247293 235.000000 233.000000 157.000000 -0.057166 184.000000 0.031753 199.000000 -0.069548 214.000000 -0.108954 12.000000 0.057823 106.000000 0.071173 156.000000 -0.054423
145925.000000 1.173633 233.000000 232.000000 139.000000 -0.059200 178.000000 0.026758 179.000000 0.026397 214.000000 -0.075654 15.000000 -0.039862 105.000000 0.046081 140.000000 -0.054513
146622.000000 0.909629 232.000000 240.000000 109.000000 0.034105 190.000000 0.030599 213.000000 -0.073336 221.000000 -0.083364 15.000000 0.002041 104.000000 0.052680 109.000000 0.034105
147100.000000 1.124098 238.000000 231.000000 105.000000 0.039308 179.000000 0.044355 181.000000 0.039025 215.000000 -0.067667 16.000000 -0.018881 106.000000 0.049605 181.000000 0.039025
147331.000000 0.924795 231.000000 233.000000 164.000000 -0.040159 185.000000 0.038100 204.000000 -0.090331 218.000000 -0.081239 14.000000 0.011769 105.000000 0.047193 148.000000 -0.071118
147564.000000 0.848811 233.000000 234.000000 155.000000 -0.060664 184.000000 0.055373 199.000000 -0.038608 219.000000 -0.044611 15.000000 0.019234 100.000000 0.052929 106.000000 0.023916
147798.000000 0.811674 234.000000 243.000000 105.000000 0.068121 190.000000 0.043585 216.000000 -0.091056 227.000000 -0.076150 18.000000 -0.035896 105.000000 0.068121 190.000000 0.043585
148041.000000 0.945792 243.000000 234.000000 106.000000 0.046521 186.000000 0.049603 212.000000 -0.076193 221.000000 -0.067133 14.000000 -0.001997 102.000000 0.060440 106.000000 0.046521
148275.000000 1.007570 234.000000 233.000000 104.000000 0.030876 185.000000 0.055956 214.000000 -0.068055 218.000000 -0.068243 16.000000 -0.037741 107.000000 0.051142 185.000000 0.055956
148508.000000 0.912385 233.000000 231.000000 139.000000 -0.035397 176.000000 0.034433 178.000000 0.024151 216.000000 -0.057652 14.000000 0.017243 104.000000 0.041110 139.000000 -0.035397
148739.000000 0.854732 231.000000 232.000000 102.000000 0.043744 182.000000 0.036388 210.000000 -0.062136 215.000000 -0.081855 14.000000 0.036488 101.000000 0.053508 111.000000 0.016016
148971.000000 0.819479 232.000000 234.000000 150.000000 -0.077986 183.000000 0.034945 205.000000 -0.068454 219.000000 -0.044127 18.000000 -0.028624 107.000000 0.062945 150.000000 -0.077986
149907.000000 0.882776 229.000000 232.000000 157.000000 -0.043196 182.000000 0.047774 183.000000 0.047524 219.000000 -0.077302 16.000000 -0.025797 108.000000 0.045469 157.000000 -0.043196
150139.000000 0.837403 232.000000 231.000000 137.000000 -0.072520 179.000000 0.037083 198.000000 -0.076193 215.000000 -0.051053 14.000000 0.016368 104.000000 0.042637 137.000000 -0.072520
150607.000000 1.041974 237.000000 234.000000 153.000000 -0.049703 186.000000 0.031627 198.000000 -0.026132 218.000000 -0.087058 16.000000 -0.040659 107.000000 0.050972 132.000000 -0.041927
151075.000000 0.990231 234.000000 227.000000 125.000000 -0.042878 178.000000 0.060426 184.000000 -0.020123 209.000000 -0.090108 15.000000 -0.009471 105.000000 0.053389 130.000000 -0.023569
151302.000000 0.972008 227.000000 233.000000 153.000000 -0.049164 182.000000 0.041744 196.000000 -0.050701 216.000000 -0.076078 16.000000 -0.015184 108.000000 0.043718 154.000000 -0.053631
151535.000000 1.000833 233.000000 230.000000 105.000000 0.048577 184.000000 0.034489 201.000000 -0.073005 214.000000 -0.098351 17.000000 -0.012661 104.000000 0.053263 126.000000 -0.027960
151765.000000 1.072495 230.000000 236.000000 102.000000 0.050647 185.000000 0.062056 196.000000 -0.001394 223.000000 -0.082617 21.000000 -0.071847 103.000000 0.050788 187.000000 0.031366
152001.000000 0.953136 236.000000 235.000000 154.000000 -0.058680 186.000000 0.037781 214.000000 -0.077002 220.000000 -0.106799 5.000000 0.073544 105.000000 0.061757 135.000000 -0.055717
152236.000000 0.973702 235.000000 234.000000 108.000000 0.059847 184.000000 0.045832 212.000000 -0.103104 218.000000 -0.068433 13.000000 0.039988 110.000000 0.065458 184.000000 0.045832
152702.000000 0.973360 232.000000 229.000000 99.000000 0.063403 179.000000 0.039625 209.000000 -0.076594 213.000000 -0.091014 15.000000 -0.005511 102.000000 0.064186 184.000000 0.023511
152931.000000 1.031480 229.000000 234.000000 104.000000 0.042552 182.000000 0.047113 212.000000 -0.092760 220.000000 -0.072632 17.000000 -0.030654 101.000000 0.061454 104.000000 0.042552
153165.000000 1.038654 234.000000 238.000000 160.000000 -0.069189 187.000000 0.044604 195.000000 -0.027496 221.000000 -0.090157 13.000000 0.005722 107.000000 0.057834 128.000000 -0.014439
153403.000000 0.985345 238.000000 234.000000 102.000000 0.044264 182.000000 0.044517 204.000000 -0.089746 218.000000 -0.084915 15.000000 -0.008997 107.000000 0.059891 182.000000 0.044517
153864.000000 0.988678 227.000000 230.000000 146.000000 -0.066820 183.000000 0.037680 196.000000 -0.034781 203.000000 -0.105391 17.000000 -0.006999 102.000000 0.058793 125.000000 -0.028389
154094.000000 1.056006 230.000000 231.000000 105.000000 0.040641 184.000000 0.046220 201.000000 -0.098764 214.000000 -0.112574 16.000000 0.002853 103.000000 0.059842 111.000000 0.032663
154325.000000 1.030263 231.000000 231.000000 99.000000 0.046003 181.000000 0.048337 206.000000 -0.074672 214.000000 -0.084061 17.000000 -0.042759 100.000000 0.046207 176.000000 -0.009971
154556.000000 0.962319 231.000000 234.000000 144.000000 -0.066321 182.000000 0.047456 183.000000 0.047143 217.000000 -0.083671 16.000000 -0.026928 105.000000 0.049605 157.000000 -0.057262
154790.000000 0.927380 234.000000 232.000000 105.000000 0.048368 186.000000 0.061549 212.000000 -0.086617 218.000000 -0.076617 19.000000 -0.035770 112.000000 0.059825 186.000000 0.061549
155022.000000 0.859340 232.000000 232.000000 103.000000 0.041599 183.000000 0.034873 198.000000 -0.057117 216.000000 -0.072695 15.000000 0.014890 99.000000 0.056066 103.000000 0.041599
155254.000000 0.863073 232.000000 227.000000 101.000000 0.015894 177.000000 0.030632 205.000000 -0.069430 213.000000 -0.025433 14.000000 -0.001566 106.000000 0.035881 177.000000 0.030632
155481.000000 0.678863 227.000000 474.000000 311.000000 -0.004934 345.000000 0.045517 358.000000 0.007335 456.000000 -0.042000 15.000000 0.003518 235.000000 0.584439 273.000000 -0.039436
156884.000000 0.586646 697.000000 234.000000 151.000000 -0.066381 181.000000 0.068932 198.000000 -0.043827 216.000000 -0.074186 17.000000 -0.012458 100.000000 0.039673 106.000000 0.030942
157118.000000 0.932789 234.000000 237.000000 155.000000 -0.058561 187.000000 0.053335 203.000000 -0.080003 219.000000 -0.080535 14.000000 0.014953 103.000000 0.056630 108.000000 0.038714
157821.000000 1.137610 232.000000 228.000000 146.000000 -0.043168 179.000000 0.066516 205.000000 -0.062654 213.000000 -0.072656 16.000000 -0.008295 109.000000 0.044752 146.000000 -0.043168
158754.000000 1.090783 231.000000 226.000000 154.000000 -0.070524 178.000000 0.022252 192.000000 -0.054143 210.000000 -0.068377 14.000000 0.025846 100.000000 0.065659 136.000000 -0.035350
159441.000000 0.984053 231.000000 230.000000 140.000000 -0.068230 180.000000 0.056127 204.000000 -0.071977 214.000000 -0.071350 13.000000 0.063272 98.000000 0.063715 101.000000 0.049311
159671.000000 0.980405 230.000000 233.000000 108.000000 0.060058 181.000000 0.036202 192.000000 -0.007700 218.000000 -0.070945 12.000000 0.057145 107.000000 0.064792 108.000000 0.060058
160138.000000 1.096124 234.000000 226.000000 145.000000 -0.042181 177.000000 0.048947 179.000000 0.043290 211.000000 -0.078375 15.000000 -0.009736 98.000000 0.055251 102.000000 0.036049
160364.000000 1.002676 226.000000 227.000000 134.000000 -0.039144 180.000000 0.026594 198.000000 -0.090461 211.000000 -0.085289 17.000000 -0.027480 101.000000 0.057350 135.000000 -0.049300
160591.000000 0.981561 227.000000 232.000000 105.000000 0.027117 181.000000 0.048567 183.000000 0.037753 216.000000 -0.086715 13.000000 0.052816 99.000000 0.056098 105.000000 0.027117
160823.000000 0.938613 232.000000 240.000000 165.000000 -0.037635 189.000000 0.051173 203.000000 -0.031992 227.000000 -0.068154 13.000000 0.049177 107.000000 0.065909 165.000000 -0.037635
161063.000000 1.022332 240.000000 228.000000 157.000000 -0.049422 180.000000 0.053212 188.000000 -0.032963 208.000000 -0.088200 12.000000 0.028023 105.000000 0.054812 124.000000 -0.041787
161291.000000 1.118979 228.000000 231.000000 157.000000 -0.046364 183.000000 0.049795 200.000000 -0.076742 212.000000 -0.096726 13.000000 0.026221 109.000000 0.048841 159.000000 -0.054971
161522.000000 1.029700 231.000000 231.000000 103.000000 0.060237 180.000000 0.044219 181.000000 0.039093 215.000000 -0.071378 15.000000 -0.019659 105.000000 0.065535 181.000000 0.039093
162212.000000 0.988589 228.000000 235.000000 106.000000 0.033308 185.000000 0.066644 211.000000 -0.087728 220.000000 -0.073497 18.000000 -0.030407 108.000000 0.043731 185.000000 0.066644
162447.000000 1.061770 235.000000 239.000000 166.000000 -0.021146 189.000000 0.068463 197.000000 -0.013090 219.000000 -0.089517 17.000000 -0.027775 107.000000 0.051284 116.000000 0.018275
162686.000000 1.016612 239.000000 226.000000 153.000000 -0.052352 176.000000 0.059638 204.000000 -0.068984 210.000000 -0.083796 16.000000 -0.049282 105.000000 0.049939 154.000000 -0.057164
164750.000000 1.105062 226.000000 235.000000 150.000000 -0.068028 185.000000 0.033334 193.000000 0.000121 218.000000 -0.074034 14.000000 0.010063 107.000000 0.066880 150.000000 -0.068028
165451.000000 0.972108 230.000000 232.000000 128.000000 -0.015595 183.000000 0.045060 191.000000 -0.016806 215.000000 -0.078156 14.000000 0.018331 105.000000 0.052132 107.000000 0.032712
166150.000000 1.016625 236.000000 235.000000 156.000000 -0.063098 185.000000 0.061555 187.000000 0.061352 220.000000 -0.047334 14.000000 0.023287 111.000000 0.042054 156.000000 -0.063098
166385.000000 0.944923 235.000000 235.000000 104.000000 0.041553 186.000000 0.037936 205.000000 -0.078712 219.000000 -0.082944 15.000000 -0.002882 107.000000 0.047288 186.000000 0.037936
166620.000000 0.958969 235.000000 230.000000 135.000000 -0.032113 179.000000 0.028032 199.000000 -0.089369 214.000000 -0.098678 15.000000 -0.010122 100.000000 0.063781 123.000000 -0.021282
167080.000000 1.057639 230.000000 231.000000 102.000000 0.027447 181.000000 0.041072 204.000000 -0.073679 217.000000 -0.059824 17.000000 -0.025748 107.000000 0.043074 181.000000 0.041072
167311.000000 1.039455 231.000000 234.000000 156.000000 -0.053605 184.000000 0.042931 202.000000 -0.057478 217.000000 -0.073857 14.000000 -0.010734 103.000000 0.049202 106.000000 0.044249
167545.000000 0.965406 234.000000 237.000000 103.000000 0.029407 184.000000 0.056239 210.000000 -0.087414 218.000000 -0.077587 16.000000 -0.010565 101.000000 0.053998 108.000000 0.025207
168243.000000 1.085422 231.000000 227.000000 158.000000 -0.055028 180.000000 0.039691 203.000000 -0.086328 213.000000 -0.095654 14.000000 0.026315 98.000000 0.058008 103.000000 0.039451
169402.000000 1.110557 228.000000 231.000000 144.000000 -0.061332 181.000000 0.034372 206.000000 -0.095123 213.000000 -0.085639 14.000000 -0.012752 103.000000 0.074670 106.000000 0.055658
169633.000000 1.149834 231.000000 235.000000 161.000000 -0.029322 185.000000 0.055818 209.000000 -0.078066 216.000000 -0.087736 14.000000 -0.003804 110.000000 0.051080 142.000000 -0.059873
169868.000000 1.033079 235.000000 233.000000 143.000000 -0.048085 180.000000 0.029772 181.000000 0.029427 215.000000 -0.083316 14.000000 -0.026939 104.000000 0.051694 131.000000 -0.025592
170101.000000 1.016792 233.000000 237.000000 153.000000 -0.069166 185.000000 0.060352 204.000000 -0.074744 222.000000 -0.075637 18.000000 -0.027973 101.000000 0.063792 111.000000 0.055706
170338.000000 1.011102 237.000000 233.000000 107.000000 0.052554 184.000000 0.039094 186.000000 0.038546 218.000000 -0.093035 14.000000 0.012904 104.000000 0.066615 113.000000 0.044154
170571.000000 1.173156 233.000000 233.000000 104.000000 0.032180 183.000000 0.062387 200.000000 -0.085263 214.000000 -0.100513 16.000000 -0.021187 100.000000 0.051334 104.000000 0.032180
171031.000000 1.053264 227.000000 236.000000 103.000000 0.043686 185.000000 0.034738 205.000000 -0.091659 220.000000 -0.082301 14.000000 0.008123 106.000000 0.058858 185.000000 0.034738
171504.000000 1.026038 237.000000 234.000000 148.000000 -0.056678 183.000000 0.042727 184.000000 0.032413 219.000000 -0.087315 16.000000 -0.011563 103.000000 0.083153 148.000000 -0.056678
171962.000000 1.189987 224.000000 230.000000 148.000000 -0.049492 182.000000 0.061072 189.000000 -0.020731 213.000000 -0.087786 16.000000 -0.011597 99.000000 0.044409 104.000000 0.034581
172652.000000 1.077607 229.000000 235.000000 107.000000 0.061459 184.000000 0.047308 203.000000 -0.081753 213.000000 -0.076877 13.000000 0.029206 106.000000 0.066161 129.000000 -0.024279
173121.000000 1.287153 234.000000 228.000000 104.000000 0.040285 179.000000 0.066010 197.000000 -0.097581 211.000000 -0.088490 15.000000 -0.017426 106.000000 0.045332 179.000000 0.066010
173349.000000 1.171760 228.000000 230.000000 154.000000 -0.054966 180.000000 0.055223 204.000000 -0.087755 216.000000 -0.077094 13.000000 0.046885 106.000000 0.066504 156.000000 -0.057866
173579.000000 1.084832 230.000000 235.000000 105.000000 0.062586 184.000000 0.048118 191.000000 0.000141 217.000000 -0.087770 14.000000 0.011837 104.000000 0.067350 152.000000 -0.052714
173814.000000 1.067907 235.000000 243.000000 111.000000 0.066458 191.000000 0.029266 192.000000 0.028749 228.000000 -0.090777 15.000000 -0.004494 110.000000 0.076160 151.000000 -0.061426
174057.000000 1.204944 243.000000 233.000000 138.000000 -0.064435 181.000000 0.044910 190.000000 0.002275 216.000000 -0.074680 13.000000 0.031195 109.000000 0.054999 142.000000 -0.045281
174523.000000 1.132731 233.000000 231.000000 134.000000 -0.032302 182.000000 0.067733 193.000000 -0.014994 214.000000 -0.081201 14.000000 0.022230 99.000000 0.057367 107.000000 0.048480
174754.000000 1.034066 231.000000 234.000000 151.000000 -0.064448 182.000000 0.062669 191.000000 0.004894 218.000000 -0.100748 12.000000 0.054396 105.000000 0.061394 151.000000 -0.064448
175220.000000 1.263150 232.000000 236.000000 160.000000 -0.039984 186.000000 0.050188 213.000000 -0.091554 218.000000 -0.081962 16.000000 -0.027682 108.000000 0.079641 144.000000 -0.049025
175921.000000 1.133355 227.000000 230.000000 147.000000 -0.080138 181.000000 0.027322 183.000000 0.026820 216.000000 -0.081099 15.000000 -0.010813 105.000000 0.065989 127.000000 -0.026156
176151.000000 1.165471 230.000000 232.000000 139.000000 -0.060423 183.000000 0.036002 201.000000 -0.113356 216.000000 -0.108891 16.000000 -0.003541 105.000000 0.065235 141.000000 -0.055799
176383.000000 1.296062 232.000000 237.000000 147.000000 -0.041221 185.000000 0.032945 186.000000 0.032663 221.000000 -0.095111 16.000000 -0.008295 109.000000 0.061365 159.000000 -0.053715
176620.000000 1.246989 237.000000 231.000000 150.000000 -0.072066 182.000000 0.048889 198.000000 -0.055625 215.000000 -0.101396 13.000000 0.013339 103.000000 0.058966 106.000000 0.044781
176851.000000 1.204074 231.000000 234.000000 160.000000 -0.032901 186.000000 0.061128 209.000000 -0.090564 218.000000 -0.070251 18.000000 -0.055315 109.000000 0.068449 148.000000 -0.043510
177085.000000 1.151426 234.000000 230.000000 135.000000 -0.065293 180.000000 0.052182 189.000000 0.015896 216.000000 -0.067411 13.000000 0.037320 102.000000 0.054954 135.000000 -0.065293
177315.000000 1.105474 230.000000 232.000000 139.000000 -0.054276 181.000000 0.038078 204.000000 -0.109164 216.000000 -0.093176 13.000000 0.032356 103.000000 0.070426 139.000000 -0.054276
177547.000000 1.308517 232.000000 229.000000 104.000000 0.039545 180.000000 0.056399 196.000000 -0.053131 212.000000 -0.099369 14.000000 0.014268 100.000000 0.058464 104.000000 0.039545
177776.000000 1.245914 229.000000 237.000000 160.000000 -0.045264 185.000000 0.039738 186.000000 0.039362 223.000000 -0.097222 16.000000 -0.018538 110.000000 0.063762 162.000000 -0.043257
178013.000000 1.152716 237.000000 240.000000 163.000000 -0.033067 187.000000 0.058625 188.000000 0.058234 223.000000 -0.067317 13.000000 0.037983 103.000000 0.056429 108.000000 0.037652
178485.000000 1.249058 232.000000 233.000000 167.000000 -0.039046 184.000000 0.070690 202.000000 -0.093543 218.000000 -0.065067 18.000000 -0.051773 109.000000 0.058716 145.000000 -0.053681
178718.000000 1.375153 233.000000 231.000000 153.000000 -0.071506 179.000000 0.068227 188.000000 -0.005299 214.000000 -0.078765 16.000000 -0.035317 104.000000 0.052490 140.000000 -0.047773
179185.000000 1.159501 236.000000 235.000000 161.000000 -0.070237 187.000000 0.052381 189.000000 0.036785 221.000000 -0.111157 16.000000 -0.020763 108.000000 0.073321 130.000000 -0.005836
179420.000000 1.112165 235.000000 234.000000 134.000000 -0.039283 183.000000 0.057755 212.000000 -0.103858 220.000000 -0.083779 14.000000 0.005707 111.000000 0.063464 136.000000 -0.039628
179881.000000 1.121213 227.000000 225.000000 132.000000 -0.045141 176.000000 0.054520 178.000000 0.053658 208.000000 -0.089888 15.000000 0.009645 104.000000 0.032459 118.000000 -0.016992
180106.000000 1.052652 225.000000 228.000000 106.000000 0.037261 181.000000 0.032098 195.000000 -0.032653 205.000000 -0.079488 15.000000 0.014907 107.000000 0.047230 185.000000 -0.004359
180334.000000 1.028631 228.000000 231.000000 102.000000 0.056898 182.000000 0.058963 198.000000 -0.055048 215.000000 -0.086367 17.000000 -0.038813 102.000000 0.056898 181.000000 0.054401
180565.000000 0.968867 231.000000 233.000000 144.000000 -0.043996 181.000000 0.069028 207.000000 -0.079421 214.000000 -0.084280 16.000000 -0.045974 107.000000 0.054203 133.000000 -0.017633
180798.000000 1.033275 233.000000 228.000000 106.000000 0.038949 180.000000 0.030299 181.000000 0.020095 211.000000 -0.072711 16.000000 -0.009547 105.000000 0.058542 133.000000 -0.057005
181026.000000 1.078151 228.000000 232.000000 156.000000 -0.077026 182.000000 0.044009 196.000000 -0.030302 214.000000 -0.077137 12.000000 0.013527 105.000000 0.049860 136.000000 -0.055127
181258.000000 1.057894 232.000000 224.000000 150.000000 -0.065883 174.000000 0.052487 201.000000 -0.096933 209.000000 -0.072671 13.000000 0.030904 100.000000 0.066377 152.000000 -0.076087
181482.000000 1.013003 224.000000 234.000000 153.000000 -0.054251 183.000000 0.045463 199.000000 -0.034880 218.000000 -0.106541 15.000000 -0.011949 104.000000 0.066993 140.000000 -0.036742
181716.000000 1.048145 234.000000 238.000000 160.000000 -0.061006 187.000000 0.050498 202.000000 -0.029079 221.000000 -0.091054 14.000000 0.023442 109.000000 0.066615 144.000000 -0.057244
182183.000000 1.321326 229.000000 226.000000 153.000000 -0.083215 179.000000 0.054953 199.000000 -0.120312 209.000000 -0.077002 15.000000 -0.013860 109.000000 0.046674 153.000000 -0.083215
182409.000000 1.257152 226.000000 229.000000 153.000000 -0.070127 181.000000 0.047318 206.000000 -0.105910 214.000000 -0.100551 18.000000 -0.044105 112.000000 0.058493 137.000000 -0.026556
182638.000000 1.165718 229.000000 234.000000 154.000000 -0.077357 186.000000 0.070635 205.000000 -0.102515 217.000000 -0.092297 18.000000 -0.063310 101.000000 0.063901 136.000000 -0.039487
183102.000000 1.247987 230.000000 233.000000 156.000000 -0.088702 181.000000 0.034603 205.000000 -0.105336 216.000000 -0.085494 16.000000 -0.025775 108.000000 0.055190 136.000000 -0.063716
183567.000000 1.229588 232.000000 230.000000 150.000000 -0.082372 180.000000 0.066450 200.000000 -0.103344 215.000000 -0.084348 17.000000 -0.051147 107.000000 0.068260 151.000000 -0.072874
183797.000000 1.146405 230.000000 226.000000 149.000000 -0.078655 178.000000 0.071454 198.000000 -0.116099 212.000000 -0.090096 15.000000 -0.019894 106.000000 0.062728 150.000000 -0.069062
184494.000000 1.347637 237.000000 227.000000 149.000000 -0.082539 177.000000 0.063623 199.000000 -0.112616 212.000000 -0.099530 14.000000 -0.016376 107.000000 0.066335 149.000000 -0.082539
184721.000000 1.269514 227.000000 227.000000 154.000000 -0.052584 179.000000 0.079125 200.000000 -0.098727 211.000000 -0.088571 14.000000 0.013416 107.000000 0.082101 154.000000 -0.052584
184948.000000 1.217839 227.000000 232.000000 156.000000 -0.060746 181.000000 0.050870 203.000000 -0.106090 217.000000 -0.099681 15.000000 -0.005342 105.000000 0.058200 156.000000 -0.060746
185180.000000 1.203015 232.000000 233.000000 151.000000 -0.058838 182.000000 0.052670 199.000000 -0.056782 215.000000 -0.096953 14.000000 -0.000291 103.000000 0.066412 155.000000 -0.077410
185645.000000 1.314485 232.000000 236.000000 170.000000 -0.061416 187.000000 0.031280 207.000000 -0.107119 217.000000 -0.076678 17.000000 -0.052146 106.000000 0.075954 139.000000 -0.054378
186120.000000 1.278732 239.000000 230.000000 153.000000 -0.079045 173.000000 0.050452 187.000000 -0.006335 213.000000 -0.099597 14.000000 0.022901 99.000000 0.084719 154.000000 -0.083465
186350.000000 1.214588 230.000000 231.000000 154.000000 -0.110316 185.000000 0.065151 193.000000 -0.026947 214.000000 -0.108658 16.000000 0.002928 109.000000 0.061332 134.000000 -0.037633
186581.000000 1.222219 231.000000 233.000000 161.000000 -0.089453 182.000000 0.027601 200.000000 -0.077931 216.000000 -0.083528 15.000000 -0.006839 106.000000 0.086507 126.000000 -0.044168
186814.000000 1.168746 233.000000 241.000000 155.000000 -0.084200 188.000000 0.061505 215.000000 -0.108103 219.000000 -0.102711 13.000000 0.035188 108.000000 0.075249 155.000000 -0.084200
187286.000000 1.167863 231.000000 234.000000 156.000000 -0.091290 185.000000 0.066999 212.000000 -0.084708 219.000000 -0.080523 13.000000 0.017519 112.000000 0.078854 142.000000 -0.079221
187520.000000 1.224179 234.000000 228.000000 159.000000 -0.082071 179.000000 0.063946 190.000000 -0.013828 213.000000 -0.085128 14.000000 0.013554 106.000000 0.084734 146.000000 -0.081209
188437.000000 1.332898 233.000000 231.000000 152.000000 -0.082731 182.000000 0.046234 202.000000 -0.121870 212.000000 -0.110050 13.000000 -0.011647 102.000000 0.092587 155.000000 -0.091180
188668.000000 1.270798 231.000000 223.000000 150.000000 -0.054747 175.000000 0.071600 192.000000 -0.049607 205.000000 -0.081972 16.000000 -0.023683 102.000000 0.058385 150.000000 -0.054747
188891.000000 1.172134 223.000000 225.000000 148.000000 -0.079150 177.000000 0.058921 197.000000 -0.103176 208.000000 -0.103191 16.000000 -0.034812 103.000000 0.080595 108.000000 0.051802
189116.000000 1.208184 225.000000 221.000000 151.000000 -0.085705 172.000000 0.037867 187.000000 -0.044829 207.000000 -0.099639 14.000000 -0.002241 96.000000 0.080968 139.000000 -0.076662
189337.000000 1.172084 221.000000 230.000000 155.000000 -0.108212 180.000000 0.038119 195.000000 -0.061051 214.000000 -0.110706 12.000000 0.018102 104.000000 0.081533 155.000000 -0.108212
189567.000000 1.182917 230.000000 229.000000 149.000000 -0.098978 182.000000 0.054795 191.000000 -0.040786 212.000000 -0.119627 13.000000 0.035660 112.000000 0.070806 149.000000 -0.098978
189796.000000 1.243696 229.000000 229.000000 154.000000 -0.084620 179.000000 0.053765 201.000000 -0.126030 210.000000 -0.095216 16.000000 -0.008467 100.000000 0.081284 142.000000 -0.059778
190025.000000 1.338406 229.000000 219.000000 150.000000 -0.089374 171.000000 0.061536 189.000000 -0.118684 203.000000 -0.112464 16.000000 -0.021643 99.000000 0.036664 134.000000 -0.068041
190691.000000 1.149562 225.000000 227.000000 149.000000 -0.086853 175.000000 0.034023 185.000000 -0.028155 211.000000 -0.103643 14.000000 -0.004122 104.000000 0.091695 149.000000 -0.086853
191145.000000 1.185372 227.000000 229.000000 154.000000 -0.043711 180.000000 0.069108 191.000000 -0.006033 211.000000 -0.097490 16.000000 -0.038859 106.000000 0.083358 142.000000 -0.042424
191374.000000 1.147433 229.000000 222.000000 147.000000 -0.086160 174.000000 0.039028 187.000000 -0.050830 204.000000 -0.088289 14.000000 -0.044542 105.000000 0.079951 147.000000 -0.086160
191596.000000 1.261551 222.000000 220.000000 138.000000 -0.052773 173.000000 0.060376 197.000000 -0.098791 201.000000 -0.108775 17.000000 -0.047211 99.000000 0.079749 138.000000 -0.052773
191816.000000 1.305569 220.000000 227.000000 148.000000 -0.062208 176.000000 0.040771 191.000000 -0.041848 211.000000 -0.107382 16.000000 -0.051738 98.000000 0.065126 148.000000 -0.062208
192274.000000 1.130404 231.000000 223.000000 147.000000 -0.083685 176.000000 0.063744 190.000000 -0.043906 207.000000 -0.104204 15.000000 -0.006850 107.000000 0.084234 150.000000 -0.100080
192497.000000 1.082662 223.000000 225.000000 153.000000 -0.084184 179.000000 0.038357 190.000000 -0.042771 204.000000 -0.107851 13.000000 0.019480 100.000000 0.071020 130.000000 -0.058838
192722.000000 1.269156 225.000000 224.000000 157.000000 -0.081094 176.000000 0.055287 203.000000 -0.108746 210.000000 -0.093793 15.000000 -0.024857 104.000000 0.071505 122.000000 -0.045187
192946.000000 1.262069 224.000000 224.000000 150.000000 -0.089906 174.000000 0.044106 201.000000 -0.089859 207.000000 -0.099545 14.000000 -0.009013 98.000000 0.066474 153.000000 -0.066271
193395.000000 1.068717 225.000000 232.000000 157.000000 -0.080694 184.000000 0.068882 197.000000 -0.033107 216.000000 -0.115800 15.000000 -0.023351 103.000000 0.079955 144.000000 -0.069817
194087.000000 1.176712 225.000000 231.000000 161.000000 -0.080623 181.000000 0.045052 207.000000 -0.099384 211.000000 -0.124432 17.000000 -0.039354 108.000000 0.084028 151.000000 -0.077630
194548.000000 1.094671 230.000000 240.000000 154.000000 -0.089367 187.000000 0.055257 194.000000 -0.021843 222.000000 -0.087755 14.000000 0.011553 104.000000 0.078670 149.000000 -0.069257
195020.000000 1.223028 232.000000 234.000000 157.000000 -0.050797 185.000000 0.050178 205.000000 -0.083211 218.000000 -0.073573 14.000000 0.003906 110.000000 0.056381 157.000000 -0.050797
195254.000000 1.107416 234.000000 231.000000 155.000000 -0.065874 179.000000 0.045349 204.000000 -0.099308 213.000000 -0.074465 14.000000 -0.002239 94.000000 0.061568 155.000000 -0.065874
195946.000000 1.041630 229.000000 237.000000 158.000000 -0.049956 185.000000 0.046094 204.000000 -0.054706 221.000000 -0.090412 17.000000 -0.033480 110.000000 0.070109 158.000000 -0.049956
196645.000000 1.179074 228.000000 231.000000 155.000000 -0.045909 181.000000 0.056522 200.000000 -0.082130 214.000000 -0.078418 14.000000 -0.004420 107.000000 0.065739 131.000000 -0.017569
196876.000000 1.021489 231.000000 230.000000 153.000000 -0.050145 179.000000 0.050811 198.000000 -0.065944 212.000000 -0.078093 14.000000 -0.004091 103.000000 0.066206 121.000000 -0.051662
197106.000000 0.970809 230.000000 237.000000 155.000000 -0.056132 186.000000 0.065590 206.000000 -0.090004 222.000000 -0.066211 16.000000 -0.015083 102.000000 0.065407 155.000000 -0.056132
197343.000000 1.014447 237.000000 235.000000 169.000000 -0.055019 186.000000 0.035890 198.000000 -0.046336 218.000000 -0.092247 12.000000 0.055575 107.000000 0.065375 146.000000 -0.069627
197578.000000 1.147722 235.000000 234.000000 153.000000 -0.073060 184.000000 0.047112 191.000000 -0.034659 219.000000 -0.082654 19.000000 -0.051070 99.000000 0.069450 123.000000 -0.027056
197812.000000 1.177957 234.000000 230.000000 157.000000 -0.076860 178.000000 0.061305 186.000000 -0.031909 213.000000 -0.058020 14.000000 -0.002292 104.000000 0.046412 129.000000 -0.036032
198748.000000 1.104328 239.000000 241.000000 159.000000 -0.076190 189.000000 0.058981 219.000000 -0.104139 223.000000 -0.074061 15.000000 -0.011062 106.000000 0.048780 147.000000 -0.074934
199221.000000 0.958890 232.000000 237.000000 168.000000 -0.052188 185.000000 0.055163 213.000000 -0.082235 221.000000 -0.071953 17.000000 -0.018931 104.000000 0.050220 149.000000 -0.043493
199458.000000 0.980946 237.000000 236.000000 158.000000 -0.084638 186.000000 0.050550 215.000000 -0.083130 219.000000 -0.088193 16.000000 -0.021095 104.000000 0.055264 128.000000 -0.044312
199694.000000 1.107546 236.000000 242.000000 152.000000 -0.075813 191.000000 0.045974 204.000000 -0.029651 224.000000 -0.088979 17.000000 -0.045355 108.000000 0.060958 139.000000 -0.051157
200647.000000 1.045184 231.000000 233.000000 154.000000 -0.076790 183.000000 0.023178 196.000000 -0.039425 217.000000 -0.095196 19.000000 -0.034251 104.000000 0.063904 154.000000 -0.076790
200880.000000 1.133708 233.000000 470.000000 171.000000 -1.221381 282.000000 0.167380 358.000000 -0.198972 455.000000 -0.081975 17.000000 0.043678 245.000000 0.730480 358.000000 -0.198972
201350.000000 1.029548 470.000000 241.000000 164.000000 -0.050741 192.000000 0.042642 204.000000 -0.023314 225.000000 -0.081809 15.000000 0.009861 111.000000 0.092631 150.000000 -0.073844
201591.000000 0.985324 241.000000 229.000000 156.000000 -0.058361 180.000000 0.032768 192.000000 -0.018970 213.000000 -0.072890 12.000000 0.072252 108.000000 0.039637 139.000000 -0.074190
201820.000000 1.024226 229.000000 234.000000 155.000000 -0.064357 185.000000 0.020550 192.000000 0.000047 218.000000 -0.087838 14.000000 0.026391 110.000000 0.058056 155.000000 -0.064357
202282.000000 0.957206 228.000000 237.000000 152.000000 -0.052180 186.000000 0.058586 207.000000 -0.096414 219.000000 -0.082073 15.000000 0.006860 102.000000 0.050891 152.000000 -0.052180
202992.000000 1.018662 238.000000 230.000000 155.000000 -0.089472 180.000000 0.021438 208.000000 -0.077104 212.000000 -0.091869 8.000000 -0.050757 98.000000 0.065971 135.000000 -0.052120
203222.000000 1.093364 230.000000 232.000000 155.000000 -0.060647 181.000000 0.061595 202.000000 -0.084374 217.000000 -0.051440 19.000000 -0.052039 100.000000 0.054371 155.000000 -0.060647
203454.000000 1.003263 232.000000 233.000000 150.000000 -0.078980 184.000000 0.031552 206.000000 -0.082364 218.000000 -0.077612 15.000000 -0.011220 106.000000 0.049620 158.000000 -0.062851
203687.000000 0.917950 233.000000 241.000000 167.000000 -0.055250 189.000000 0.026349 215.000000 -0.096676 225.000000 -0.076173 16.000000 -0.010722 103.000000 0.065326 148.000000 -0.044626
203928.000000 0.906084 241.000000 241.000000 156.000000 -0.079359 190.000000 0.023323 205.000000 -0.050235 221.000000 -0.070796 14.000000 0.019169 101.000000 0.060013 156.000000 -0.079359
204169.000000 0.925598 241.000000 237.000000 166.000000 -0.073698 186.000000 0.035643 194.000000 -0.017241 222.000000 -0.075764 17.000000 -0.016787 108.000000 0.045971 147.000000 -0.062698
204406.000000 1.034598 237.000000 234.000000 148.000000 -0.081846 185.000000 0.040364 208.000000 -0.069478 215.000000 -0.075199 13.000000 0.010100 102.000000 0.058951 148.000000 -0.081846
204640.000000 1.004236 234.000000 234.000000 154.000000 -0.047158 183.000000 0.053141 202.000000 -0.088836 218.000000 -0.072190 19.000000 -0.050184 101.000000 0.046648 145.000000 -0.036391
205112.000000 0.937310 238.000000 240.000000 161.000000 -0.058140 190.000000 0.069758 202.000000 -0.012262 221.000000 -0.081369 17.000000 -0.018995 107.000000 0.065577 152.000000 -0.034598
205352.000000 0.955466 240.000000 237.000000 159.000000 -0.080186 188.000000 0.049123 200.000000 -0.012805 220.000000 -0.103791 16.000000 -0.017448 106.000000 0.057493 141.000000 -0.057914
205820.000000 1.023359 231.000000 230.000000 154.000000 -0.052222 180.000000 0.050726 186.000000 -0.010983 212.000000 -0.053708 16.000000 -0.012344 106.000000 0.053117 143.000000 -0.054638
206050.000000 0.916760 230.000000 234.000000 148.000000 -0.069824 187.000000 0.049706 199.000000 -0.027128 220.000000 -0.081766 14.000000 0.017900 105.000000 0.061410 153.000000 -0.050952
206284.000000 0.874548 234.000000 235.000000 159.000000 -0.049337 184.000000 0.038296 207.000000 -0.079414 218.000000 -0.063536 15.000000 0.011068 99.000000 0.058746 143.000000 -0.050030
206519.000000 0.843956 235.000000 237.000000 154.000000 -0.057560 187.000000 0.049243 200.000000 -0.022167 219.000000 -0.090946 14.000000 -0.008667 103.000000 0.073916 154.000000 -0.057560
206756.000000 0.991940 237.000000 231.000000 155.000000 -0.063500 181.000000 0.032503 187.000000 -0.013938 213.000000 -0.081491 18.000000 -0.024658 108.000000 0.064546 156.000000 -0.077121
206987.000000 1.053664 231.000000 233.000000 156.000000 -0.066518 184.000000 0.055628 196.000000 -0.027428 216.000000 -0.084494 13.000000 -0.001211 104.000000 0.048071 132.000000 -0.042571
207450.000000 0.981273 230.000000 238.000000 152.000000 -0.071878 188.000000 0.040740 213.000000 -0.082019 216.000000 -0.067536 13.000000 0.051368 109.000000 0.061460 138.000000 -0.056816
208861.000000 0.953546 236.000000 238.000000 161.000000 -0.033677 187.000000 0.067216 199.000000 -0.015466 221.000000 -0.066312 14.000000 0.001102 103.000000 0.066446 132.000000 -0.055279
209099.000000 0.995036 238.000000 241.000000 153.000000 -0.047976 189.000000 0.065004 209.000000 -0.098602 223.000000 -0.069230 15.000000 -0.002848 104.000000 0.053108 153.000000 -0.047976
209340.000000 1.171556 241.000000 234.000000 169.000000 -0.064211 185.000000 0.046496 197.000000 -0.037219 217.000000 -0.094025 16.000000 -0.030842 104.000000 0.067823 141.000000 -0.047646
209574.000000 1.095802 234.000000 236.000000 159.000000 -0.046585 186.000000 0.042539 211.000000 -0.113828 219.000000 -0.074878 16.000000 -0.013461 107.000000 0.059375 159.000000 -0.046585
209810.000000 1.039401 236.000000 235.000000 150.000000 -0.027225 184.000000 0.061756 195.000000 -0.026064 218.000000 -0.081158 15.000000 -0.011619 102.000000 0.070909 150.000000 -0.027225
210766.000000 1.255486 236.000000 229.000000 149.000000 -0.090502 179.000000 0.056427 180.000000 0.046067 210.000000 -0.104636 14.000000 0.017947 96.000000 0.060908 137.000000 -0.097320
210995.000000 1.174771 229.000000 232.000000 149.000000 -0.068635 183.000000 0.044235 205.000000 -0.090028 216.000000 -0.084667 7.000000 -0.120119 106.000000 0.067039 127.000000 -0.032350
211227.000000 1.051883 232.000000 236.000000 168.000000 -0.069289 186.000000 0.046385 196.000000 -0.016061 222.000000 -0.081514 14.000000 0.028308 104.000000 0.055253 137.000000 -0.057943
211463.000000 1.034504 236.000000 240.000000 154.000000 -0.051111 191.000000 0.057170 211.000000 -0.096873 226.000000 -0.076936 13.000000 0.041226 106.000000 0.067976 154.000000 -0.051111
211703.000000 1.079021 240.000000 239.000000 162.000000 -0.052912 190.000000 0.064534 202.000000 -0.007881 222.000000 -0.092518 14.000000 0.001011 105.000000 0.072997 142.000000 -0.049936
211942.000000 1.249082 239.000000 233.000000 153.000000 -0.062410 184.000000 0.041869 204.000000 -0.092050 216.000000 -0.077502 17.000000 -0.037580 106.000000 0.068764 153.000000 -0.062410
212410.000000 1.104549 235.000000 234.000000 152.000000 -0.066787 184.000000 0.050754 201.000000 -0.053195 218.000000 -0.078601 12.000000 0.080551 105.000000 0.060283 152.000000 -0.066787
213364.000000 1.223171 237.000000 230.000000 151.000000 -0.067097 182.000000 0.057026 207.000000 -0.083819 214.000000 -0.089180 13.000000 0.008360 102.000000 0.057319 151.000000 -0.067097
214064.000000 1.129725 237.000000 238.000000 159.000000 -0.057555 187.000000 0.056551 203.000000 -0.041693 220.000000 -0.081706 16.000000 -0.036845 108.000000 0.061833 152.000000 -0.076773
214302.000000 1.235912 238.000000 239.000000 156.000000 -0.093027 186.000000 0.039135 197.000000 -0.004094 222.000000 -0.100548 16.000000 -0.011176 102.000000 0.062116 149.000000 -0.054876
214541.000000 1.310583 239.000000 231.000000 153.000000 -0.077259 183.000000 0.064091 205.000000 -0.096471 209.000000 -0.066972 19.000000 -0.063319 103.000000 0.044464 153.000000 -0.077259
214772.000000 1.187826 231.000000 236.000000 154.000000 -0.082660 187.000000 0.049597 208.000000 -0.094666 227.000000 -0.153960 16.000000 -0.006989 109.000000 0.065471 135.000000 -0.053445
215008.000000 1.117105 236.000000 229.000000 155.000000 -0.077979 179.000000 0.055424 195.000000 -0.043305 214.000000 -0.083711 12.000000 0.057684 103.000000 0.076534 155.000000 -0.077979
215237.000000 1.057575 229.000000 239.000000 164.000000 -0.045894 187.000000 0.057336 216.000000 -0.110046 218.000000 -0.094874 16.000000 -0.009937 105.000000 0.067728 146.000000 -0.062587
215714.000000 1.158489 238.000000 236.000000 168.000000 -0.033907 186.000000 0.031875 214.000000 -0.076542 222.000000 -0.096119 14.000000 0.000856 106.000000 0.050096 153.000000 -0.065238
215950.000000 1.029634 236.000000 227.000000 150.000000 -0.086292 179.000000 0.056137 192.000000 -0.037153 212.000000 -0.093361 13.000000 0.029150 99.000000 0.060987 150.000000 -0.086292
216177.000000 0.987173 227.000000 232.000000 147.000000 -0.040661 182.000000 0.061688 211.000000 -0.097621 218.000000 -0.078013 14.000000 0.048161 108.000000 0.060282 131.000000 -0.042792
216409.000000 0.992754 232.000000 234.000000 155.000000 -0.057889 186.000000 0.040857 200.000000 -0.031794 219.000000 -0.087469 14.000000 0.003976 107.000000 0.074232 155.000000 -0.057889
216643.000000 1.178316 234.000000 235.000000 158.000000 -0.067229 184.000000 0.046891 196.000000 -0.026948 220.000000 -0.098907 16.000000 -0.015947 100.000000 0.070001 123.000000 -0.035470
216878.000000 1.231249 235.000000 236.000000 154.000000 -0.058539 186.000000 0.050536 199.000000 -0.035343 220.000000 -0.099055 16.000000 -0.023154 106.000000 0.060533 125.000000 -0.043637
217114.000000 1.104488 236.000000 237.000000 162.000000 -0.064654 188.000000 0.047054 215.000000 -0.082960 219.000000 -0.073102 17.000000 -0.020827 110.000000 0.061928 145.000000 -0.053149
217585.000000 1.090943 234.000000 232.000000 160.000000 -0.079450 181.000000 0.056051 207.000000 -0.103242 212.000000 -0.103006 16.000000 -0.020831 102.000000 0.060828 145.000000 -0.085957
218293.000000 1.238217 242.000000 232.000000 149.000000 -0.074405 181.000000 0.083217 193.000000 -0.019448 212.000000 -0.108851 14.000000 0.033829 97.000000 0.052427 137.000000 -0.072400
218525.000000 1.154128 232.000000 231.000000 150.000000 -0.051379 185.000000 0.059672 205.000000 -0.122255 216.000000 -0.081814 17.000000 -0.033301 104.000000 0.081115 134.000000 -0.063715
218756.000000 1.110646 231.000000 231.000000 156.000000 -0.098274 183.000000 0.046581 191.000000 -0.024783 217.000000 -0.094875 16.000000 -0.037020 102.000000 0.088057 134.000000 -0.042132
219222.000000 1.304272 235.000000 232.000000 155.000000 -0.086836 179.000000 0.036802 204.000000 -0.108997 216.000000 -0.108887 15.000000 -0.008768 102.000000 0.059467 155.000000 -0.086836
219925.000000 1.104544 235.000000 239.000000 165.000000 -0.049361 188.000000 0.039650 217.000000 -0.081746 221.000000 -0.100930 16.000000 -0.038041 108.000000 0.073450 154.000000 -0.077432
220394.000000 1.264622 230.000000 236.000000 154.000000 -0.076534 186.000000 0.042527 199.000000 -0.056797 215.000000 -0.083743 14.000000 0.033277 105.000000 0.066882 156.000000 -0.084308
220630.000000 1.271881 236.000000 240.000000 168.000000 -0.063596 189.000000 0.062848 211.000000 -0.104033 222.000000 -0.085493 16.000000 -0.016316 113.000000 0.060674 152.000000 -0.058985
220870.000000 1.198457 240.000000 235.000000 149.000000 -0.047259 184.000000 0.070638 206.000000 -0.113642 219.000000 -0.083109 16.000000 -0.012560 101.000000 0.069970 129.000000 -0.057070
221338.000000 1.131107 233.000000 238.000000 167.000000 -0.080553 186.000000 0.054715 194.000000 -0.007432 222.000000 -0.077010 16.000000 -0.046305 103.000000 0.066710 155.000000 -0.077243
221817.000000 1.342461 241.000000 234.000000 149.000000 -0.075671 183.000000 0.053857 204.000000 -0.117443 217.000000 -0.103636 13.000000 -0.000111 100.000000 0.079765 149.000000 -0.075671
222051.000000 1.305924 234.000000 238.000000 156.000000 -0.052759 189.000000 0.056188 209.000000 -0.123685 224.000000 -0.098717 14.000000 0.016880 109.000000 0.068040 139.000000 -0.056958
222289.000000 1.222240 238.000000 240.000000 164.000000 -0.073418 191.000000 0.059763 213.000000 -0.109563 226.000000 -0.089705 13.000000 0.073776 109.000000 0.082918 153.000000 -0.090296
222766.000000 1.138084 237.000000 233.000000 164.000000 -0.047590 184.000000 0.076847 196.000000 -0.026506 228.000000 0.248320 13.000000 0.028977 101.000000 0.079558 122.000000 -0.046161
222999.000000 1.268570 233.000000 237.000000 159.000000 -0.088717 188.000000 0.031563 197.000000 -0.046351 221.000000 -0.103250 8.000000 -0.095066 109.000000 0.056037 145.000000 -0.059169
223236.000000 1.376279 237.000000 242.000000 166.000000 -0.074847 191.000000 0.036862 205.000000 -0.043028 223.000000 -0.089878 14.000000 0.032330 110.000000 0.047790 142.000000 -0.095694
223478.000000 1.279401 242.000000 234.000000 157.000000 -0.056163 183.000000 0.066281 194.000000 -0.011775 215.000000 -0.091651 14.000000 0.044589 99.000000 0.070000 157.000000 -0.056163
223712.000000 1.195982 234.000000 231.000000 149.000000 -0.077462 185.000000 0.050780 209.000000 -0.098155 215.000000 -0.093108 15.000000 -0.007450 104.000000 0.079185 150.000000 -0.072996
224411.000000 1.357394 236.000000 232.000000 151.000000 -0.062513 181.000000 0.031577 197.000000 -0.052108 216.000000 -0.107250 17.000000 -0.045958 102.000000 0.063998 132.000000 -0.057635
224877.000000 1.131672 234.000000 237.000000 170.000000 -0.078827 188.000000 0.071189 212.000000 -0.077307 217.000000 -0.101978 14.000000 0.024088 106.000000 0.056882 123.000000 -0.023822
225577.000000 1.352220 230.000000 234.000000 148.000000 -0.077430 183.000000 0.061751 207.000000 -0.124704 217.000000 -0.109910 17.000000 -0.030710 102.000000 0.065488 134.000000 -0.059827
226054.000000 1.199389 243.000000 234.000000 149.000000 -0.059656 183.000000 0.050076 200.000000 -0.070457 216.000000 -0.105944 13.000000 0.039356 104.000000 0.071708 149.000000 -0.059656
226518.000000 1.202457 230.000000 227.000000 153.000000 -0.071757 179.000000 0.077348 192.000000 -0.015646 211.000000 -0.101258 15.000000 -0.022652 106.000000 0.068888 139.000000 -0.073781
226978.000000 1.165450 233.000000 228.000000 148.000000 -0.094671 176.000000 0.064889 189.000000 -0.019704 209.000000 -0.096741 16.000000 -0.025001 103.000000 0.068154 148.000000 -0.094671
227440.000000 1.248739 234.000000 233.000000 157.000000 -0.057948 184.000000 0.059135 212.000000 -0.112382 219.000000 -0.083336 14.000000 0.010777 108.000000 0.052740 146.000000 -0.051178
228125.000000 1.145452 224.000000 231.000000 145.000000 -0.054936 181.000000 0.078576 207.000000 -0.094779 213.000000 -0.110578 16.000000 -0.048685 106.000000 0.099656 145.000000 -0.054936
228356.000000 1.174279 231.000000 237.000000 160.000000 -0.046852 188.000000 0.089370 203.000000 -0.015897 220.000000 -0.084955 18.000000 -0.055002 110.000000 0.098620 140.000000 -0.006584
228824.000000 1.254060 231.000000 228.000000 157.000000 -0.075444 179.000000 0.037692 191.000000 0.011738 212.000000 -0.105896 14.000000 -0.024516 108.000000 0.073934 145.000000 -0.070411
229052.000000 1.332443 228.000000 227.000000 144.000000 -0.072082 179.000000 0.060722 187.000000 -0.019686 210.000000 -0.112476 14.000000 0.004810 108.000000 0.075409 144.000000 -0.072082
229279.000000 1.352195 227.000000 230.000000 151.000000 -0.117054 178.000000 0.037898 206.000000 -0.090594 210.000000 -0.114686 13.000000 0.060737 100.000000 0.068792 151.000000 -0.117054
229736.000000 1.376240 227.000000 236.000000 153.000000 -0.088430 187.000000 0.049687 209.000000 -0.131632 218.000000 -0.097558 15.000000 0.015034 111.000000 0.079108 153.000000 -0.088430
229972.000000 1.397082 236.000000 237.000000 154.000000 -0.116194 186.000000 0.050045 193.000000 -0.038967 219.000000 -0.083933 19.000000 -0.057621 107.000000 0.050389 145.000000 -0.072166
230896.000000 1.440315 458.000000 240.000000 167.000000 -0.078116 186.000000 0.052888 197.000000 -0.009823 219.000000 -0.094588 15.000000 0.053902 111.000000 0.117112 150.000000 -0.067851
232056.000000 1.356220 227.000000 228.000000 158.000000 -0.102293 178.000000 0.031250 188.000000 -0.020755 214.000000 -0.090192 16.000000 -0.043106 105.000000 0.070264 144.000000 -0.086007
232284.000000 1.352630 228.000000 234.000000 149.000000 -0.082803 185.000000 0.036458 214.000000 -0.083620 218.000000 -0.102350 14.000000 -0.009313 106.000000 0.055661 149.000000 -0.082803
232757.000000 1.218349 239.000000 229.000000 154.000000 -0.084252 180.000000 0.025920 189.000000 -0.025349 214.000000 -0.103594 14.000000 0.038695 101.000000 0.058777 138.000000 -0.068576
232986.000000 1.284119 229.000000 233.000000 155.000000 -0.084797 184.000000 0.037443 204.000000 -0.105364 214.000000 -0.115191 14.000000 0.047458 102.000000 0.068734 155.000000 -0.084797
233219.000000 1.250812 233.000000 231.000000 159.000000 -0.065019 180.000000 0.040373 209.000000 -0.097870 214.000000 -0.067556 17.000000 -0.052997 105.000000 0.054406 149.000000 -0.074373
233450.000000 1.140737 231.000000 241.000000 149.000000 -0.068546 189.000000 0.040079 209.000000 -0.100062 221.000000 -0.101943 13.000000 0.048561 104.000000 0.076912 154.000000 -0.073201
233691.000000 1.101257 241.000000 236.000000 147.000000 -0.097871 187.000000 0.037834 199.000000 -0.014548 220.000000 -0.089078 15.000000 0.002601 103.000000 0.072177 147.000000 -0.097871
233927.000000 1.208697 236.000000 238.000000 151.000000 -0.079626 189.000000 0.035233 197.000000 -0.031710 219.000000 -0.108494 17.000000 -0.047495 108.000000 0.078134 151.000000 -0.079626
