742.000000 1.370506 393.000000 414.000000 330.000000 -0.045624 360.000000 0.004437 377.000000 -0.085453 398.000000 0.022399 19.000000 -0.050197 98.000000 0.283947 131.000000 -0.110317
1980.000000 1.327363 403.000000 386.000000 315.000000 -0.088009 340.000000 0.001441 349.000000 -0.054734 367.000000 -0.034985 17.000000 -0.050739 95.000000 0.294057 134.000000 -0.133402
2757.000000 1.328326 391.000000 411.000000 326.000000 -0.039276 361.000000 0.029122 373.000000 -0.053103 392.000000 0.005785 16.000000 -0.025026 93.000000 0.276642 144.000000 -0.132451
4400.000000 1.473308 393.000000 400.000000 328.000000 -0.082459 351.000000 -0.009478 373.000000 -0.070370 381.000000 -0.044055 13.000000 0.018340 98.000000 0.279505 144.000000 -0.118094
5200.000000 1.394499 400.000000 414.000000 331.000000 -0.038819 360.000000 0.002875 384.000000 -0.049038 392.000000 -0.019367 15.000000 0.003178 103.000000 0.282657 140.000000 -0.136945
7191.000000 1.335130 392.000000 417.000000 335.000000 -0.081127 362.000000 -0.002803 389.000000 -0.078604 396.000000 -0.028650 15.000000 0.012280 97.000000 0.272957 148.000000 -0.128174
8461.000000 1.336929 419.000000 396.000000 314.000000 -0.056663 351.000000 0.004511 362.000000 -0.083389 374.000000 -0.053970 18.000000 -0.056533 99.000000 0.277542 131.000000 -0.102258
8857.000000 1.358586 396.000000 404.000000 317.000000 -0.067508 357.000000 -0.020941 370.000000 -0.083637 383.000000 -0.047369 20.000000 -0.064080 99.000000 0.286839 137.000000 -0.110416
10109.000000 1.366522 431.000000 792.000000 716.000000 -0.086832 744.000000 0.022604 768.000000 -0.050375 775.000000 -0.001441 15.000000 0.027178 342.000000 0.714936 393.000000 -0.113925
11290.000000 1.383823 389.000000 392.000000 307.000000 -0.056955 337.000000 -0.006220 366.000000 -0.066456 374.000000 -0.016613 16.000000 0.001678 103.000000 0.268126 138.000000 -0.088015
12088.000000 1.410563 406.000000 409.000000 275.000000 -0.091185 355.000000 -0.000360 369.000000 -0.102085 390.000000 -0.032037 15.000000 0.002158 102.000000 0.273939 146.000000 -0.118584
15353.000000 1.548515 403.000000 403.000000 326.000000 -0.043335 353.000000 0.030882 375.000000 -0.055497 379.000000 -0.031688 15.000000 -0.010295 95.000000 0.181350 129.000000 -0.193653
15756.000000 1.427633 403.000000 420.000000 344.000000 -0.069264 371.000000 0.013478 392.000000 -0.076476 400.000000 -0.031193 19.000000 -0.049770 101.000000 0.306912 147.000000 -0.140104
16176.000000 1.469642 420.000000 433.000000 359.000000 -0.052653 382.000000 0.004746 407.000000 -0.063199 415.000000 -0.038229 14.000000 -0.005059 108.000000 0.220183 141.000000 -0.136371
16609.000000 1.468137 433.000000 415.000000 343.000000 -0.079106 370.000000 0.002852 378.000000 -0.092728 394.000000 -0.035360 14.000000 0.018891 106.000000 0.264278 146.000000 -0.112406
19400.000000 1.505585 393.000000 389.000000 310.000000 -0.054670 340.000000 -0.018916 350.000000 -0.084105 368.000000 -0.068258 18.000000 -0.090981 94.000000 0.305536 131.000000 -0.096737
19789.000000 1.463372 389.000000 402.000000 319.000000 -0.083651 352.000000 0.019248 376.000000 -0.057039 383.000000 -0.038451 18.000000 -0.069369 94.000000 0.297876 129.000000 -0.083989
20191.000000 1.478491 402.000000 420.000000 328.000000 -0.034375 365.000000 0.014386 396.000000 -0.059376 402.000000 -0.029030 17.000000 -0.034190 100.000000 0.310371 147.000000 -0.105598
22681.000000 1.251599 424.000000 428.000000 351.000000 -0.064045 376.000000 0.007663 403.000000 -0.080738 409.000000 -0.060769 14.000000 0.001678 106.000000 0.273151 145.000000 -0.124591
23109.000000 1.404656 428.000000 421.000000 346.000000 -0.048872 368.000000 0.012822 394.000000 -0.070438 402.000000 -0.060170 15.000000 0.019972 105.000000 0.260491 146.000000 -0.115732
25181.000000 1.441472 424.000000 411.000000 333.000000 -0.056222 361.000000 -0.009245 375.000000 -0.113461 395.000000 -0.037490 14.000000 0.029716 102.000000 0.266599 139.000000 -0.102683
29245.000000 1.302836 421.000000 431.000000 352.000000 -0.067397 377.000000 0.005095 403.000000 -0.074105 410.000000 -0.053965 15.000000 0.007509 102.000000 0.257657 147.000000 -0.120509
29676.000000 1.277647 431.000000 416.000000 340.000000 -0.087067 366.000000 -0.013963 380.000000 -0.078586 393.000000 -0.079981 16.000000 -0.001103 102.000000 0.275303 142.000000 -0.133315
31326.000000 1.317365 439.000000 427.000000 344.000000 -0.051505 378.000000 0.002413 389.000000 -0.063448 410.000000 -0.016161 15.000000 -0.022351 103.000000 0.296607 150.000000 -0.102142
31753.000000 1.373636 427.000000 396.000000 318.000000 -0.054643 347.000000 0.001895 371.000000 -0.055612 379.000000 -0.009967 13.000000 0.044139 101.000000 0.298122 148.000000 -0.106318
32149.000000 1.371507 396.000000 385.000000 314.000000 -0.076485 335.000000 -0.015513 351.000000 -0.082048 367.000000 -0.031375 14.000000 0.021901 95.000000 0.281610 143.000000 -0.110271
33709.000000 1.342134 401.000000 397.000000 318.000000 -0.050104 347.000000 -0.019242 359.000000 -0.080465 381.000000 -0.014667 16.000000 0.025694 101.000000 0.286078 139.000000 -0.146512
34106.000000 1.337212 397.000000 398.000000 323.000000 -0.057197 351.000000 0.010232 361.000000 -0.055127 379.000000 -0.018041 14.000000 0.008685 100.000000 0.300667 139.000000 -0.116011
36112.000000 1.319151 420.000000 412.000000 341.000000 -0.049824 362.000000 0.021523 384.000000 -0.054965 392.000000 -0.026126 14.000000 0.034229 103.000000 0.276014 140.000000 -0.093374
36524.000000 1.341141 412.000000 386.000000 307.000000 -0.094297 340.000000 0.007490 351.000000 -0.061350 368.000000 -0.028134 14.000000 0.024588 95.000000 0.303596 136.000000 -0.097075
41369.000000 1.415784 390.000000 390.000000 322.000000 -0.094448 343.000000 0.001415 352.000000 -0.091329 372.000000 -0.040732 12.000000 0.045189 98.000000 0.284634 134.000000 -0.115378
42994.000000 1.354078 412.000000 393.000000 325.000000 -0.063868 350.000000 -0.005153 355.000000 -0.045952 374.000000 -0.015640 9.000000 0.065361 98.000000 0.303206 133.000000 -0.100086
44189.000000 1.370346 410.000000 429.000000 325.000000 -0.087135 379.000000 0.026423 392.000000 -0.067307 410.000000 -0.018969 13.000000 0.034653 103.000000 0.308973 146.000000 -0.100929
47489.000000 1.286227 409.000000 402.000000 331.000000 -0.074608 354.000000 -0.007713 379.000000 -0.031285 386.000000 0.013512 13.000000 0.045492 96.000000 0.293492 143.000000 -0.121901
48709.000000 1.389843 414.000000 425.000000 341.000000 -0.068137 376.000000 -0.012070 395.000000 -0.053354 402.000000 -0.044920 25.000000 -0.101352 106.000000 0.263392 146.000000 -0.158019
51578.000000 1.328021 412.000000 391.000000 318.000000 -0.095669 346.000000 -0.002770 362.000000 -0.061468 363.000000 -0.056672 14.000000 0.025183 93.000000 0.278327 137.000000 -0.136344
52771.000000 1.197601 410.000000 438.000000 362.000000 -0.065581 388.000000 -0.011192 412.000000 -0.031569 416.000000 -0.056081 15.000000 0.037974 101.000000 0.289244 149.000000 -0.095817
53635.000000 1.222019 426.000000 408.000000 329.000000 -0.060719 358.000000 0.009280 361.000000 -0.032726 390.000000 -0.029561 18.000000 -0.056259 100.000000 0.288834 138.000000 -0.119392
56124.000000 1.269627 398.000000 394.000000 314.000000 -0.072259 346.000000 0.002900 355.000000 -0.058667 374.000000 -0.029012 14.000000 0.028419 94.000000 0.284390 132.000000 -0.115183
57318.000000 1.313699 409.000000 424.000000 349.000000 -0.064310 371.000000 0.013497 393.000000 -0.070891 401.000000 -0.046957 14.000000 0.018477 102.000000 0.290317 146.000000 -0.135386
57742.000000 1.381461 424.000000 404.000000 329.000000 -0.083292 355.000000 -0.005252 370.000000 -0.105801 385.000000 -0.041789 17.000000 -0.010276 102.000000 0.293913 138.000000 -0.131104
58146.000000 1.362947 404.000000 389.000000 313.000000 -0.071946 342.000000 0.003195 359.000000 -0.054736 366.000000 -0.045174 15.000000 -0.002082 96.000000 0.326029 147.000000 -0.119395
59788.000000 1.404152 433.000000 419.000000 340.000000 -0.063951 367.000000 0.018087 389.000000 -0.058810 398.000000 -0.033607 16.000000 0.001657 104.000000 0.285451 149.000000 -0.123578
62243.000000 1.407821 416.000000 402.000000 315.000000 -0.077256 354.000000 0.013932 370.000000 -0.059846 387.000000 0.020045 13.000000 0.030924 100.000000 0.259120 136.000000 -0.107509
62645.000000 1.406441 402.000000 401.000000 327.000000 -0.083367 354.000000 0.004423 358.000000 -0.037208 383.000000 -0.028431 14.000000 0.032038 101.000000 0.281700 140.000000 -0.126074
63452.000000 1.442105 406.000000 421.000000 339.000000 -0.078433 368.000000 -0.021476 384.000000 -0.126899 403.000000 -0.038466 16.000000 -0.005276 104.000000 0.277832 140.000000 -0.128487
64703.000000 1.461817 404.000000 385.000000 308.000000 -0.083038 337.000000 0.000693 351.000000 -0.073822 363.000000 -0.050858 20.000000 -0.095601 95.000000 0.285430 143.000000 -0.102217
65471.000000 1.475130 383.000000 408.000000 333.000000 -0.103509 353.000000 0.002917 378.000000 -0.066080 387.000000 -0.066801 20.000000 -0.071702 101.000000 0.293383 143.000000 -0.109816
68771.000000 1.439698 416.000000 400.000000 311.000000 -0.061566 353.000000 0.003934 362.000000 -0.073654 382.000000 -0.000426 20.000000 -0.091276 101.000000 0.286982 140.000000 -0.142471
69568.000000 1.580581 397.000000 412.000000 328.000000 -0.143637 355.000000 -0.092918 386.000000 -0.144437 395.000000 -0.080032 14.000000 0.025017 101.000000 0.308273 138.000000 -0.077576
69980.000000 1.394495 412.000000 421.000000 319.000000 -0.041210 362.000000 0.013432 371.000000 -0.009091 400.000000 -0.028371 14.000000 -0.008294 103.000000 0.344471 151.000000 -0.095877
72013.000000 1.366400 397.000000 418.000000 338.000000 -0.066359 369.000000 -0.003238 390.000000 -0.091561 398.000000 -0.052078 14.000000 0.016040 105.000000 0.304306 143.000000 -0.125883
72431.000000 1.343843 418.000000 431.000000 352.000000 -0.050609 376.000000 0.013970 404.000000 -0.096908 413.000000 -0.043116 15.000000 0.021301 107.000000 0.297998 147.000000 -0.127057
74508.000000 1.374358 437.000000 435.000000 352.000000 -0.030591 387.000000 0.007638 399.000000 -0.087174 419.000000 -0.017237 14.000000 0.045328 105.000000 0.313302 147.000000 -0.113859
74943.000000 1.516379 435.000000 422.000000 341.000000 -0.061126 372.000000 0.019395 389.000000 -0.089853 403.000000 -0.026655 13.000000 0.065342 102.000000 0.280865 151.000000 -0.117167
75365.000000 1.337167 422.000000 404.000000 330.000000 -0.065312 359.000000 -0.009106 376.000000 -0.052804 385.000000 -0.043305 15.000000 -0.003022 102.000000 0.287329 146.000000 -0.136197
76605.000000 1.283985 427.000000 420.000000 345.000000 -0.084543 366.000000 0.003921 394.000000 -0.075970 394.000000 -0.075970 14.000000 0.029660 103.000000 0.274881 145.000000 -0.108865
77025.000000 1.323827 420.000000 420.000000 336.000000 -0.061364 372.000000 -0.002744 383.000000 -0.103449 405.000000 0.040471 17.000000 -0.027036 108.000000 0.248072 147.000000 -0.119449
77445.000000 1.355801 420.000000 390.000000 310.000000 -0.092135 342.000000 -0.008605 354.000000 -0.085753 373.000000 -0.020705 13.000000 0.079861 102.000000 0.270205 134.000000 -0.110441
79864.000000 1.377244 400.000000 384.000000 301.000000 -0.054496 335.000000 -0.011329 347.000000 -0.068053 362.000000 -0.082662 13.000000 0.033139 95.000000 0.272906 125.000000 -0.081809
84285.000000 1.381556 396.000000 391.000000 320.000000 -0.088072 342.000000 -0.000645 363.000000 -0.065646 368.000000 -0.057464 13.000000 0.076667 96.000000 0.283325 139.000000 -0.079032
85931.000000 1.387587 424.000000 407.000000 330.000000 -0.054341 363.000000 0.005127 383.000000 -0.046612 390.000000 -0.026629 14.000000 0.037713 100.000000 0.251791 141.000000 -0.118289
88750.000000 1.294863 773.000000 382.000000 306.000000 -0.072083 329.000000 -0.001143 355.000000 -0.071159 363.000000 -0.041207 20.000000 -0.107221 99.000000 0.283711 133.000000 -0.090998
94808.000000 1.386002 409.000000 397.000000 320.000000 -0.052272 348.000000 0.002773 372.000000 -0.033496 379.000000 -0.012836 20.000000 -0.069675 97.000000 0.281218 142.000000 -0.115196
96801.000000 1.404421 401.000000 380.000000 296.000000 -0.079573 329.000000 -0.008648 349.000000 -0.080200 359.000000 -0.038352 13.000000 0.029110 96.000000 0.266297 129.000000 -0.104610
97558.000000 1.470225 377.000000 389.000000 309.000000 -0.063450 335.000000 -0.001865 361.000000 -0.089060 370.000000 -0.029373 17.000000 -0.028441 95.000000 0.284710 130.000000 -0.088910
102010.000000 1.260913 398.000000 412.000000 333.000000 -0.050622 358.000000 0.014143 370.000000 -0.037597 394.000000 0.011182 13.000000 0.055238 95.000000 0.291106 139.000000 -0.108610
102422.000000 1.244491 412.000000 437.000000 347.000000 -0.070440 384.000000 -0.010172 395.000000 -0.090126 421.000000 0.033953 16.000000 -0.021873 103.000000 0.271400 138.000000 -0.085358
104911.000000 1.360204 419.000000 423.000000 346.000000 -0.061645 373.000000 0.007980 398.000000 -0.048981 405.000000 -0.023590 20.000000 -0.052866 104.000000 0.300118 141.000000 -0.095474
105736.000000 1.383494 402.000000 399.000000 316.000000 -0.077229 346.000000 0.016597 373.000000 -0.060314 379.000000 -0.031975 13.000000 0.037239 95.000000 0.315447 144.000000 -0.108263
107382.000000 1.416394 433.000000 419.000000 343.000000 -0.071973 369.000000 -0.000689 386.000000 -0.067225 399.000000 -0.029342 14.000000 0.037321 104.000000 0.289522 146.000000 -0.116029
108194.000000 1.303854 393.000000 394.000000 317.000000 -0.059563 348.000000 0.003962 356.000000 -0.085381 373.000000 -0.027324 13.000000 0.026831 97.000000 0.322938 142.000000 -0.116998
109826.000000 1.317868 405.000000 380.000000 306.000000 -0.067367 331.000000 0.002381 355.000000 -0.052354 355.000000 -0.052354 12.000000 0.048025 101.000000 0.290838 134.000000 -0.102832
111003.000000 1.304610 412.000000 421.000000 342.000000 -0.059594 366.000000 -0.019954 381.000000 -0.095549 403.000000 -0.050892 12.000000 -0.015123 102.000000 0.289505 147.000000 -0.109301
111424.000000 1.364376 421.000000 407.000000 327.000000 -0.038888 358.000000 0.006410 381.000000 -0.059735 389.000000 -0.035957 17.000000 -0.030763 100.000000 0.304902 138.000000 -0.150273
112637.000000 1.322098 401.000000 412.000000 338.000000 -0.066504 363.000000 -0.008619 382.000000 -0.094201 390.000000 -0.088244 21.000000 -0.062936 98.000000 0.294803 136.000000 -0.113629
115993.000000 1.410801 432.000000 414.000000 337.000000 -0.051031 361.000000 -0.003240 387.000000 -0.092549 396.000000 -0.038583 9.000000 0.130456 103.000000 0.318005 141.000000 -0.135603
118896.000000 1.424358 408.000000 410.000000 332.000000 -0.017965 355.000000 0.024950 370.000000 -0.086586 392.000000 -0.023452 13.000000 0.051257 97.000000 0.353435 144.000000 -0.169893
120163.000000 1.294074 432.000000 844.000000 760.000000 -0.022931 792.000000 0.032384 815.000000 -0.027913 834.000000 0.335051 20.000000 -0.079453 360.000000 0.681207 411.000000 -0.119400
121406.000000 1.377493 399.000000 414.000000 321.000000 -0.059510 358.000000 0.004534 386.000000 -0.097631 394.000000 -0.052332 13.000000 0.015174 100.000000 0.241042 135.000000 -0.103660
123086.000000 1.262621 406.000000 394.000000 193.000000 -0.066648 263.000000 -0.016552 273.000000 -0.039515 376.000000 -0.081632 13.000000 0.022309 95.000000 0.284839 138.000000 -0.106877
123480.000000 1.335988 394.000000 416.000000 322.000000 -0.049071 360.000000 0.013263 377.000000 -0.072020 398.000000 -0.022114 13.000000 0.000786 96.000000 0.264862 142.000000 -0.126774
124746.000000 1.235252 418.000000 410.000000 327.000000 -0.066395 359.000000 0.009466 383.000000 -0.048419 391.000000 -0.021585 14.000000 0.029639 102.000000 0.272118 148.000000 -0.113213
127992.000000 1.228384 391.000000 415.000000 327.000000 -0.071190 359.000000 0.009201 383.000000 -0.059216 393.000000 -0.051113 11.000000 0.037774 95.000000 0.306787 142.000000 -0.111915
129258.000000 1.321097 423.000000 395.000000 317.000000 -0.059217 348.000000 0.002584 364.000000 -0.069125 375.000000 -0.053998 15.000000 -0.039294 101.000000 0.259086 146.000000 -0.114898
130035.000000 1.311585 382.000000 405.000000 316.000000 -0.049470 351.000000 0.013696 366.000000 -0.111445 385.000000 -0.046069 16.000000 -0.045391 98.000000 0.262366 133.000000 -0.109158
130440.000000 1.268870 405.000000 424.000000 337.000000 -0.087948 371.000000 -0.007901 392.000000 -0.102793 400.000000 -0.068451 15.000000 0.004169 107.000000 0.279975 141.000000 -0.151110
131273.000000 1.239031 409.000000 401.000000 311.000000 -0.046082 348.000000 0.011522 361.000000 -0.053525 381.000000 -0.058712 15.000000 0.006791 103.000000 0.306580 148.000000 -0.103752
133751.000000 1.322695 422.000000 403.000000 306.000000 -0.066740 354.000000 0.021207 367.000000 -0.072900 386.000000 -0.023619 18.000000 -0.040062 97.000000 0.314147 140.000000 -0.101322
134974.000000 1.339590 420.000000 429.000000 340.000000 -0.065516 379.000000 0.023149 399.000000 -0.070253 408.000000 -0.039642 14.000000 0.046142 104.000000 0.286184 141.000000 -0.101857
135403.000000 1.248795 429.000000 418.000000 328.000000 -0.057614 365.000000 0.002401 384.000000 -0.079276 392.000000 -0.088821 18.000000 -0.003382 101.000000 0.280496 145.000000 -0.148656
137412.000000 1.486080 410.000000 402.000000 318.000000 -0.056192 354.000000 -0.006851 366.000000 -0.082008 384.000000 -0.017353 15.000000 -0.015110 101.000000 0.297544 146.000000 -0.105916
138196.000000 1.455940 382.000000 385.000000 305.000000 -0.080295 332.000000 -0.006783 347.000000 -0.092944 366.000000 -0.039540 13.000000 0.014998 97.000000 0.298801 130.000000 -0.153755
138984.000000 1.312665 403.000000 436.000000 357.000000 -0.082258 382.000000 0.003603 398.000000 -0.078356 415.000000 -0.033937 16.000000 0.003370 101.000000 0.300939 143.000000 -0.105345
143557.000000 1.278244 408.000000 431.000000 231.000000 -0.046074 262.000000 -0.011323 280.000000 -0.062011 415.000000 -0.013199 17.000000 -0.002340 106.000000 0.276042 145.000000 -0.135571
144401.000000 1.326569 413.000000 397.000000 338.000000 -0.063148 354.000000 0.009579 369.000000 -0.070533 376.000000 -0.055393 19.000000 -0.054466 95.000000 0.299089 131.000000 -0.082795
145068.000000 1.270445 270.000000 421.000000 347.000000 -0.031208 365.000000 0.005814 392.000000 -0.104296 401.000000 -0.050392 20.000000 -0.119100 89.000000 0.288920 127.000000 -0.089967
148097.000000 1.361708 432.000000 431.000000 351.000000 -0.062982 378.000000 0.008069 403.000000 -0.034282 411.000000 -0.039783 15.000000 0.008369 101.000000 0.251957 149.000000 -0.090266
150083.000000 1.274435 379.000000 399.000000 317.000000 -0.060752 342.000000 0.000001 355.000000 -0.057992 380.000000 -0.025219 19.000000 -0.038090 102.000000 0.247497 151.000000 -0.108654
150887.000000 1.402082 405.000000 396.000000 312.000000 -0.049831 348.000000 -0.000221 357.000000 -0.087493 373.000000 -0.053402 15.000000 0.028130 102.000000 0.281474 147.000000 -0.110798
155008.000000 1.267167 424.000000 409.000000 248.000000 -0.077069 271.000000 -0.041518 280.000000 -0.075937 388.000000 -0.088194 13.000000 0.030709 104.000000 0.287476 137.000000 -0.086165
157424.000000 1.236613 403.000000 382.000000 312.000000 -0.113036 332.000000 -0.023727 358.000000 -0.074493 364.000000 -0.055293 17.000000 -0.040395 99.000000 0.306010 138.000000 -0.135684
158588.000000 1.275972 400.000000 424.000000 329.000000 -0.087221 368.000000 -0.018129 400.000000 -0.072269 412.000000 0.090145 17.000000 -0.030596 105.000000 0.332879 150.000000 -0.103841
159012.000000 1.437402 424.000000 418.000000 332.000000 -0.094589 365.000000 -0.016912 380.000000 -0.106223 397.000000 -0.093025 17.000000 -0.030198 106.000000 0.285971 137.000000 -0.095416
159430.000000 1.396114 418.000000 397.000000 322.000000 -0.106082 349.000000 -0.012367 354.000000 -0.032853 376.000000 -0.091397 17.000000 -0.044749 102.000000 0.315024 135.000000 -0.110257
159827.000000 1.514465 397.000000 396.000000 313.000000 -0.073853 342.000000 -0.004636 366.000000 -0.080247 373.000000 -0.057787 14.000000 -0.014706 96.000000 0.274921 131.000000 -0.107399
161884.000000 1.329557 406.000000 395.000000 321.000000 -0.075327 343.000000 -0.004871 358.000000 -0.098509 377.000000 -0.051896 15.000000 0.000794 97.000000 0.289227 114.000000 0.016768
162279.000000 1.355296 395.000000 399.000000 301.000000 -0.078272 349.000000 -0.008804 372.000000 -0.081860 377.000000 -0.091719 14.000000 0.047787 98.000000 0.277384 135.000000 -0.099280
164318.000000 1.410579 390.000000 390.000000 316.000000 -0.066757 339.000000 0.004920 354.000000 -0.085282 371.000000 -0.044606 19.000000 -0.051114 92.000000 0.339103 134.000000 -0.112341
165976.000000 1.283625 426.000000 401.000000 310.000000 -0.093538 355.000000 -0.000421 365.000000 -0.082757 383.000000 -0.065703 13.000000 0.012936 97.000000 0.288478 135.000000 -0.097454
166377.000000 1.350912 401.000000 398.000000 321.000000 -0.060018 350.000000 0.006361 361.000000 -0.075175 380.000000 -0.029894 14.000000 0.028829 93.000000 0.283805 130.000000 -0.093796
166775.000000 1.356643 398.000000 424.000000 338.000000 -0.069735 372.000000 0.002899 397.000000 -0.057931 404.000000 -0.062805 15.000000 0.014293 101.000000 0.291709 132.000000 -0.071989
168045.000000 1.260788 413.000000 396.000000 316.000000 -0.051348 344.000000 0.007822 359.000000 -0.092021 377.000000 -0.056863 15.000000 0.009662 104.000000 0.285331 141.000000 -0.099045
169224.000000 1.241879 395.000000 409.000000 285.000000 -0.058109 305.000000 -0.021916 316.000000 -0.057306 391.000000 -0.017711 14.000000 0.013244 101.000000 0.286829 151.000000 -0.112968
169633.000000 1.401740 409.000000 406.000000 343.000000 -0.125845 382.000000 -0.049781 382.000000 -0.049781 389.000000 0.006880 13.000000 0.071611 101.000000 0.377208 148.000000 -0.148480
170814.000000 1.537167 775.000000 371.000000 294.000000 -0.059890 323.000000 0.004372 344.000000 -0.083574 352.000000 -0.027994 14.000000 0.026228 95.000000 0.282104 132.000000 -0.118500
171185.000000 1.501804 371.000000 384.000000 293.000000 -0.242133 330.000000 -0.094532 343.000000 -0.135661 364.000000 -0.118576 13.000000 0.067572 91.000000 0.287789 127.000000 -0.067571
171569.000000 1.535029 384.000000 389.000000 238.000000 -0.035864 264.000000 0.028024 305.000000 -0.023086 365.000000 -0.058618 15.000000 -0.085173 102.000000 0.170081 134.000000 -0.161422
173470.000000 1.301912 380.000000 410.000000 227.000000 -0.022449 247.000000 -0.029816 257.000000 -0.104156 388.000000 -0.092741 15.000000 -0.061488 103.000000 0.326104 150.000000 -0.041501
174282.000000 1.360688 402.000000 402.000000 326.000000 -0.086376 353.000000 -0.008869 371.000000 -0.076159 376.000000 -0.067036 24.000000 -0.106807 102.000000 0.253196 147.000000 -0.133538
175064.000000 1.298105 380.000000 387.000000 306.000000 -0.048341 339.000000 0.018102 357.000000 -0.048480 365.000000 -0.047319 14.000000 0.038575 98.000000 0.285616 137.000000 -0.136442
176257.000000 1.198056 409.000000 414.000000 337.000000 -0.073263 364.000000 0.000671 377.000000 -0.077244 393.000000 -0.029674 16.000000 -0.005847 100.000000 0.273023 138.000000 -0.111935
179514.000000 1.350687 394.000000 396.000000 315.000000 -0.089606 347.000000 0.004988 368.000000 -0.096531 374.000000 -0.076611 13.000000 0.046029 95.000000 0.296525 138.000000 -0.113372
181932.000000 1.429340 389.000000 409.000000 293.000000 -0.048512 359.000000 0.035237 373.000000 -0.055469 391.000000 -0.008777 15.000000 -0.011992 95.000000 0.299211 139.000000 -0.121850
182341.000000 1.469466 409.000000 412.000000 332.000000 -0.063855 358.000000 0.004387 389.000000 -0.055458 390.000000 -0.070207 14.000000 0.022255 100.000000 0.262540 145.000000 -0.151079
183569.000000 1.399640 405.000000 393.000000 316.000000 -0.050580 341.000000 0.006754 357.000000 -0.087509 376.000000 -0.035096 14.000000 0.009233 96.000000 0.283837 126.000000 -0.115053
185202.000000 1.412882 423.000000 419.000000 340.000000 -0.038022 370.000000 0.001022 395.000000 -0.059812 398.000000 -0.059828 14.000000 0.013680 101.000000 0.268627 140.000000 -0.128770
189676.000000 1.387069 404.000000 400.000000 248.000000 -0.101252 283.000000 -0.021597 294.000000 -0.056254 380.000000 -0.084779 14.000000 0.063540 98.000000 0.249567 130.000000 -0.122030
190849.000000 1.347131 389.000000 414.000000 341.000000 -0.054701 364.000000 -0.000722 388.000000 -0.059812 397.000000 -0.040863 15.000000 0.025597 101.000000 0.283537 142.000000 -0.086319
196507.000000 1.263326 399.000000 399.000000 327.000000 -0.036031 353.000000 0.029188 369.000000 -0.040968 379.000000 -0.035185 14.000000 -0.007424 94.000000 0.264072 142.000000 -0.114080
197712.000000 1.312554 408.000000 417.000000 342.000000 -0.056146 366.000000 -0.000471 391.000000 -0.077777 396.000000 -0.032997 21.000000 -0.060647 101.000000 0.272813 147.000000 -0.110775
198129.000000 1.256876 417.000000 405.000000 322.000000 -0.097635 356.000000 -0.022130 366.000000 -0.092460 388.000000 -0.018209 18.000000 -0.079300 99.000000 0.260491 144.000000 -0.115841
198926.000000 1.341506 392.000000 387.000000 320.000000 -0.237196 363.000000 -0.120611 360.000000 -0.167006 367.000000 -0.124404 14.000000 0.047445 93.000000 0.319763 116.000000 0.011708
201216.000000 1.633540 357.000000 363.000000 286.000000 -0.064355 312.000000 -0.013133 336.000000 -0.066597 343.000000 -0.058352 13.000000 0.038851 95.000000 0.298864 130.000000 -0.126178
202345.000000 1.685434 385.000000 369.000000 292.000000 -0.124794 317.000000 -0.026771 328.000000 -0.086817 352.000000 -0.040329 19.000000 -0.088250 101.000000 0.295472 146.000000 -0.142240
202714.000000 1.682634 369.000000 351.000000 286.000000 -0.091913 302.000000 -0.013151 317.000000 -0.119781 333.000000 -0.082681 14.000000 0.039590 96.000000 0.367878 133.000000 -0.149552
203065.000000 1.629312 351.000000 364.000000 263.000000 -0.074432 316.000000 -0.031361 336.000000 -0.127051 345.000000 -0.081487 16.000000 -0.025203 95.000000 0.348279 127.000000 -0.132408
209742.000000 1.453354 359.000000 370.000000 261.000000 -0.126976 285.000000 0.095407 294.000000 -0.049577 358.000000 0.181977 15.000000 -0.014232 101.000000 0.300594 118.000000 0.041346
210859.000000 1.573558 373.000000 366.000000 292.000000 -0.069231 317.000000 0.039765 336.000000 -0.072007 346.000000 -0.019891 16.000000 -0.044125 102.000000 0.260637 137.000000 -0.150947
212238.000000 1.480127 331.000000 346.000000 264.000000 -0.074577 295.000000 0.066597 306.000000 -0.021648 331.000000 0.100451 14.000000 0.051083 96.000000 0.318245 127.000000 -0.092997
212931.000000 1.443668 347.000000 350.000000 270.000000 -0.122523 302.000000 -0.027538 311.000000 -0.111537 331.000000 -0.084261 16.000000 -0.081019 100.000000 0.308823 140.000000 -0.089495
214938.000000 1.485643 345.000000 357.000000 275.000000 -0.071316 306.000000 0.017569 317.000000 -0.069407 338.000000 -0.029375 14.000000 -0.020298 97.000000 0.292535 137.000000 -0.150709
216978.000000 1.366554 345.000000 337.000000 219.000000 -0.114684 277.000000 0.031366 298.000000 -0.103368 319.000000 -0.049060 15.000000 -0.064512 102.000000 0.218927 139.000000 -0.120810
221564.000000 1.309985 339.000000 343.000000 240.000000 -0.044312 280.000000 0.086237 304.000000 -0.108858 328.000000 0.158528 13.000000 -0.038904 102.000000 0.215390 140.000000 -0.166084
222234.000000 1.364827 327.000000 637.000000 546.000000 -0.017600 577.000000 0.080158 605.000000 -0.077552 619.000000 -0.029416 17.000000 -0.029593 324.000000 0.776980 382.000000 -0.141311
223550.000000 1.294403 338.000000 344.000000 256.000000 -0.020051 281.000000 0.097992 299.000000 -0.014437 323.000000 -0.035564 20.000000 -0.157713 101.000000 0.211455 149.000000 -0.079655
224883.000000 1.319831 650.000000 339.000000 243.000000 -0.161662 280.000000 0.014154 282.000000 -0.007194 316.000000 -0.013855 14.000000 -0.047301 100.000000 0.198776 139.000000 -0.109675
225559.000000 1.387774 337.000000 349.000000 257.000000 -0.072272 282.000000 0.081994 318.000000 -0.095436 325.000000 -0.095733 15.000000 -0.026540 103.000000 0.275956 139.000000 -0.105623
226929.000000 1.419186 672.000000 325.000000 239.000000 -0.094332 268.000000 0.077551 286.000000 -0.071319 304.000000 -0.066694 18.000000 -0.094670 95.000000 0.237231 126.000000 -0.134025
227254.000000 1.367807 325.000000 331.000000 242.000000 -0.080549 267.000000 0.106505 294.000000 -0.053511 311.000000 -0.053715 19.000000 -0.129667 93.000000 0.297819 132.000000 -0.080618
228277.000000 1.287710 350.000000 678.000000 597.000000 -0.010249 618.000000 0.166193 651.000000 -0.052005 657.000000 -0.048494 16.000000 -0.106333 365.000000 0.804614 413.000000 -0.145888
233864.000000 1.424027 309.000000 326.000000 233.000000 -0.130830 264.000000 0.059640 295.000000 -0.090565 307.000000 -0.040736 17.000000 -0.088057 97.000000 0.250280 128.000000 -0.131115
234190.000000 1.232133 326.000000 336.000000 240.000000 -0.129703 274.000000 0.039184 308.000000 -0.129594 318.000000 -0.099204 15.000000 -0.033807 100.000000 0.293382 137.000000 -0.075385
235211.000000 1.175423 345.000000 322.000000 237.000000 -0.076972 266.000000 0.042493 286.000000 -0.084607 304.000000 -0.071755 13.000000 -0.024153 98.000000 0.246809 131.000000 -0.091199
236181.000000 1.150247 326.000000 351.000000 238.000000 -0.099298 287.000000 0.145563 309.000000 -0.091537 330.000000 -0.056963 15.000000 -0.035805 100.000000 0.224694 134.000000 -0.115334
240178.000000 1.009297 310.000000 313.000000 228.000000 -0.086226 256.000000 0.084041 276.000000 -0.093167 295.000000 -0.069483 13.000000 -0.041158 94.000000 0.185070 128.000000 -0.024932
243400.000000 1.266494 341.000000 328.000000 230.000000 -0.137727 268.000000 0.059532 296.000000 -0.109796 306.000000 -0.097806 14.000000 -0.044352 100.000000 0.216314 135.000000 -0.041574
244657.000000 1.146724 617.000000 333.000000 237.000000 -0.053883 271.000000 0.096570 297.000000 -0.076893 300.000000 -0.077568 18.000000 -0.084594 104.000000 0.105738 139.000000 -0.092145
244990.000000 0.995672 333.000000 341.000000 251.000000 -0.078209 280.000000 0.073671 300.000000 -0.081267 321.000000 -0.055500 7.000000 0.215169 106.000000 0.143092 136.000000 -0.028568
246297.000000 1.123421 317.000000 318.000000 241.000000 -0.064751 263.000000 0.066894 276.000000 -0.046397 300.000000 -0.045342 16.000000 -0.054070 95.000000 0.160773 131.000000 -0.083744
246615.000000 1.038029 318.000000 324.000000 238.000000 -0.074373 263.000000 0.060390 287.000000 -0.075302 306.000000 -0.036353 14.000000 -0.032770 95.000000 0.201922 120.000000 -0.043189
258249.000000 1.395657 403.000000 407.000000 303.000000 -0.084480 335.000000 0.022228 363.000000 -0.125466 388.000000 -0.081392 17.000000 -0.030346 103.000000 0.224566 139.000000 -0.123382
259039.000000 1.409503 383.000000 379.000000 287.000000 -0.079923 320.000000 0.005094 343.000000 -0.121286 360.000000 -0.095063 19.000000 -0.108724 87.000000 0.251836 125.000000 -0.107213
260984.000000 1.302104 395.000000 382.000000 295.000000 -0.050780 319.000000 0.040693 346.000000 -0.118537 366.000000 -0.026486 16.000000 -0.058365 97.000000 0.262328 137.000000 -0.147563
267329.000000 1.259842 374.000000 383.000000 277.000000 -0.081850 312.000000 0.030769 348.000000 -0.168024 362.000000 -0.151488 19.000000 -0.103464 99.000000 0.298547 135.000000 -0.128366
267880.000000 0.878824 168.000000 435.000000 328.000000 0.017415 379.000000 0.074218 401.000000 -0.122209 412.000000 -0.114623 11.000000 0.552132 101.000000 0.362084 154.000000 -0.117211
268865.000000 1.041931 176.000000 466.000000 217.000000 -0.076449 280.000000 0.076335 327.000000 -0.043259 442.000000 -0.098072 15.000000 -0.112192 95.000000 0.178030 126.000000 -0.087661
270305.000000 1.214109 427.000000 362.000000 256.000000 -0.094813 299.000000 0.078415 319.000000 -0.095595 342.000000 -0.023011 20.000000 -0.174682 96.000000 0.189454 123.000000 -0.127052
274139.000000 1.253073 170.000000 454.000000 344.000000 -0.036520 381.000000 0.077634 390.000000 0.036365 428.000000 -0.107240 21.000000 -0.182569 89.000000 0.224832 121.000000 -0.099228
276017.000000 1.379676 1039.000000 388.000000 287.000000 -0.077599 324.000000 0.040566 335.000000 -0.015374 365.000000 -0.043320 17.000000 -0.046248 101.000000 0.244460 139.000000 -0.092114
278406.000000 1.209959 173.000000 448.000000 357.000000 -0.031382 388.000000 0.047539 411.000000 -0.075768 429.000000 -0.056348 15.000000 -0.133160 93.000000 0.249294 121.000000 -0.079848
278854.000000 1.520956 448.000000 394.000000 305.000000 -0.067995 324.000000 0.031959 362.000000 -0.144183 377.000000 -0.032302 15.000000 -0.089233 100.000000 0.227344 125.000000 -0.081606
287837.000000 1.392300 384.000000 402.000000 306.000000 -0.069072 335.000000 0.036349 369.000000 -0.112428 377.000000 -0.086331 16.000000 -0.043910 94.000000 0.326746 132.000000 -0.110669
290254.000000 1.266191 179.000000 490.000000 374.000000 -0.069231 425.000000 0.032351 454.000000 -0.108464 467.000000 -0.072524 16.000000 -0.150376 95.000000 0.256050 139.000000 -0.114170
292686.000000 1.343934 403.000000 402.000000 318.000000 -0.035707 334.000000 0.094889 347.000000 0.034200 381.000000 0.002302 19.000000 -0.131222 104.000000 0.020417 133.000000 -0.257607
293478.000000 1.430303 390.000000 376.000000 190.000000 -0.273009 232.000000 -0.051490 295.000000 -1.082351 358.000000 -0.026944 14.000000 0.109454 82.000000 0.261884 94.000000 0.067322
296184.000000 1.457708 377.000000 378.000000 276.000000 -0.099142 315.000000 0.054340 338.000000 -0.102884 360.000000 -0.047647 21.000000 -0.036913 93.000000 0.380906 133.000000 -0.082121
296562.000000 1.390615 378.000000 391.000000 243.000000 -0.082198 262.000000 -0.030694 269.000000 -0.085617 370.000000 -0.143511 16.000000 -0.045623 94.000000 0.324173 135.000000 -0.062243
296953.000000 1.256100 391.000000 395.000000 307.000000 -0.073763 333.000000 0.041988 361.000000 -0.081003 368.000000 -0.072414 17.000000 -0.154308 99.000000 0.367467 141.000000 -0.077062
301203.000000 1.477565 390.000000 416.000000 327.000000 -0.053041 350.000000 0.066255 373.000000 -0.105111 394.000000 -0.122901 16.000000 -0.080507 108.000000 0.295979 142.000000 -0.123047
302570.000000 1.178604 173.000000 449.000000 297.000000 -0.088024 385.000000 0.083153 409.000000 -0.059432 434.000000 0.081556 22.000000 -0.219061 92.000000 0.249353 124.000000 -0.067670
304209.000000 1.468654 395.000000 380.000000 298.000000 -0.063946 319.000000 0.084940 355.000000 -0.019917 364.000000 -0.000888 14.000000 -0.031721 97.000000 0.255195 133.000000 -0.095703
304589.000000 1.617357 380.000000 370.000000 285.000000 -0.101110 309.000000 0.039957 329.000000 -0.094151 350.000000 -0.113901 14.000000 -0.019101 95.000000 0.285801 127.000000 -0.139871
308093.000000 1.644339 405.000000 391.000000 301.000000 -0.067962 328.000000 0.045879 350.000000 -0.141958 371.000000 -0.076786 16.000000 -0.068355 102.000000 0.270436 146.000000 -0.099200
308484.000000 1.410814 391.000000 369.000000 220.000000 -0.080035 308.000000 0.058888 341.000000 -0.064077 349.000000 -0.076303 17.000000 -0.099297 94.000000 0.264691 137.000000 -0.097909
312381.000000 1.400957 412.000000 412.000000 263.000000 -0.065050 295.000000 0.025594 307.000000 -0.046976 386.000000 -0.107522 15.000000 -0.013463 103.000000 0.229980 143.000000 -0.146810
314782.000000 1.284797 414.000000 397.000000 304.000000 -0.078229 336.000000 0.041502 373.000000 -0.065174 379.000000 -0.049892 15.000000 -0.062351 101.000000 0.305564 147.000000 -0.070485
317550.000000 1.086994 392.000000 371.000000 285.000000 -0.044967 311.000000 0.031129 333.000000 -0.081067 351.000000 -0.065345 12.000000 -0.059541 100.000000 0.288793 131.000000 -0.086463
317921.000000 1.324642 371.000000 388.000000 282.000000 -0.069309 323.000000 0.049326 359.000000 -0.068980 367.000000 -0.058917 18.000000 -0.065106 95.000000 0.283300 137.000000 -0.078456
321079.000000 1.281411 414.000000 397.000000 298.000000 -0.072287 333.000000 0.077929 358.000000 -0.068827 378.000000 -0.061350 14.000000 -0.017005 99.000000 0.259755 142.000000 -0.108808
325013.000000 1.395239 395.000000 422.000000 323.000000 -0.044203 353.000000 0.040892 374.000000 -0.081209 406.000000 -0.029187 12.000000 0.006886 101.000000 0.288382 143.000000 -0.098188
327008.000000 1.419015 395.000000 412.000000 327.000000 -0.037834 349.000000 0.043685 380.000000 -0.059762 392.000000 -0.055170 13.000000 -0.009653 98.000000 0.249392 142.000000 -0.148912
327839.000000 1.274356 419.000000 396.000000 312.000000 -0.073854 335.000000 0.053560 349.000000 -0.071675 377.000000 -0.035796 14.000000 -0.029892 100.000000 0.306949 140.000000 -0.107687
329016.000000 1.288227 399.000000 411.000000 312.000000 -0.061563 346.000000 0.056664 364.000000 -0.117004 395.000000 -0.028225 12.000000 0.001847 99.000000 0.276713 133.000000 -0.122358
335722.000000 1.348558 404.000000 408.000000 312.000000 -0.023574 343.000000 0.065833 366.000000 -0.057898 386.000000 -0.091815 17.000000 -0.068796 96.000000 0.245315 142.000000 -0.143678
337288.000000 1.418900 372.000000 390.000000 286.000000 -0.075828 324.000000 0.072196 347.000000 -0.116080 372.000000 -0.032081 17.000000 -0.076258 96.000000 0.276869 141.000000 -0.099726
338076.000000 1.419047 398.000000 403.000000 295.000000 -0.076346 340.000000 0.069062 360.000000 -0.098337 385.000000 -0.065891 20.000000 -0.100199 100.000000 0.275960 141.000000 -0.129400
340032.000000 1.301614 392.000000 412.000000 308.000000 -0.066195 340.000000 0.025373 372.000000 -0.093041 391.000000 -0.079719 15.000000 -0.007102 106.000000 0.274422 149.000000 -0.096392
353023.000000 1.553763 377.000000 400.000000 307.000000 -0.113965 334.000000 0.065566 359.000000 -0.108104 381.000000 -0.049511 15.000000 -0.082555 101.000000 0.279064 129.000000 -0.075822
353818.000000 1.549678 395.000000 390.000000 299.000000 -0.077741 325.000000 0.086570 350.000000 -0.090532 370.000000 -0.108557 16.000000 -0.070322 97.000000 0.320337 132.000000 -0.100028
355364.000000 1.336049 410.000000 399.000000 296.000000 -0.062600 332.000000 0.093839 366.000000 -0.115313 375.000000 -0.093761 15.000000 -0.067791 106.000000 0.366393 148.000000 -0.104425
355763.000000 1.463702 399.000000 389.000000 267.000000 -0.061673 325.000000 0.092730 341.000000 -0.054371 369.000000 -0.015879 17.000000 -0.072097 102.000000 0.336215 148.000000 -0.107281
356887.000000 1.716336 363.000000 373.000000 281.000000 -0.123680 305.000000 0.027821 337.000000 -0.158638 348.000000 -0.142948 14.000000 -0.034636 94.000000 0.367023 121.000000 -0.034043
357260.000000 1.636537 373.000000 393.000000 283.000000 -0.126319 315.000000 0.120452 329.000000 -0.004204 373.000000 -0.102085 17.000000 -0.076237 104.000000 0.303607 146.000000 -0.120000
358027.000000 1.864925 374.000000 365.000000 243.000000 -0.154764 298.000000 0.009014 321.000000 -0.097412 345.000000 -0.064780 15.000000 -0.027268 100.000000 0.297315 138.000000 -0.150476
360285.000000 1.804294 387.000000 394.000000 301.000000 -0.095176 326.000000 -0.033453 334.000000 -0.070178 374.000000 -0.093077 16.000000 -0.052195 98.000000 0.335124 132.000000 -0.150127
360679.000000 1.820906 394.000000 379.000000 291.000000 -0.051568 310.000000 0.008604 320.000000 -0.041631 357.000000 -0.089559 18.000000 -0.090695 93.000000 0.357545 150.000000 -0.157656
361865.000000 1.689734 424.000000 416.000000 302.000000 -0.103086 343.000000 -0.000766 353.000000 -0.017287 393.000000 -0.097162 21.000000 -0.145234 109.000000 0.304471 135.000000 -0.118366
362670.000000 1.726801 389.000000 395.000000 299.000000 -0.059657 334.000000 0.019669 368.000000 -0.102715 375.000000 -0.053827 15.000000 -0.035083 96.000000 0.326656 148.000000 -0.147521
363065.000000 1.802004 395.000000 391.000000 292.000000 -0.096253 318.000000 0.016975 350.000000 -0.110408 371.000000 -0.053699 18.000000 -0.057072 95.000000 0.329032 139.000000 -0.128877
364294.000000 1.809452 418.000000 415.000000 322.000000 -0.115534 355.000000 -0.004202 384.000000 -0.089407 392.000000 -0.070191 16.000000 -0.037853 103.000000 0.324169 145.000000 -0.117704
367542.000000 1.742732 382.000000 396.000000 300.000000 -0.084085 323.000000 0.016322 353.000000 -0.122737 379.000000 -0.035841 18.000000 -0.079320 95.000000 0.299541 142.000000 -0.127010
370386.000000 1.753234 417.000000 418.000000 323.000000 -0.092620 352.000000 0.021124 390.000000 -0.098122 398.000000 -0.086727 18.000000 -0.067736 107.000000 0.308976 146.000000 -0.140541
371219.000000 1.841316 415.000000 403.000000 312.000000 -0.072194 337.000000 0.004813 367.000000 -0.110548 387.000000 -0.057712 15.000000 -0.029079 100.000000 0.290892 145.000000 -0.139976
371622.000000 1.955580 403.000000 395.000000 296.000000 -0.092762 328.000000 0.006971 337.000000 -0.021337 378.000000 -0.050364 14.000000 -0.016693 96.000000 0.298802 139.000000 -0.132497
372017.000000 1.888132 395.000000 408.000000 318.000000 -0.047244 342.000000 0.040266 362.000000 -0.098261 388.000000 -0.074187 17.000000 -0.063716 96.000000 0.296003 130.000000 -0.132304
372843.000000 1.928070 418.000000 422.000000 332.000000 -0.051913 356.000000 0.048430 381.000000 -0.105458 400.000000 -0.082700 17.000000 -0.076335 104.000000 0.268189 139.000000 -0.123927
375321.000000 1.907588 427.000000 419.000000 323.000000 -0.091939 355.000000 0.050037 388.000000 -0.095949 397.000000 -0.066451 17.000000 -0.075187 99.000000 0.292256 135.000000 -0.140563
376531.000000 1.822113 402.000000 424.000000 318.000000 -0.092808 357.000000 0.018256 392.000000 -0.120894 403.000000 -0.105847 17.000000 -0.102934 100.000000 0.318824 133.000000 -0.113914
376955.000000 1.986331 424.000000 441.000000 335.000000 -0.102180 371.000000 0.006612 401.000000 -0.106709 423.000000 -0.063713 15.000000 -0.047212 107.000000 0.285962 142.000000 -0.145184
377814.000000 1.961647 418.000000 401.000000 298.000000 -0.066113 329.000000 0.013444 371.000000 -0.092776 381.000000 -0.048214 17.000000 -0.082318 94.000000 0.270529 135.000000 -0.134192
378215.000000 1.906753 401.000000 419.000000 323.000000 -0.052677 347.000000 0.027150 372.000000 -0.089465 402.000000 -0.065954 16.000000 -0.038216 95.000000 0.299300 144.000000 -0.117875
378634.000000 1.996054 419.000000 427.000000 334.000000 -0.083243 354.000000 0.022114 363.000000 -0.045802 408.000000 -0.069689 13.000000 -0.001329 101.000000 0.289532 144.000000 -0.096430
379061.000000 1.876077 427.000000 432.000000 328.000000 -0.085641 364.000000 0.023274 387.000000 -0.114704 411.000000 -0.088795 19.000000 -0.092748 101.000000 0.302359 139.000000 -0.116135
379493.000000 1.843466 432.000000 418.000000 324.000000 -0.079468 347.000000 0.033480 373.000000 -0.102476 397.000000 -0.082428 19.000000 -0.118914 102.000000 0.271763 147.000000 -0.134651
380319.000000 1.776563 408.000000 406.000000 304.000000 -0.074512 343.000000 0.047418 376.000000 -0.116816 382.000000 -0.110921 14.000000 -0.007072 98.000000 0.303883 139.000000 -0.091950
380725.000000 1.822181 406.000000 417.000000 305.000000 -0.118762 346.000000 0.018825 375.000000 -0.090846 397.000000 -0.060408 20.000000 -0.115108 99.000000 0.255396 132.000000 -0.126140
382811.000000 1.741072 399.000000 410.000000 296.000000 -0.100659 346.000000 0.007461 366.000000 -0.114058 390.000000 -0.075767 15.000000 -0.032048 95.000000 0.283797 131.000000 -0.095225
383221.000000 1.755643 410.000000 440.000000 335.000000 -0.099959 363.000000 0.013821 411.000000 -0.111115 419.000000 -0.082682 18.000000 -0.103496 104.000000 0.263381 137.000000 -0.128799
384502.000000 1.831801 405.000000 408.000000 310.000000 -0.074270 336.000000 0.001923 362.000000 -0.120099 388.000000 -0.070506 16.000000 -0.048184 95.000000 0.300043 128.000000 -0.127261
384910.000000 1.728664 408.000000 429.000000 330.000000 -0.064374 359.000000 0.032943 386.000000 -0.125616 408.000000 -0.061650 15.000000 -0.022230 101.000000 0.307282 145.000000 -0.125605
386628.000000 1.704228 413.000000 415.000000 323.000000 -0.072581 345.000000 0.004815 366.000000 -0.103116 396.000000 -0.080340 14.000000 -0.003782 99.000000 0.300036 133.000000 -0.125371
387461.000000 1.770592 418.000000 438.000000 337.000000 -0.096084 364.000000 0.011772 393.000000 -0.105956 420.000000 -0.065359 19.000000 -0.096838 105.000000 0.269490 146.000000 -0.125384
387899.000000 1.711867 438.000000 440.000000 329.000000 -0.079530 364.000000 0.029730 381.000000 -0.022433 417.000000 -0.079956 16.000000 -0.020326 105.000000 0.292003 146.000000 -0.106322
388757.000000 1.717991 418.000000 394.000000 308.000000 -0.068496 332.000000 0.023261 369.000000 -0.044951 374.000000 -0.059590 17.000000 -0.064720 99.000000 0.309762 133.000000 -0.103531
389151.000000 1.815833 394.000000 408.000000 314.000000 -0.094527 341.000000 0.033153 364.000000 -0.113070 389.000000 -0.041033 16.000000 -0.029497 96.000000 0.257230 138.000000 -0.108378
390826.000000 1.705187 411.000000 391.000000 292.000000 -0.079525 328.000000 0.025506 349.000000 -0.126720 374.000000 -0.046062 19.000000 -0.107635 100.000000 0.291965 141.000000 -0.095146
392491.000000 1.761777 433.000000 423.000000 323.000000 -0.083901 355.000000 0.031915 381.000000 -0.111125 403.000000 -0.051660 15.000000 -0.016782 102.000000 0.287271 136.000000 -0.127092
392914.000000 1.839673 423.000000 404.000000 309.000000 -0.098183 340.000000 0.011050 373.000000 -0.108713 382.000000 -0.073915 17.000000 -0.043666 99.000000 0.284945 136.000000 -0.102326
393318.000000 1.821559 404.000000 415.000000 302.000000 -0.091063 348.000000 0.010724 367.000000 -0.130263 393.000000 -0.085953 21.000000 -0.118989 97.000000 0.313922 143.000000 -0.129431
394579.000000 1.882883 427.000000 437.000000 325.000000 -0.080155 366.000000 0.042946 396.000000 -0.107260 427.000000 0.382348 18.000000 -0.053465 103.000000 0.327974 147.000000 -0.139472
395826.000000 1.879185 403.000000 424.000000 293.000000 -0.130218 355.000000 0.025516 360.000000 -0.010440 404.000000 -0.067853 12.000000 0.001205 97.000000 0.316569 132.000000 -0.102741
396250.000000 1.898526 424.000000 423.000000 311.000000 -0.103260 351.000000 0.022053 375.000000 -0.087166 402.000000 -0.103186 18.000000 -0.080876 99.000000 0.283147 147.000000 -0.109115
397519.000000 1.860752 409.000000 399.000000 292.000000 -0.118844 332.000000 0.006896 369.000000 -0.128496 379.000000 -0.093653 15.000000 -0.046694 96.000000 0.345776 130.000000 -0.118957
399219.000000 1.874528 420.000000 410.000000 315.000000 -0.085000 346.000000 0.006770 366.000000 -0.119092 393.000000 -0.066521 20.000000 -0.118154 100.000000 0.317700 146.000000 -0.118880
400027.000000 1.922590 398.000000 427.000000 336.000000 -0.065311 360.000000 0.038998 385.000000 -0.118370 410.000000 -0.056097 14.000000 -0.043321 96.000000 0.278158 132.000000 -0.104772
400888.000000 1.986226 434.000000 429.000000 328.000000 -0.080496 357.000000 0.036369 382.000000 -0.105950 406.000000 -0.081013 14.000000 -0.015169 104.000000 0.285827 134.000000 -0.123262
401737.000000 2.009093 420.000000 402.000000 314.000000 -0.081993 337.000000 0.022947 357.000000 -0.118871 381.000000 -0.084170 16.000000 -0.061110 96.000000 0.311311 141.000000 -0.126903
402979.000000 1.899439 428.000000 437.000000 303.000000 -0.116208 367.000000 0.031616 404.000000 -0.109859 418.000000 -0.082429 17.000000 -0.069120 108.000000 0.303067 148.000000 -0.142324
404938.000000 1.827163 523.000000 201.000000 63.000000 -0.154970 121.000000 -0.005706 147.000000 -0.182035 179.000000 -0.095092 16.000000 -0.013152 110.000000 0.300423 147.000000 -0.182035
405286.000000 0.909250 147.000000 378.000000 227.000000 -0.158261 309.000000 0.036852 328.000000 -0.069918 356.000000 -0.085499 26.000000 -0.404354 93.000000 0.333412 139.000000 -0.070727
405848.000000 1.583788 184.000000 486.000000 387.000000 -0.095453 419.000000 0.014642 442.000000 -0.096784 464.000000 -0.086861 13.000000 -0.034707 89.000000 0.133814 129.000000 -0.097282
406521.000000 0.981884 187.000000 500.000000 282.000000 -0.022788 310.000000 0.003494 360.000000 -0.106507 479.000000 -0.087693 17.000000 -0.417002 89.000000 0.450272 128.000000 -0.103086
407925.000000 0.867918 196.000000 143.000000 50.000000 -0.107535 94.000000 0.394954 102.000000 0.273967 109.000000 0.103512 18.000000 -0.551440 83.000000 0.267603 126.000000 -0.097303
408068.000000 0.988591 143.000000 353.000000 243.000000 -0.113103 287.000000 0.039966 312.000000 -0.097055 334.000000 -0.075283 18.000000 -0.415107 89.000000 0.339775 132.000000 -0.050589
408421.000000 1.896049 353.000000 182.000000 40.000000 -0.252351 110.000000 0.039918 130.000000 -0.159595 161.000000 -0.040741 15.000000 -0.072117 96.000000 0.214683 130.000000 -0.159595
409291.000000 0.872790 198.000000 146.000000 23.000000 -0.489091 96.000000 0.402240 105.000000 0.267663 117.000000 0.006456 24.000000 -0.463950 86.000000 0.269779 128.000000 -0.098825
409437.000000 1.050880 146.000000 384.000000 270.000000 -0.090643 312.000000 0.032824 351.000000 -0.095184 361.000000 -0.112771 25.000000 -0.422787 94.000000 0.297589 127.000000 -0.090733
410159.000000 1.780329 148.000000 362.000000 274.000000 -0.070628 296.000000 0.053226 321.000000 -0.099453 342.000000 -0.075315 14.000000 0.032929 91.000000 0.016937 116.000000 -0.045206
411192.000000 1.781661 494.000000 200.000000 47.000000 -0.245268 121.000000 0.051566 146.000000 -0.186755 186.000000 0.003794 13.000000 0.028824 103.000000 0.245108 146.000000 -0.186755
411392.000000 0.933463 200.000000 152.000000 23.000000 -0.509670 95.000000 0.412931 113.000000 0.105127 127.000000 -0.101204 25.000000 -0.504325 90.000000 0.356380 131.000000 -0.110388
411544.000000 1.117371 152.000000 162.000000 45.000000 -0.222050 98.000000 0.204733 116.000000 -0.086772 143.000000 -0.088513 20.000000 -0.569369 93.000000 0.246472 116.000000 -0.086772
411706.000000 1.749497 162.000000 176.000000 108.000000 -0.132824 154.000000 -0.076678 147.000000 -0.132071 154.000000 -0.076678 16.000000 -0.097039 99.000000 -0.046211 113.000000 -0.121538
412518.000000 1.947366 195.000000 183.000000 116.000000 -0.146112 162.000000 -0.041947 160.000000 -0.084298 167.000000 -0.005678 12.000000 0.033292 92.000000 -0.023149 116.000000 -0.146112
412701.000000 1.748349 183.000000 174.000000 71.000000 -0.139488 106.000000 -0.098842 109.000000 -0.134562 157.000000 -0.094045 12.000000 0.017424 93.000000 -0.066788 109.000000 -0.134562
413255.000000 1.661018 216.000000 216.000000 171.000000 -0.090093 195.000000 -0.054560 191.000000 -0.073604 198.000000 -0.030046 16.000000 -0.078011 104.000000 -0.071082 128.000000 -0.141114
413654.000000 1.702679 183.000000 159.000000 64.000000 -0.238295 96.000000 -0.025475 106.000000 -0.076040 141.000000 -0.116010 15.000000 0.008558 94.000000 -0.020161 106.000000 -0.076040
414075.000000 1.713603 262.000000 246.000000 191.000000 -0.103929 220.000000 -0.037927 224.000000 -0.054417 225.000000 -0.044715 23.000000 -0.075502 100.000000 -0.012287 117.000000 -0.098132
414321.000000 1.615580 246.000000 201.000000 130.000000 -0.114291 179.000000 -0.038804 173.000000 -0.090528 180.000000 -0.043805 18.000000 -0.015896 99.000000 0.000331 130.000000 -0.114291
414877.000000 1.653874 170.000000 208.000000 143.000000 -0.128711 186.000000 -0.020720 188.000000 -0.046550 189.000000 -0.046989 16.000000 -0.059169 84.000000 -0.040553 113.000000 -0.194811
415631.000000 1.900700 224.000000 203.000000 150.000000 -0.108982 176.000000 -0.021274 184.000000 -0.025929 188.000000 0.033804 14.000000 0.026968 20.000000 -0.097860 34.000000 -0.162642
415834.000000 1.788616 203.000000 230.000000 150.000000 -0.189700 196.000000 -0.013227 211.000000 -0.006644 212.000000 0.017823 13.000000 0.157158 20.000000 0.010511 45.000000 -0.156934
417155.000000 1.711253 461.000000 423.000000 308.000000 -0.078824 355.000000 0.052084 375.000000 -0.055000 405.000000 0.002368 14.000000 0.045124 98.000000 0.095412 128.000000 -0.060668
417578.000000 1.857024 423.000000 186.000000 113.000000 -0.102590 165.000000 -0.064955 159.000000 -0.132025 166.000000 -0.062181 19.000000 -0.093509 95.000000 0.082537 129.000000 -0.194423
418540.000000 1.752508 187.000000 155.000000 54.000000 -0.216285 93.000000 0.019653 113.000000 -0.156180 137.000000 -0.069380 15.000000 -0.083230 87.000000 0.035859 113.000000 -0.156180
419080.000000 1.801720 385.000000 175.000000 46.000000 -0.227368 105.000000 0.010993 124.000000 -0.180514 156.000000 -0.148602 15.000000 -0.055206 89.000000 0.197699 124.000000 -0.180514
419787.000000 1.845926 386.000000 187.000000 55.000000 -0.257039 113.000000 -0.028201 129.000000 -0.183828 168.000000 -0.049186 16.000000 -0.051490 95.000000 0.194746 129.000000 -0.183828
419974.000000 1.749044 187.000000 170.000000 50.000000 -0.264921 102.000000 -0.024876 118.000000 -0.161508 153.000000 -0.058401 15.000000 -0.024011 93.000000 0.028604 118.000000 -0.161508
420144.000000 1.920063 170.000000 396.000000 287.000000 -0.067853 320.000000 0.025755 338.000000 -0.059527 376.000000 -0.070329 14.000000 0.023606 181.000000 0.017709 199.000000 -0.000113
420720.000000 1.788732 180.000000 517.000000 402.000000 -0.071727 451.000000 0.029042 475.000000 -0.075957 497.000000 -0.069767 14.000000 -0.037977 90.000000 0.145344 125.000000 -0.088986
421237.000000 1.822697 517.000000 182.000000 47.000000 -0.198602 110.000000 -0.020295 136.000000 -0.209338 164.000000 -0.083460 20.000000 -0.140470 94.000000 0.178640 136.000000 -0.209338
421419.000000 1.282103 182.000000 508.000000 402.000000 -0.072518 441.000000 0.029815 468.000000 -0.090610 489.000000 -0.042290 17.000000 -0.326739 83.000000 0.341613 116.000000 -0.081396
421927.000000 1.874353 508.000000 176.000000 74.000000 -0.072164 107.000000 -0.022521 133.000000 -0.193084 148.000000 -0.181625 15.000000 -0.058735 90.000000 0.126302 133.000000 -0.193084
424143.000000 1.781603 195.000000 193.000000 130.000000 -0.093246 166.000000 -0.062039 171.000000 -0.068529 174.000000 -0.073874 13.000000 -0.070733 87.000000 -0.064823 103.000000 -0.209747
425263.000000 1.892354 186.000000 224.000000 178.000000 -0.132208 198.000000 0.011852 202.000000 -0.003132 206.000000 0.006539 13.000000 -0.035467 83.000000 -0.043148 102.000000 -0.210265
426006.000000 1.822785 206.000000 239.000000 175.000000 -0.175645 218.000000 0.028572 221.000000 0.053901 224.000000 0.099230 13.000000 -0.057559 67.000000 0.032883 95.000000 -0.187993
426608.000000 1.813981 183.000000 211.000000 112.000000 -0.254281 172.000000 0.008945 190.000000 -0.049802 195.000000 -0.053030 14.000000 -0.047381 89.000000 -0.054749 113.000000 -0.254015
427161.000000 1.908665 168.000000 177.000000 136.000000 -0.030571 155.000000 0.010558 157.000000 -0.005178 161.000000 0.032830 18.000000 -0.159233 87.000000 -0.158845 104.000000 -0.270868
427338.000000 1.897411 177.000000 170.000000 100.000000 -0.254251 149.000000 -0.016384 145.000000 -0.018187 152.000000 -0.007231 14.000000 -0.104123 84.000000 -0.090535 101.000000 -0.244298
427508.000000 1.769809 170.000000 170.000000 83.000000 -0.100805 149.000000 0.002378 144.000000 -0.034191 151.000000 -0.015568 16.000000 -0.140441 82.000000 -0.100710 100.000000 -0.211165
428389.000000 1.744014 318.000000 195.000000 57.000000 -0.223384 119.000000 -0.057038 129.000000 -0.116503 179.000000 -0.020421 15.000000 0.059657 95.000000 0.020722 129.000000 -0.116503
428808.000000 1.883903 224.000000 210.000000 116.000000 -0.249936 169.000000 0.037683 176.000000 -0.011501 191.000000 -0.037441 17.000000 -0.118591 90.000000 -0.011586 116.000000 -0.249936
429195.000000 1.747117 177.000000 179.000000 114.000000 -0.243852 158.000000 -0.021327 150.000000 -0.073257 157.000000 -0.031375 16.000000 -0.109310 88.000000 -0.110701 114.000000 -0.243852
429543.000000 1.681175 169.000000 177.000000 113.000000 -0.236083 154.000000 0.001646 151.000000 -0.045251 158.000000 0.022366 16.000000 -0.107741 87.000000 -0.001554 116.000000 -0.225770
430077.000000 1.840267 185.000000 172.000000 126.000000 -0.075357 147.000000 0.003968 150.000000 -0.024668 155.000000 0.026068 16.000000 -0.163024 88.000000 -0.079464 103.000000 -0.260452
430593.000000 1.766413 172.000000 172.000000 109.000000 -0.242192 148.000000 -0.004826 143.000000 -0.036942 150.000000 -0.022866 16.000000 -0.154480 87.000000 -0.078115 109.000000 -0.242192
432259.000000 1.825406 171.000000 237.000000 157.000000 -0.140381 185.000000 0.027346 200.000000 -0.021964 219.000000 -0.000567 14.000000 0.012411 125.000000 -0.027321 157.000000 -0.140381
432496.000000 1.693354 237.000000 224.000000 144.000000 -0.121707 201.000000 0.062681 196.000000 0.042227 203.000000 0.047586 17.000000 -0.132459 116.000000 -0.054935 125.000000 -0.101974
432918.000000 1.720340 198.000000 252.000000 212.000000 -0.017507 229.000000 0.035204 231.000000 0.014201 234.000000 0.057867 15.000000 -0.075789 138.000000 -0.025220 151.000000 -0.042556
434378.000000 1.701115 165.000000 164.000000 90.000000 -0.178904 137.000000 -0.016272 141.000000 -0.032447 146.000000 -0.028496 15.000000 -0.098291 34.000000 -0.115127 59.000000 -0.195331
434701.000000 1.714830 159.000000 221.000000 104.000000 -0.218071 162.000000 0.003135 183.000000 -0.114999 204.000000 0.036645 14.000000 -0.099261 131.000000 -0.032068 154.000000 -0.033793
434922.000000 2.063935 221.000000 221.000000 148.000000 -0.168904 186.000000 0.100454 200.000000 0.071332 204.000000 0.114185 14.000000 0.107461 20.000000 -0.025690 34.000000 -0.146004
435143.000000 1.908840 221.000000 173.000000 109.000000 -0.245143 152.000000 0.026177 147.000000 -0.024906 154.000000 0.011694 16.000000 -0.132978 90.000000 -0.149812 109.000000 -0.245143
435316.000000 1.652900 173.000000 176.000000 108.000000 -0.210974 152.000000 0.055720 153.000000 0.052710 159.000000 0.103996 18.000000 -0.203605 87.000000 -0.073954 108.000000 -0.210974
436026.000000 1.844042 186.000000 167.000000 73.000000 -0.408793 139.000000 0.031365 147.000000 -0.002803 149.000000 0.013028 15.000000 -0.061004 97.000000 -0.092805 139.000000 0.031365
436193.000000 1.650346 167.000000 164.000000 106.000000 -0.075910 140.000000 -0.026899 146.000000 -0.022102 147.000000 -0.022072 13.000000 0.038920 20.000000 -0.068587 28.000000 -0.160578
438219.000000 1.605284 180.000000 170.000000 122.000000 -0.007524 147.000000 0.020158 143.000000 -0.010171 150.000000 -0.013620 17.000000 -0.116454 100.000000 -0.112976 122.000000 -0.007524
439593.000000 1.763116 177.000000 170.000000 116.000000 -0.072085 147.000000 0.006159 145.000000 -0.025205 152.000000 0.028605 15.000000 -0.105458 33.000000 -0.160177 36.000000 -0.194095
440108.000000 1.586959 173.000000 179.000000 111.000000 -0.049576 130.000000 -0.025046 135.000000 -0.040172 162.000000 -0.068886 13.000000 -0.001803 106.000000 -0.024013 114.000000 -0.054842
440454.000000 1.899841 167.000000 208.000000 136.000000 -0.191784 173.000000 0.052541 187.000000 0.030379 191.000000 0.072762 14.000000 0.079057 84.000000 -0.042512 94.000000 -0.088028
440662.000000 1.745567 208.000000 155.000000 72.000000 -0.244935 134.000000 -0.011405 128.000000 -0.042691 135.000000 -0.031233 14.000000 -0.091676 27.000000 -0.156552 35.000000 -0.211834
440982.000000 1.625100 165.000000 158.000000 70.000000 -0.332317 132.000000 -0.025202 136.000000 -0.040593 139.000000 -0.020531 15.000000 -0.125591 90.000000 -0.114497 118.000000 -0.044450
441312.000000 1.842781 172.000000 168.000000 109.000000 -0.046725 144.000000 0.004213 150.000000 -0.027417 151.000000 -0.020943 16.000000 -0.070887 99.000000 -0.071365 109.000000 -0.046725
441480.000000 1.786691 168.000000 255.000000 162.000000 -0.117744 204.000000 0.008434 230.000000 -0.034387 238.000000 -0.014903 17.000000 0.029480 20.000000 -0.040207 32.000000 -0.111617
441735.000000 1.673374 255.000000 167.000000 74.000000 -0.269042 104.000000 -0.040765 110.000000 -0.086049 147.000000 -0.106882 14.000000 -0.027974 99.000000 -0.056032 110.000000 -0.086049
442086.000000 1.969416 184.000000 213.000000 128.000000 -0.133292 174.000000 0.096849 190.000000 0.056210 194.000000 0.078734 18.000000 -0.002856 20.000000 -0.059486 61.000000 -0.374811
442476.000000 1.653594 177.000000 230.000000 156.000000 -0.144432 179.000000 0.038655 191.000000 0.013796 212.000000 0.022888 17.000000 -0.079948 126.000000 -0.023818 156.000000 -0.144432
442706.000000 1.780271 230.000000 208.000000 151.000000 -0.143137 185.000000 0.052163 186.000000 0.031662 190.000000 0.075016 15.000000 -0.082034 118.000000 -0.064064 120.000000 -0.104267
443326.000000 1.890094 206.000000 188.000000 87.000000 -0.176050 129.000000 -0.068902 143.000000 -0.115877 171.000000 -0.111786 13.000000 -0.027271 111.000000 -0.075374 122.000000 -0.094514
443514.000000 1.941459 188.000000 253.000000 145.000000 -0.229590 179.000000 0.047414 191.000000 0.016144 237.000000 -0.052945 14.000000 0.109812 90.000000 0.032950 147.000000 -0.248494
443767.000000 1.898919 253.000000 211.000000 170.000000 -0.018075 190.000000 0.025091 187.000000 -0.003828 194.000000 0.028132 17.000000 0.011475 88.000000 0.019346 141.000000 -0.236319
444211.000000 1.909169 233.000000 209.000000 116.000000 -0.275186 174.000000 0.049972 187.000000 -0.008868 187.000000 -0.008868 17.000000 -0.041240 88.000000 -0.028700 116.000000 -0.275186
445421.000000 1.729392 153.000000 159.000000 85.000000 -0.130910 121.000000 -0.049325 124.000000 -0.079107 141.000000 -0.079576 14.000000 -0.127789 79.000000 -0.098402 85.000000 -0.130910
446574.000000 1.691816 178.000000 162.000000 67.000000 -0.236078 132.000000 -0.034742 141.000000 -0.037250 145.000000 -0.032876 15.000000 -0.174939 95.000000 -0.101499 128.000000 -0.068692
447289.000000 1.755262 159.000000 233.000000 148.000000 -0.201112 185.000000 0.009059 195.000000 -0.031396 214.000000 -0.016976 18.000000 -0.068373 106.000000 -0.043135 131.000000 -0.085016
448172.000000 1.865500 253.000000 176.000000 93.000000 -0.109952 124.000000 -0.109168 129.000000 -0.127914 160.000000 -0.119905 20.000000 -0.138452 99.000000 -0.070423 110.000000 -0.121284
448523.000000 1.974418 175.000000 295.000000 198.000000 -0.048792 269.000000 0.007903 271.000000 -0.007834 275.000000 0.005567 18.000000 -0.016066 84.000000 0.065411 136.000000 -0.246296
448986.000000 1.817347 168.000000 157.000000 65.000000 -0.193057 95.000000 -0.068294 106.000000 -0.106053 141.000000 -0.151494 7.000000 0.321877 83.000000 -0.074625 86.000000 -0.124656
449143.000000 1.768336 157.000000 152.000000 68.000000 -0.335219 106.000000 -0.059863 116.000000 -0.075068 138.000000 -0.073408 14.000000 -0.021962 89.000000 -0.045863 95.000000 -0.085519
449295.000000 1.652863 152.000000 155.000000 64.000000 -0.257027 98.000000 -0.054187 104.000000 -0.070001 137.000000 -0.110219 12.000000 -0.003704 92.000000 -0.048858 104.000000 -0.070001
449604.000000 1.769737 154.000000 155.000000 68.000000 -0.328084 113.000000 -0.026551 118.000000 -0.046849 136.000000 -0.033117 14.000000 -0.013066 90.000000 -0.090438 104.000000 -0.061191
450073.000000 1.632114 158.000000 158.000000 72.000000 -0.265616 136.000000 0.003774 137.000000 -0.016414 139.000000 -0.006743 14.000000 -0.084437 22.000000 -0.106586 47.000000 -0.189849
450723.000000 1.827599 163.000000 180.000000 134.000000 -0.018383 159.000000 0.041180 160.000000 0.011995 163.000000 0.063390 15.000000 -0.092466 86.000000 -0.137304 101.000000 -0.242524
452076.000000 1.853420 208.000000 178.000000 72.000000 -0.250252 120.000000 -0.036710 133.000000 -0.079812 159.000000 -0.124310 15.000000 -0.082523 102.000000 -0.056978 128.000000 -0.085502
452807.000000 1.769877 169.000000 168.000000 69.000000 -0.321501 131.000000 -0.015341 144.000000 -0.045154 150.000000 -0.009840 18.000000 -0.110137 25.000000 -0.135263 49.000000 -0.249041
453608.000000 1.527663 155.000000 153.000000 84.000000 -0.216599 129.000000 -0.034683 135.000000 -0.012708 135.000000 -0.012708 20.000000 -0.177197 27.000000 -0.135645 60.000000 -0.250329
453983.000000 1.741398 222.000000 329.000000 232.000000 -0.131157 264.000000 -0.002067 270.000000 -0.014355 308.000000 -0.070532 16.000000 -0.141235 120.000000 0.030284 151.000000 -0.079151
454530.000000 1.819563 218.000000 174.000000 98.000000 -0.256127 125.000000 -0.066736 144.000000 -0.081565 151.000000 -0.082380 15.000000 -0.119545 53.000000 -0.107211 60.000000 -0.141285
455518.000000 1.624029 162.000000 153.000000 87.000000 -0.215316 109.000000 -0.013827 117.000000 -0.065942 136.000000 -0.033511 13.000000 -0.096554 73.000000 -0.138154 88.000000 -0.230661
456304.000000 1.879469 143.000000 153.000000 108.000000 -0.064827 128.000000 -0.032789 130.000000 -0.062694 134.000000 -0.057177 16.000000 -0.124667 90.000000 -0.063400 100.000000 -0.091286
456629.000000 1.786129 172.000000 171.000000 69.000000 -0.369469 115.000000 -0.047071 125.000000 -0.061006 153.000000 -0.121868 13.000000 0.080876 101.000000 -0.058700 117.000000 -0.076820
457759.000000 1.701689 302.000000 155.000000 72.000000 -0.252304 100.000000 -0.052270 106.000000 -0.053868 136.000000 -0.074401 17.000000 -0.134596 92.000000 -0.103808 106.000000 -0.053868
458070.000000 1.625580 156.000000 145.000000 63.000000 -0.290781 95.000000 -0.026987 103.000000 -0.057175 128.000000 -0.080009 15.000000 -0.073932 84.000000 -0.080562 103.000000 -0.057175
459142.000000 1.728758 167.000000 168.000000 126.000000 -0.038414 145.000000 -0.035323 149.000000 -0.041765 151.000000 0.001809 13.000000 -0.109516 79.000000 -0.079185 96.000000 -0.188037
460405.000000 1.618632 146.000000 161.000000 46.000000 -0.168448 100.000000 -0.048292 111.000000 -0.066834 144.000000 -0.154340 13.000000 -0.010364 88.000000 -0.019061 100.000000 -0.048292
461837.000000 1.596414 156.000000 158.000000 95.000000 -0.128401 126.000000 -0.008435 139.000000 -0.008828 140.000000 -0.014078 15.000000 -0.110590 73.000000 -0.139134 95.000000 -0.128401
461995.000000 1.566534 158.000000 155.000000 110.000000 -0.082778 134.000000 -0.030241 137.000000 -0.006855 140.000000 -0.001494 7.000000 0.380453 22.000000 -0.131115 48.000000 -0.227025
462150.000000 1.540623 155.000000 151.000000 85.000000 -0.202867 125.000000 -0.029484 131.000000 -0.026491 136.000000 0.005109 12.000000 -0.049628 71.000000 -0.112587 85.000000 -0.202867
462301.000000 1.463966 151.000000 150.000000 83.000000 -0.203656 125.000000 -0.023141 126.000000 -0.053298 133.000000 -0.025319 15.000000 -0.117712 28.000000 -0.141053 51.000000 -0.221007
462451.000000 1.410686 150.000000 155.000000 88.000000 -0.162618 124.000000 -0.026879 134.000000 -0.033054 137.000000 -0.029074 13.000000 -0.110286 70.000000 -0.127086 88.000000 -0.162618
462606.000000 1.446037 155.000000 149.000000 102.000000 -0.044861 126.000000 -0.000960 125.000000 -0.005929 132.000000 0.044415 15.000000 -0.121392 88.000000 -0.100580 91.000000 -0.121395
462932.000000 1.707369 177.000000 159.000000 70.000000 -0.349400 117.000000 -0.057988 126.000000 -0.096593 142.000000 -0.059680 23.000000 -0.146220 94.000000 -0.067064 110.000000 -0.089069
464203.000000 1.481408 155.000000 160.000000 91.000000 -0.182510 112.000000 -0.012762 116.000000 -0.033029 144.000000 -0.014817 15.000000 -0.138939 76.000000 -0.097637 94.000000 -0.173717
464863.000000 1.728454 205.000000 380.000000 341.000000 -0.041894 359.000000 -0.001880 360.000000 -0.011911 361.000000 -0.031942 14.000000 -0.034225 172.000000 0.040150 189.000000 -0.004426
465243.000000 1.767571 380.000000 576.000000 377.000000 -0.030170 410.000000 0.012512 424.000000 -0.070340 550.000000 -0.043819 16.000000 -0.047400 164.000000 0.049903 204.000000 -0.022779
468043.000000 1.902479 172.000000 562.000000 479.000000 -0.023528 496.000000 0.030126 518.000000 -0.071300 542.000000 -0.046285 14.000000 -0.038980 83.000000 0.107266 117.000000 -0.073725
468605.000000 1.856833 562.000000 169.000000 74.000000 -0.101974 132.000000 -0.063867 147.000000 -0.113163 152.000000 -0.088194 18.000000 -0.169873 83.000000 -0.044639 117.000000 -0.190999
469253.000000 1.961582 318.000000 230.000000 130.000000 -0.186016 166.000000 -0.010483 187.000000 -0.074323 213.000000 -0.027208 14.000000 -0.015187 53.000000 -0.096958 72.000000 -0.155062
469483.000000 1.866115 230.000000 286.000000 229.000000 -0.130566 261.000000 0.020594 266.000000 -0.000050 268.000000 0.039636 16.000000 -0.053807 82.000000 0.005582 103.000000 -0.128804
470160.000000 1.955445 173.000000 190.000000 124.000000 -0.154371 168.000000 -0.029949 162.000000 -0.105028 169.000000 -0.043789 17.000000 -0.057766 77.000000 0.021493 101.000000 -0.161094
470603.000000 1.900405 253.000000 463.000000 403.000000 -0.103025 437.000000 0.022555 438.000000 0.002242 440.000000 -0.023463 20.000000 -0.120349 78.000000 0.100622 109.000000 -0.097671
471066.000000 1.978181 463.000000 253.000000 119.000000 -0.197819 166.000000 -0.017068 181.000000 -0.103793 237.000000 -0.017181 19.000000 -0.129512 82.000000 0.015848 117.000000 -0.217866
471319.000000 1.902803 253.000000 193.000000 119.000000 -0.213260 171.000000 -0.033624 169.000000 -0.060113 176.000000 -0.025755 15.000000 0.011017 81.000000 0.042116 117.000000 -0.208009
471724.000000 1.916475 212.000000 295.000000 243.000000 -0.075973 270.000000 -0.011729 274.000000 -0.042434 281.000000 0.092000 14.000000 -0.040674 80.000000 0.020970 112.000000 -0.133593
472019.000000 1.918555 295.000000 177.000000 119.000000 -0.127273 155.000000 -0.046367 151.000000 -0.075003 158.000000 -0.055787 13.000000 0.005247 89.000000 0.027038 110.000000 -0.174639
472660.000000 1.968621 306.000000 314.000000 156.000000 -0.063914 193.000000 -0.013979 220.000000 -0.139169 298.000000 0.004278 15.000000 -0.032885 90.000000 0.022449 116.000000 -0.084273
472974.000000 1.977850 314.000000 177.000000 125.000000 -0.064971 155.000000 -0.056334 151.000000 -0.124172 158.000000 -0.035707 17.000000 -0.100284 82.000000 -0.069829 101.000000 -0.119265
475409.000000 1.740688 272.000000 228.000000 118.000000 -0.149062 162.000000 -0.004544 169.000000 -0.025547 211.000000 0.000647 16.000000 -0.085081 95.000000 -0.047886 119.000000 -0.123670
