583.000000 2.248561 412.000000 384.000000 229.000000 -0.246017 304.000000 -0.059155 311.000000 -0.075690 366.000000 -0.178605 14.000000 -0.308148 118.000000 0.987642 155.000000 -0.221701
1704.000000 2.289297 377.000000 390.000000 316.000000 -0.081301 339.000000 -0.020595 367.000000 -0.204468 374.000000 -0.176600 13.000000 -0.322960 106.000000 1.002878 150.000000 -0.253039
2094.000000 2.311756 390.000000 417.000000 344.000000 -0.088905 364.000000 -0.010253 385.000000 -0.181898 402.000000 -0.189421 11.000000 -0.359342 125.000000 0.996749 165.000000 -0.186574
2511.000000 2.210000 417.000000 362.000000 289.000000 -0.116675 312.000000 -0.039295 325.000000 -0.178230 344.000000 -0.169687 13.000000 -0.371037 122.000000 0.993455 157.000000 -0.191085
3251.000000 2.270832 378.000000 396.000000 309.000000 -0.119936 347.000000 -0.055581 372.000000 -0.187649 378.000000 -0.167743 15.000000 -0.251159 119.000000 0.967093 159.000000 -0.204204
5085.000000 2.261113 385.000000 368.000000 290.000000 -0.127821 318.000000 -0.058445 336.000000 -0.187115 350.000000 -0.174891 15.000000 -0.199735 121.000000 0.979439 156.000000 -0.195560
5453.000000 2.185658 368.000000 321.000000 253.000000 -0.238682 270.000000 -0.101660 286.000000 -0.212805 306.000000 -0.160142 14.000000 -0.334436 113.000000 0.966351 152.000000 -0.232427
5774.000000 2.200627 321.000000 379.000000 311.000000 -0.113352 332.000000 -0.051941 340.000000 -0.118681 365.000000 -0.179167 16.000000 -0.178071 114.000000 0.968302 153.000000 -0.223028
6153.000000 2.184828 379.000000 432.000000 353.000000 -0.100751 373.000000 -0.038917 385.000000 -0.048509 413.000000 -0.191394 15.000000 -0.204073 121.000000 0.962578 158.000000 -0.197048
6585.000000 2.268276 432.000000 393.000000 312.000000 -0.096864 342.000000 -0.033416 363.000000 -0.190878 377.000000 -0.174356 13.000000 -0.350061 127.000000 0.978045 175.000000 -0.175249
6978.000000 2.109421 393.000000 352.000000 230.000000 -0.226787 299.000000 -0.023450 315.000000 -0.153717 333.000000 -0.151817 10.000000 -0.332822 123.000000 0.948021 155.000000 -0.180533
7730.000000 2.217021 400.000000 388.000000 275.000000 -0.138967 296.000000 -0.078543 304.000000 -0.114452 372.000000 -0.144672 14.000000 -0.264670 116.000000 0.967690 158.000000 -0.167122
10197.000000 2.189342 367.000000 381.000000 274.000000 -0.164842 330.000000 -0.039812 360.000000 -0.169435 363.000000 -0.171990 13.000000 -0.298575 120.000000 0.935745 155.000000 -0.209709
10989.000000 2.204938 411.000000 395.000000 323.000000 -0.075954 344.000000 -0.015827 360.000000 -0.127207 375.000000 -0.168241 11.000000 -0.374531 126.000000 0.841505 160.000000 -0.210017
11384.000000 2.095191 395.000000 359.000000 259.000000 -0.170045 307.000000 -0.009982 323.000000 -0.173492 339.000000 -0.175593 14.000000 -0.275625 122.000000 0.935141 163.000000 -0.129232
12119.000000 2.153496 376.000000 376.000000 225.000000 -0.228325 322.000000 -0.087038 340.000000 -0.194027 356.000000 -0.206959 12.000000 -0.357665 117.000000 0.930685 154.000000 -0.214805
12495.000000 2.258857 376.000000 379.000000 288.000000 -0.076035 324.000000 -0.034106 341.000000 -0.145831 360.000000 -0.153732 13.000000 -0.295156 104.000000 0.894874 149.000000 -0.235328
13239.000000 2.121848 365.000000 370.000000 292.000000 -0.121188 319.000000 -0.025844 348.000000 -0.158916 353.000000 -0.157115 14.000000 -0.303497 119.000000 0.928024 155.000000 -0.192245
13609.000000 2.137475 370.000000 373.000000 296.000000 -0.103981 321.000000 -0.025626 347.000000 -0.196708 352.000000 -0.172272 16.000000 -0.198890 115.000000 0.909212 155.000000 -0.254799
15461.000000 2.187696 409.000000 375.000000 266.000000 -0.164938 329.000000 -0.059968 351.000000 -0.168791 358.000000 -0.145422 12.000000 -0.308591 119.000000 0.905054 162.000000 -0.129928
16164.000000 2.036694 328.000000 359.000000 256.000000 -0.221473 308.000000 -0.032978 323.000000 -0.194420 342.000000 -0.173762 17.000000 -0.232083 120.000000 0.920725 156.000000 -0.245265
18014.000000 2.266522 366.000000 381.000000 313.000000 -0.095955 331.000000 -0.053682 353.000000 -0.196942 367.000000 -0.131959 12.000000 -0.268726 113.000000 0.933533 152.000000 -0.200387
18773.000000 2.195817 378.000000 341.000000 231.000000 -0.212590 292.000000 -0.034765 307.000000 -0.197914 325.000000 -0.179121 17.000000 -0.153211 113.000000 0.944979 154.000000 -0.204708
19922.000000 2.218040 409.000000 392.000000 300.000000 -0.093025 342.000000 -0.042413 361.000000 -0.164466 373.000000 -0.150249 14.000000 -0.304278 121.000000 0.931020 160.000000 -0.205206
20666.000000 2.170301 352.000000 361.000000 230.000000 -0.221397 306.000000 -0.077164 326.000000 -0.210376 347.000000 -0.172507 16.000000 -0.223526 119.000000 0.955476 155.000000 -0.208488
21772.000000 2.075783 383.000000 369.000000 254.000000 -0.248885 317.000000 -0.027789 335.000000 -0.174387 354.000000 -0.184859 12.000000 -0.373322 126.000000 0.942636 174.000000 -0.203481
23258.000000 1.742228 355.000000 367.000000 287.000000 -0.077808 312.000000 -0.019546 347.000000 -0.155204 350.000000 -0.147382 14.000000 -0.182992 104.000000 0.920343 142.000000 -0.162889
23625.000000 1.700630 367.000000 409.000000 338.000000 -0.119263 359.000000 -0.034199 375.000000 -0.193807 392.000000 -0.184652 16.000000 -0.203496 125.000000 0.885625 173.000000 -0.174664
24034.000000 2.067557 409.000000 408.000000 341.000000 -0.090845 358.000000 -0.048321 374.000000 -0.193807 393.000000 -0.169718 15.000000 -0.300564 127.000000 0.932250 167.000000 -0.174410
25133.000000 2.135439 340.000000 383.000000 316.000000 -0.128462 340.000000 -0.090816 351.000000 -0.152761 367.000000 -0.209782 12.000000 -0.363936 118.000000 0.955613 157.000000 -0.216435
25516.000000 2.207067 383.000000 382.000000 307.000000 -0.109122 334.000000 -0.047679 360.000000 -0.186097 364.000000 -0.156787 13.000000 -0.161459 111.000000 0.930730 152.000000 -0.193264
26255.000000 2.065927 357.000000 383.000000 316.000000 -0.181833 334.000000 -0.132648 356.000000 -0.285016 364.000000 -0.266285 13.000000 -0.370203 124.000000 0.944579 166.000000 -0.161779
26638.000000 2.084781 383.000000 391.000000 316.000000 -0.022003 334.000000 0.030113 356.000000 -0.114089 372.000000 -0.127084 15.000000 -0.264200 118.000000 0.916837 156.000000 -0.188349
27395.000000 1.665821 366.000000 326.000000 248.000000 -0.230768 279.000000 -0.093479 300.000000 -0.243055 310.000000 -0.202194 14.000000 -0.275041 112.000000 0.876818 155.000000 -0.198448
28527.000000 2.154703 405.000000 388.000000 318.000000 -0.065157 335.000000 -0.006772 351.000000 -0.182883 370.000000 -0.151174 13.000000 -0.339248 125.000000 0.933634 163.000000 -0.170236
30779.000000 1.907352 363.000000 358.000000 291.000000 -0.126770 308.000000 -0.053778 333.000000 -0.201552 340.000000 -0.183919 14.000000 -0.289638 124.000000 0.931129 159.000000 -0.165344
31506.000000 2.180502 369.000000 354.000000 237.000000 -0.216112 301.000000 -0.063447 320.000000 -0.172022 338.000000 -0.143276 17.000000 -0.170626 111.000000 0.928514 148.000000 -0.204855
31860.000000 2.182133 354.000000 366.000000 293.000000 -0.100063 315.000000 -0.030283 331.000000 -0.134641 349.000000 -0.134515 17.000000 -0.143792 115.000000 0.914269 138.000000 -0.162268
32616.000000 2.211333 390.000000 387.000000 271.000000 -0.164604 327.000000 -0.039434 343.000000 -0.097273 380.000000 -0.051193 17.000000 -0.179591 122.000000 0.917904 158.000000 -0.166268
33343.000000 2.150882 340.000000 365.000000 235.000000 -0.195097 313.000000 -0.061130 331.000000 -0.177572 345.000000 -0.174313 14.000000 -0.300356 120.000000 0.932788 157.000000 -0.171809
33708.000000 2.110626 365.000000 384.000000 244.000000 -0.218607 289.000000 -0.103327 292.000000 -0.133186 363.000000 -0.206017 16.000000 -0.179950 116.000000 0.916788 152.000000 -0.180772
36707.000000 2.192212 366.000000 407.000000 334.000000 -0.105628 356.000000 -0.034813 380.000000 -0.168591 388.000000 -0.164452 16.000000 -0.182159 122.000000 0.912567 156.000000 -0.187171
37856.000000 2.152258 351.000000 357.000000 238.000000 -0.238652 305.000000 -0.043041 306.000000 -0.056113 338.000000 -0.191614 13.000000 -0.312567 115.000000 0.941138 155.000000 -0.222766
38213.000000 2.177948 357.000000 358.000000 259.000000 -0.204058 308.000000 -0.051613 325.000000 -0.192194 340.000000 -0.186631 15.000000 -0.258446 122.000000 0.924445 153.000000 -0.188846
38571.000000 2.181364 358.000000 392.000000 317.000000 -0.082022 340.000000 -0.022381 360.000000 -0.169670 375.000000 -0.159342 14.000000 -0.330956 119.000000 0.931986 157.000000 -0.201769
38963.000000 2.171787 392.000000 364.000000 288.000000 -0.138263 309.000000 -0.041725 332.000000 -0.196959 346.000000 -0.200519 16.000000 -0.212948 122.000000 0.922089 158.000000 -0.183268
39327.000000 2.116676 364.000000 360.000000 273.000000 -0.172965 311.000000 -0.039184 337.000000 -0.218637 342.000000 -0.196411 13.000000 -0.368198 119.000000 0.974349 157.000000 -0.204443
39687.000000 2.195109 360.000000 398.000000 325.000000 -0.078701 346.000000 -0.021506 363.000000 -0.159734 380.000000 -0.160642 15.000000 -0.312475 124.000000 0.926161 159.000000 -0.218075
40085.000000 2.080941 398.000000 375.000000 264.000000 -0.184247 290.000000 -0.064246 302.000000 -0.075768 358.000000 -0.189669 16.000000 -0.118118 116.000000 0.927102 157.000000 -0.181352
40460.000000 2.002806 375.000000 337.000000 239.000000 -0.214685 285.000000 -0.050877 304.000000 -0.171754 319.000000 -0.189074 13.000000 -0.313071 114.000000 0.918006 155.000000 -0.204768
40797.000000 2.036380 337.000000 394.000000 319.000000 -0.091098 340.000000 0.026895 363.000000 -0.121413 378.000000 -0.132338 17.000000 -0.191110 125.000000 0.887385 165.000000 -0.248702
41191.000000 1.980673 394.000000 398.000000 308.000000 -0.093370 342.000000 -0.033919 365.000000 -0.154906 381.000000 -0.165582 13.000000 -0.261522 124.000000 0.903811 160.000000 -0.126752
43392.000000 1.898593 370.000000 365.000000 254.000000 -0.224404 312.000000 -0.012114 329.000000 -0.176064 345.000000 -0.186599 14.000000 -0.362916 132.000000 0.888709 182.000000 -0.182295
43757.000000 2.086052 365.000000 356.000000 247.000000 -0.217521 302.000000 -0.042084 318.000000 -0.174984 338.000000 -0.159891 14.000000 -0.290751 122.000000 0.906343 157.000000 -0.207466
44113.000000 2.188714 356.000000 358.000000 235.000000 -0.215158 300.000000 -0.087664 302.000000 -0.129263 337.000000 -0.175000 16.000000 -0.171837 115.000000 0.891323 154.000000 -0.208467
44471.000000 2.097335 358.000000 328.000000 261.000000 -0.157490 278.000000 -0.029919 293.000000 -0.189371 309.000000 -0.164559 15.000000 -0.187666 110.000000 0.907612 163.000000 -0.142541
44799.000000 2.159173 328.000000 352.000000 239.000000 -0.201062 303.000000 -0.037333 316.000000 -0.158195 336.000000 -0.180565 14.000000 -0.238914 117.000000 0.944558 153.000000 -0.196229
45151.000000 2.115330 352.000000 401.000000 317.000000 -0.089828 348.000000 -0.047883 366.000000 -0.154591 383.000000 -0.163368 13.000000 -0.297822 120.000000 0.896788 156.000000 -0.179132
45970.000000 2.089545 418.000000 364.000000 252.000000 -0.206972 308.000000 -0.037567 311.000000 -0.046031 345.000000 -0.156158 19.000000 -0.126631 122.000000 0.904116 155.000000 -0.226777
48213.000000 2.133404 371.000000 397.000000 327.000000 -0.078401 345.000000 -0.029795 361.000000 -0.166049 378.000000 -0.156942 13.000000 -0.268619 113.000000 0.841720 154.000000 -0.186136
48990.000000 2.060860 380.000000 330.000000 245.000000 -0.193402 287.000000 -0.071238 299.000000 -0.188762 313.000000 -0.167759 9.000000 -0.288091 113.000000 0.868005 153.000000 -0.224373
49695.000000 2.005251 375.000000 411.000000 334.000000 -0.022851 357.000000 0.034829 364.000000 0.018026 391.000000 -0.110030 15.000000 -0.288809 129.000000 0.799607 175.000000 -0.193292
50106.000000 1.876162 411.000000 387.000000 259.000000 -0.144635 336.000000 -0.017605 358.000000 -0.150913 373.000000 -0.160849 14.000000 -0.237632 125.000000 0.818666 160.000000 -0.128618
51194.000000 1.872195 350.000000 351.000000 248.000000 -0.176663 304.000000 -0.037727 328.000000 -0.159436 334.000000 -0.148950 14.000000 -0.203714 112.000000 0.845113 155.000000 -0.172051
52301.000000 2.004467 362.000000 377.000000 308.000000 -0.077635 324.000000 -0.016068 341.000000 -0.167540 357.000000 -0.179342 14.000000 -0.299325 125.000000 0.857724 161.000000 -0.180219
52678.000000 2.098290 377.000000 405.000000 251.000000 -0.202444 313.000000 -0.041237 318.000000 -0.067945 386.000000 -0.128119 15.000000 -0.243121 116.000000 0.884296 154.000000 -0.214025
53471.000000 2.019044 388.000000 380.000000 303.000000 -0.113903 329.000000 -0.028605 334.000000 -0.076175 362.000000 -0.165659 13.000000 -0.264547 114.000000 0.892955 152.000000 -0.197155
53851.000000 2.054735 380.000000 408.000000 337.000000 -0.118167 354.000000 -0.035754 375.000000 -0.166225 390.000000 -0.147243 13.000000 -0.316523 125.000000 0.871508 159.000000 -0.183615
55019.000000 1.980863 356.000000 379.000000 309.000000 -0.093839 331.000000 -0.031442 346.000000 -0.180612 362.000000 -0.150361 14.000000 -0.303901 121.000000 0.884534 157.000000 -0.191366
55768.000000 2.138134 370.000000 418.000000 343.000000 -0.058904 366.000000 -0.034717 384.000000 -0.143604 399.000000 -0.165235 16.000000 -0.106974 121.000000 0.876370 156.000000 -0.180542
56565.000000 1.942038 379.000000 372.000000 294.000000 -0.123712 326.000000 -0.078180 349.000000 -0.179999 353.000000 -0.177554 13.000000 -0.292334 116.000000 0.894421 155.000000 -0.210070
56937.000000 2.039153 372.000000 378.000000 224.000000 -0.214953 327.000000 0.030469 353.000000 -0.134720 357.000000 -0.104156 16.000000 -0.222398 127.000000 0.786536 157.000000 -0.235911
58791.000000 1.989671 410.000000 380.000000 309.000000 -0.108903 332.000000 -0.055264 340.000000 -0.125533 362.000000 -0.140518 14.000000 -0.251629 123.000000 0.833175 163.000000 -0.144981
59515.000000 1.513055 344.000000 359.000000 243.000000 -0.214451 310.000000 -0.056880 326.000000 -0.177462 343.000000 -0.141475 13.000000 -0.245064 118.000000 0.802493 155.000000 -0.169666
61678.000000 2.000705 374.000000 363.000000 294.000000 -0.073834 314.000000 -0.015152 330.000000 -0.149684 346.000000 -0.144763 14.000000 -0.128263 115.000000 0.898898 153.000000 -0.122040
62041.000000 1.694625 363.000000 320.000000 250.000000 -0.214904 269.000000 -0.096661 285.000000 -0.214436 301.000000 -0.219828 13.000000 -0.305375 118.000000 0.849861 168.000000 -0.205531
63181.000000 1.793509 408.000000 371.000000 302.000000 -0.108511 322.000000 -0.030048 340.000000 -0.158825 354.000000 -0.184920 12.000000 -0.300032 119.000000 0.880093 155.000000 -0.160264
63552.000000 1.848888 371.000000 348.000000 243.000000 -0.237604 299.000000 -0.057038 312.000000 -0.193636 330.000000 -0.194122 14.000000 -0.342949 124.000000 0.870343 163.000000 -0.183248
63900.000000 2.045237 348.000000 357.000000 252.000000 -0.201680 305.000000 -0.055472 324.000000 -0.175128 342.000000 -0.139279 13.000000 -0.322630 114.000000 0.920693 155.000000 -0.218995
64257.000000 2.181331 357.000000 382.000000 304.000000 -0.090549 331.000000 -0.033229 340.000000 -0.125047 364.000000 -0.166018 15.000000 -0.158482 113.000000 0.920550 143.000000 -0.193445
65417.000000 2.057932 374.000000 374.000000 286.000000 -0.122834 324.000000 -0.047928 348.000000 -0.169904 357.000000 -0.159104 16.000000 -0.146738 113.000000 0.932701 155.000000 -0.190171
66549.000000 2.188827 372.000000 334.000000 239.000000 -0.238133 284.000000 -0.015141 296.000000 -0.154341 315.000000 -0.184639 12.000000 -0.276361 115.000000 0.914896 153.000000 -0.212738
66883.000000 2.081975 334.000000 335.000000 248.000000 -0.243701 282.000000 -0.070284 290.000000 -0.143151 318.000000 -0.188509 17.000000 -0.223937 124.000000 0.939053 158.000000 -0.194878
67218.000000 2.176475 335.000000 372.000000 260.000000 -0.205205 317.000000 -0.033887 349.000000 -0.182398 357.000000 -0.160327 13.000000 -0.335671 119.000000 0.973333 156.000000 -0.198895
67590.000000 2.265751 372.000000 408.000000 327.000000 -0.086975 359.000000 -0.040407 369.000000 -0.120956 401.000000 -0.180720 12.000000 -0.302870 113.000000 0.955745 155.000000 -0.171170
67998.000000 2.170709 408.000000 315.000000 250.000000 -0.234545 269.000000 -0.105454 284.000000 -0.252759 301.000000 -0.178964 6.000000 -0.502724 114.000000 0.885765 158.000000 -0.244835
68594.000000 2.130893 281.000000 287.000000 213.000000 -0.195894 231.000000 -0.125127 258.000000 -0.292242 271.000000 -0.225140 12.000000 -0.300267 108.000000 0.963757 141.000000 -0.240785
68881.000000 2.212241 287.000000 338.000000 255.000000 -0.215771 279.000000 -0.042495 302.000000 -0.191210 320.000000 -0.172291 14.000000 -0.307053 117.000000 0.991910 152.000000 -0.200096
70770.000000 2.125253 450.000000 397.000000 308.000000 -0.102681 341.000000 -0.039828 347.000000 -0.044075 378.000000 -0.174278 12.000000 -0.288007 104.000000 0.940231 133.000000 -0.146184
72046.000000 2.167539 423.000000 429.000000 272.000000 -0.171767 300.000000 -0.060485 318.000000 -0.070392 410.000000 -0.164560 16.000000 -0.179154 122.000000 0.932961 162.000000 -0.159681
73253.000000 2.193528 385.000000 421.000000 331.000000 -0.076679 365.000000 -0.031069 387.000000 -0.188872 403.000000 -0.170001 15.000000 -0.273824 125.000000 0.972970 159.000000 -0.182578
74105.000000 2.212835 431.000000 390.000000 235.000000 -0.196629 299.000000 -0.053029 317.000000 -0.080959 374.000000 -0.169325 12.000000 -0.316006 110.000000 0.933840 154.000000 -0.207454
76785.000000 2.190142 388.000000 380.000000 304.000000 -0.114751 332.000000 -0.059938 343.000000 -0.109467 363.000000 -0.159795 13.000000 -0.285613 116.000000 0.931183 153.000000 -0.227919
77165.000000 2.219469 380.000000 358.000000 289.000000 -0.126583 306.000000 -0.044263 322.000000 -0.174217 344.000000 -0.208841 12.000000 -0.294451 117.000000 0.905225 152.000000 -0.200809
77523.000000 2.114483 358.000000 349.000000 247.000000 -0.206378 295.000000 0.029721 311.000000 -0.138761 333.000000 -0.148055 14.000000 -0.336458 125.000000 0.850691 157.000000 -0.221910
77872.000000 1.972181 349.000000 355.000000 260.000000 -0.188978 299.000000 0.003933 322.000000 -0.181067 337.000000 -0.145283 13.000000 -0.314012 125.000000 0.901256 165.000000 -0.168307
78227.000000 1.921331 355.000000 370.000000 251.000000 -0.197400 317.000000 -0.038229 333.000000 -0.180597 351.000000 -0.178324 14.000000 -0.317476 119.000000 0.853073 155.000000 -0.169125
78597.000000 2.014796 370.000000 376.000000 262.000000 -0.196802 325.000000 -0.029012 342.000000 -0.168058 359.000000 -0.172870 13.000000 -0.322838 116.000000 0.852068 156.000000 -0.195878
79680.000000 2.181898 337.000000 391.000000 319.000000 -0.106895 340.000000 -0.021565 356.000000 -0.165124 374.000000 -0.149182 12.000000 -0.345798 119.000000 0.898483 160.000000 -0.177945
81178.000000 1.763526 313.000000 316.000000 247.000000 -0.191726 265.000000 -0.063825 280.000000 -0.188355 296.000000 -0.205424 14.000000 -0.214875 111.000000 0.856833 157.000000 -0.203999
82267.000000 2.139214 417.000000 391.000000 312.000000 -0.117396 339.000000 -0.030423 357.000000 -0.153371 372.000000 -0.172416 12.000000 -0.304923 122.000000 0.896272 156.000000 -0.199389
83805.000000 2.187851 372.000000 351.000000 225.000000 -0.227163 300.000000 -0.014184 317.000000 -0.152398 334.000000 -0.181598 11.000000 -0.231585 102.000000 0.956697 153.000000 -0.206233
84156.000000 2.026975 351.000000 379.000000 309.000000 -0.093265 328.000000 -0.022544 343.000000 -0.183280 361.000000 -0.193107 15.000000 -0.309735 130.000000 0.921210 185.000000 -0.207643
84535.000000 2.183368 379.000000 376.000000 239.000000 -0.235642 326.000000 -0.056877 341.000000 -0.198633 359.000000 -0.173383 15.000000 -0.275455 123.000000 0.928159 162.000000 -0.201697
84911.000000 2.214531 376.000000 378.000000 311.000000 -0.094937 328.000000 -0.059828 343.000000 -0.199969 362.000000 -0.153855 13.000000 -0.316942 113.000000 0.939402 147.000000 -0.160944
85630.000000 2.083635 341.000000 355.000000 278.000000 -0.162322 312.000000 -0.098872 334.000000 -0.210610 338.000000 -0.227537 14.000000 -0.274126 118.000000 0.937341 155.000000 -0.195745
86375.000000 2.057082 390.000000 423.000000 345.000000 -0.091018 370.000000 -0.018403 401.000000 -0.161116 406.000000 -0.146461 12.000000 -0.298952 124.000000 0.874477 162.000000 -0.158749
87157.000000 2.119342 359.000000 346.000000 236.000000 -0.227540 296.000000 -0.055342 317.000000 -0.212085 332.000000 -0.156614 16.000000 -0.156425 122.000000 0.932823 159.000000 -0.190437
87503.000000 2.168729 346.000000 354.000000 277.000000 -0.130252 305.000000 -0.038418 330.000000 -0.162132 336.000000 -0.153666 13.000000 -0.300815 112.000000 0.949247 156.000000 -0.222664
88180.000000 2.087916 323.000000 380.000000 313.000000 -0.099341 329.000000 -0.027333 346.000000 -0.178494 361.000000 -0.164387 14.000000 -0.288870 119.000000 0.928471 161.000000 -0.172939
88560.000000 2.114438 380.000000 421.000000 348.000000 -0.119576 370.000000 -0.037148 386.000000 -0.155189 401.000000 -0.156018 15.000000 -0.218855 123.000000 0.915766 164.000000 -0.158593
90138.000000 2.056520 380.000000 385.000000 305.000000 -0.045970 333.000000 0.035941 351.000000 -0.096520 369.000000 -0.112461 12.000000 -0.334890 117.000000 0.837461 154.000000 -0.209777
90523.000000 1.931787 385.000000 400.000000 329.000000 -0.101737 349.000000 -0.021018 366.000000 -0.174420 384.000000 -0.165689 16.000000 -0.175315 128.000000 0.864295 159.000000 -0.141423
90923.000000 1.852068 400.000000 352.000000 238.000000 -0.217348 298.000000 -0.034875 315.000000 -0.198165 332.000000 -0.195251 13.000000 -0.349952 124.000000 0.901165 159.000000 -0.177115
91275.000000 2.009718 352.000000 359.000000 238.000000 -0.231883 307.000000 -0.028779 327.000000 -0.196491 342.000000 -0.155535 14.000000 -0.313481 116.000000 0.938263 156.000000 -0.194383
93148.000000 2.137414 389.000000 419.000000 305.000000 -0.084890 335.000000 -0.073087 345.000000 -0.107759 405.000000 -0.140313 15.000000 -0.290704 124.000000 0.893124 157.000000 -0.174992
94317.000000 1.949203 363.000000 370.000000 299.000000 -0.113571 324.000000 -0.055593 346.000000 -0.207037 352.000000 -0.179436 13.000000 -0.309308 124.000000 0.898624 160.000000 -0.181725
94687.000000 1.996049 370.000000 397.000000 318.000000 -0.107554 343.000000 -0.044765 361.000000 -0.166254 378.000000 -0.179358 15.000000 -0.257445 121.000000 0.882046 157.000000 -0.194941
95084.000000 2.082132 397.000000 398.000000 315.000000 -0.077429 350.000000 0.003542 355.000000 -0.009358 383.000000 -0.085755 15.000000 -0.261475 120.000000 0.840330 158.000000 -0.248102
95839.000000 1.284876 357.000000 380.000000 298.000000 -0.113887 332.000000 -0.034907 359.000000 -0.200659 365.000000 -0.178214 14.000000 -0.228384 123.000000 0.785316 160.000000 -0.135126
96219.000000 1.664483 380.000000 383.000000 309.000000 -0.116927 329.000000 -0.050751 357.000000 -0.205454 362.000000 -0.189560 14.000000 -0.269810 118.000000 0.853639 155.000000 -0.200261
96602.000000 2.039077 383.000000 383.000000 310.000000 -0.098243 330.000000 -0.024921 359.000000 -0.181818 365.000000 -0.162633 18.000000 -0.115075 119.000000 0.884584 157.000000 -0.208936
97361.000000 2.104000 376.000000 362.000000 237.000000 -0.204704 309.000000 -0.049418 331.000000 -0.202836 346.000000 -0.165861 14.000000 -0.299101 117.000000 0.965666 156.000000 -0.219429
97723.000000 2.216616 362.000000 364.000000 280.000000 -0.176521 315.000000 -0.042273 335.000000 -0.198134 349.000000 -0.157349 13.000000 -0.321928 123.000000 0.948949 160.000000 -0.203323
98087.000000 2.194264 364.000000 372.000000 235.000000 -0.258699 322.000000 -0.034356 343.000000 -0.193151 357.000000 -0.154169 14.000000 -0.305252 123.000000 0.974677 162.000000 -0.189096
98459.000000 2.220690 372.000000 340.000000 251.000000 -0.286504 292.000000 -0.082618 306.000000 -0.217415 323.000000 -0.157854 15.000000 -0.264186 117.000000 0.919310 156.000000 -0.291142
99147.000000 1.702533 348.000000 434.000000 348.000000 -0.068393 383.000000 -0.022325 411.000000 -0.193451 417.000000 -0.169517 15.000000 -0.233611 125.000000 0.902542 176.000000 -0.164200
100354.000000 2.165111 368.000000 387.000000 304.000000 -0.092633 334.000000 -0.050282 355.000000 -0.196082 371.000000 -0.149812 12.000000 -0.340641 120.000000 0.991412 156.000000 -0.236381
101130.000000 2.136741 389.000000 380.000000 309.000000 -0.082177 332.000000 -0.012929 356.000000 -0.158963 362.000000 -0.139041 13.000000 -0.159673 112.000000 0.970471 154.000000 -0.174277
101510.000000 1.926740 380.000000 343.000000 260.000000 -0.215861 289.000000 -0.032538 307.000000 -0.201394 328.000000 -0.243683 14.000000 -0.302603 121.000000 0.932464 157.000000 -0.198931
102200.000000 2.196803 347.000000 363.000000 293.000000 -0.138261 312.000000 -0.068371 325.000000 -0.152148 345.000000 -0.192414 14.000000 -0.309624 110.000000 0.969335 154.000000 -0.252876
104013.000000 2.199139 418.000000 404.000000 311.000000 -0.078920 352.000000 -0.061756 371.000000 -0.166459 386.000000 -0.201992 13.000000 -0.340139 119.000000 0.967394 155.000000 -0.189080
105550.000000 1.931226 378.000000 401.000000 325.000000 -0.133903 348.000000 -0.056379 363.000000 -0.176175 386.000000 -0.201409 16.000000 -0.189025 119.000000 0.960926 156.000000 -0.193889
108125.000000 2.116271 365.000000 411.000000 333.000000 -0.079232 358.000000 -0.027366 379.000000 -0.184404 394.000000 -0.168353 14.000000 -0.306161 120.000000 0.918805 172.000000 -0.163762
108932.000000 2.142320 396.000000 350.000000 267.000000 -0.196165 305.000000 -0.074499 317.000000 -0.199358 331.000000 -0.196096 15.000000 -0.264719 119.000000 0.949725 165.000000 -0.193891
109282.000000 2.090675 350.000000 360.000000 257.000000 -0.206537 309.000000 -0.048966 325.000000 -0.214953 342.000000 -0.186694 18.000000 -0.131032 113.000000 0.988276 154.000000 -0.210080
110425.000000 2.106647 401.000000 372.000000 248.000000 -0.225880 319.000000 -0.045296 346.000000 -0.191378 353.000000 -0.163744 14.000000 -0.347962 120.000000 0.958364 163.000000 -0.171356
111118.000000 2.109845 321.000000 355.000000 233.000000 -0.225836 304.000000 -0.031490 321.000000 -0.200784 335.000000 -0.189451 14.000000 -0.308621 117.000000 0.998296 156.000000 -0.249758
111826.000000 2.149059 353.000000 321.000000 225.000000 -0.210329 268.000000 -0.040188 291.000000 -0.181693 300.000000 -0.221161 18.000000 -0.095362 99.000000 0.963495 135.000000 -0.200970
112147.000000 2.100893 321.000000 404.000000 331.000000 -0.081724 353.000000 -0.039309 371.000000 -0.157915 385.000000 -0.153039 15.000000 -0.325924 126.000000 0.951013 175.000000 -0.206574
114085.000000 2.225861 367.000000 388.000000 314.000000 -0.052804 336.000000 0.024828 352.000000 -0.100108 371.000000 -0.098087 12.000000 -0.265015 113.000000 0.934328 153.000000 -0.267820
114473.000000 1.968543 388.000000 374.000000 303.000000 -0.101800 320.000000 -0.015800 336.000000 -0.155895 357.000000 -0.179484 14.000000 -0.229170 123.000000 0.922393 161.000000 -0.146430
114847.000000 1.844371 374.000000 370.000000 261.000000 -0.237993 323.000000 -0.051928 339.000000 -0.230217 352.000000 -0.206189 12.000000 -0.353356 126.000000 0.921963 182.000000 -0.197474
115217.000000 2.074045 370.000000 380.000000 307.000000 -0.116801 325.000000 -0.060987 343.000000 -0.182697 363.000000 -0.181991 13.000000 -0.285344 121.000000 0.933308 155.000000 -0.227519
118144.000000 2.130798 357.000000 369.000000 297.000000 -0.119530 319.000000 -0.057726 337.000000 -0.195454 351.000000 -0.173275 14.000000 -0.281335 116.000000 0.927299 162.000000 -0.203720
118513.000000 2.246333 369.000000 411.000000 332.000000 -0.106692 359.000000 -0.000720 381.000000 -0.169609 393.000000 -0.175283 15.000000 -0.196567 119.000000 0.974036 156.000000 -0.207362
119304.000000 2.188889 380.000000 363.000000 234.000000 -0.226348 313.000000 -0.040297 329.000000 -0.162491 346.000000 -0.172711 14.000000 -0.324484 121.000000 0.959848 158.000000 -0.226214
119667.000000 2.172649 363.000000 394.000000 302.000000 -0.099905 344.000000 -0.040752 361.000000 -0.190486 376.000000 -0.173764 16.000000 -0.184401 117.000000 0.939270 155.000000 -0.195826
121146.000000 2.070517 352.000000 390.000000 317.000000 -0.084531 336.000000 -0.017165 356.000000 -0.170723 374.000000 -0.186270 15.000000 -0.254577 121.000000 0.950799 157.000000 -0.209506
121536.000000 2.120548 390.000000 411.000000 336.000000 -0.103292 360.000000 -0.047587 384.000000 -0.185879 392.000000 -0.182806 12.000000 -0.338983 125.000000 0.950912 163.000000 -0.174681
122715.000000 2.252604 393.000000 411.000000 336.000000 -0.108259 362.000000 -0.015282 380.000000 -0.155534 396.000000 -0.170127 13.000000 -0.146159 111.000000 1.008644 156.000000 -0.237189
123126.000000 2.236612 411.000000 425.000000 349.000000 -0.120549 372.000000 -0.039999 389.000000 -0.166473 406.000000 -0.173401 13.000000 -0.321128 125.000000 0.980661 163.000000 -0.189545
126255.000000 2.201190 386.000000 388.000000 318.000000 -0.086833 338.000000 0.002697 354.000000 -0.158150 369.000000 -0.138698 13.000000 -0.350266 122.000000 0.976099 161.000000 -0.209700
126643.000000 2.077961 388.000000 355.000000 287.000000 -0.157381 309.000000 -0.104467 339.000000 -0.150644 344.000000 -0.284170 18.000000 -0.100566 118.000000 0.956363 154.000000 -0.172931
127790.000000 2.170565 429.000000 382.000000 304.000000 -0.110377 338.000000 -0.062680 359.000000 -0.212396 363.000000 -0.194889 17.000000 -0.162649 122.000000 0.934367 159.000000 -0.178438
128854.000000 1.978681 347.000000 363.000000 295.000000 -0.122445 317.000000 -0.080033 325.000000 -0.110801 345.000000 -0.217807 14.000000 -0.269969 119.000000 0.920095 158.000000 -0.180654
129217.000000 2.053590 363.000000 384.000000 309.000000 -0.085785 333.000000 -0.028605 351.000000 -0.155628 367.000000 -0.179453 12.000000 -0.373464 117.000000 0.917686 157.000000 -0.223428
129601.000000 2.089795 384.000000 356.000000 247.000000 -0.253981 303.000000 -0.039262 319.000000 -0.207272 337.000000 -0.214264 17.000000 -0.184186 121.000000 0.922081 158.000000 -0.204674
129957.000000 2.099593 356.000000 373.000000 309.000000 -0.085596 325.000000 -0.023057 341.000000 -0.172774 354.000000 -0.144872 14.000000 -0.362776 126.000000 0.940457 170.000000 -0.164484
131396.000000 2.081929 319.000000 372.000000 281.000000 -0.143152 314.000000 -0.031899 345.000000 -0.194045 351.000000 -0.189953 14.000000 -0.286835 121.000000 0.940259 161.000000 -0.199063
132521.000000 1.764125 363.000000 360.000000 253.000000 -0.209984 311.000000 -0.002493 329.000000 -0.150015 343.000000 -0.152696 12.000000 -0.347711 125.000000 0.860674 166.000000 -0.177931
132881.000000 1.949985 360.000000 353.000000 239.000000 -0.181141 304.000000 -0.052805 321.000000 -0.185548 338.000000 -0.185063 13.000000 -0.271269 114.000000 0.938147 152.000000 -0.169048
133234.000000 1.967304 353.000000 384.000000 231.000000 -0.256267 329.000000 -0.063164 347.000000 -0.186877 366.000000 -0.179700 13.000000 -0.287776 114.000000 0.910830 155.000000 -0.185107
134027.000000 2.180220 409.000000 367.000000 294.000000 -0.140797 317.000000 -0.034152 338.000000 -0.206332 352.000000 -0.172679 14.000000 -0.316441 124.000000 0.948667 157.000000 -0.207935
134394.000000 2.106287 367.000000 347.000000 242.000000 -0.225749 297.000000 -0.055423 314.000000 -0.198292 331.000000 -0.202540 11.000000 -0.356788 118.000000 0.961214 156.000000 -0.226778
135522.000000 2.147210 399.000000 320.000000 243.000000 -0.228117 267.000000 -0.106190 283.000000 -0.211896 301.000000 -0.220596 11.000000 -0.370471 117.000000 0.982909 154.000000 -0.197621
135842.000000 2.049154 320.000000 346.000000 250.000000 -0.226522 289.000000 -0.026379 311.000000 -0.194606 329.000000 -0.186769 14.000000 -0.360237 121.000000 0.997516 157.000000 -0.211230
136994.000000 2.175175 408.000000 375.000000 313.000000 -0.109936 330.000000 -0.064435 343.000000 -0.171049 359.000000 -0.168948 8.000000 -0.321001 121.000000 0.955468 158.000000 -0.186477
138144.000000 2.106144 391.000000 391.000000 305.000000 -0.076367 339.000000 -0.011443 356.000000 -0.141443 371.000000 -0.188167 15.000000 -0.313337 127.000000 0.947433 159.000000 -0.161098
139274.000000 2.179515 378.000000 387.000000 302.000000 -0.101910 336.000000 -0.052429 353.000000 -0.178117 371.000000 -0.150092 13.000000 -0.350296 121.000000 0.953743 159.000000 -0.208565
140006.000000 2.162619 345.000000 360.000000 232.000000 -0.246925 305.000000 0.000675 335.000000 -0.176864 341.000000 -0.178087 10.000000 -0.359121 119.000000 0.959032 155.000000 -0.208337
140743.000000 2.148510 377.000000 390.000000 324.000000 -0.048398 344.000000 -0.027364 360.000000 -0.152365 375.000000 -0.152819 13.000000 -0.388984 120.000000 0.970797 155.000000 -0.151469
141133.000000 2.018826 390.000000 387.000000 312.000000 -0.106053 336.000000 -0.071930 353.000000 -0.198388 371.000000 -0.174136 10.000000 -0.285596 115.000000 0.896978 154.000000 -0.194247
142053.000000 2.062636 177.000000 357.000000 292.000000 -0.103729 309.000000 -0.028086 313.000000 -0.076426 337.000000 -0.184577 16.000000 -0.570731 93.000000 0.680197 121.000000 -0.171124
143135.000000 2.136269 350.000000 319.000000 253.000000 -0.170733 271.000000 -0.048666 287.000000 -0.214278 304.000000 -0.154592 12.000000 -0.393480 116.000000 0.905031 160.000000 -0.243431
143812.000000 2.033216 358.000000 398.000000 333.000000 -0.122635 350.000000 -0.088418 366.000000 -0.221520 381.000000 -0.157368 12.000000 -0.348399 117.000000 0.921430 160.000000 -0.206584
144210.000000 2.246302 398.000000 381.000000 298.000000 -0.123245 324.000000 -0.055204 345.000000 -0.192070 362.000000 -0.177352 14.000000 -0.321379 104.000000 0.960990 144.000000 -0.179827
145005.000000 2.295846 414.000000 414.000000 315.000000 -0.076159 364.000000 -0.033588 390.000000 -0.220876 396.000000 -0.171472 12.000000 -0.355626 118.000000 1.018009 154.000000 -0.221304
146166.000000 2.245111 357.000000 363.000000 255.000000 -0.231094 312.000000 -0.083745 328.000000 -0.263244 345.000000 -0.240140 12.000000 -0.317711 116.000000 1.018840 156.000000 -0.180532
146714.000000 1.945298 185.000000 420.000000 329.000000 -0.095030 364.000000 0.012527 399.000000 -0.139574 403.000000 -0.177396 16.000000 -0.631100 117.000000 0.887363 152.000000 -0.144873
148277.000000 2.315315 397.000000 363.000000 252.000000 -0.175360 282.000000 -0.093368 296.000000 -0.137946 345.000000 -0.204309 16.000000 -0.177567 115.000000 0.963827 156.000000 -0.192697
148640.000000 2.248902 363.000000 346.000000 247.000000 -0.244218 292.000000 -0.029047 325.000000 -0.218590 331.000000 -0.212665 12.000000 -0.266677 112.000000 0.968026 153.000000 -0.199357
148986.000000 2.170268 346.000000 390.000000 317.000000 -0.104326 337.000000 -0.045940 357.000000 -0.189137 374.000000 -0.199702 14.000000 -0.389263 130.000000 0.961086 165.000000 -0.187895
149786.000000 2.172902 410.000000 373.000000 240.000000 -0.146851 297.000000 -0.014656 301.000000 -0.059546 353.000000 -0.133998 12.000000 -0.333555 117.000000 0.957911 154.000000 -0.143723
152768.000000 2.263116 363.000000 359.000000 282.000000 -0.116551 308.000000 -0.033479 324.000000 -0.171442 343.000000 -0.187900 15.000000 -0.129140 112.000000 0.979872 153.000000 -0.142776
153502.000000 2.204062 375.000000 379.000000 314.000000 -0.133572 330.000000 -0.042459 346.000000 -0.212349 362.000000 -0.175735 13.000000 -0.338587 126.000000 0.961489 160.000000 -0.217043
153881.000000 2.276568 379.000000 378.000000 311.000000 -0.105187 329.000000 -0.068525 338.000000 -0.167319 358.000000 -0.190329 14.000000 -0.313633 125.000000 0.966782 155.000000 -0.181123
154259.000000 2.284137 378.000000 385.000000 320.000000 -0.124811 337.000000 -0.065689 351.000000 -0.194889 368.000000 -0.194780 14.000000 -0.329483 115.000000 0.970094 153.000000 -0.235957
155327.000000 2.139310 339.000000 414.000000 322.000000 -0.098698 359.000000 -0.015505 375.000000 -0.156380 394.000000 -0.162994 18.000000 -0.134168 120.000000 0.948622 161.000000 -0.194799
156141.000000 2.179561 400.000000 345.000000 250.000000 -0.257960 294.000000 -0.059106 306.000000 -0.194983 326.000000 -0.201535 14.000000 -0.307196 116.000000 0.972634 155.000000 -0.224717
156859.000000 2.137726 373.000000 380.000000 290.000000 -0.133183 333.000000 -0.078545 347.000000 -0.217040 365.000000 -0.196645 13.000000 -0.220578 111.000000 0.967906 153.000000 -0.207126
157611.000000 2.173682 372.000000 400.000000 322.000000 -0.109183 349.000000 -0.029920 377.000000 -0.212726 389.000000 -0.298870 14.000000 -0.340361 127.000000 1.013563 168.000000 -0.182427
158422.000000 2.215000 411.000000 384.000000 314.000000 -0.119905 336.000000 -0.050800 339.000000 -0.103448 365.000000 -0.135345 14.000000 -0.205188 119.000000 0.971015 156.000000 -0.206475
159127.000000 2.029764 321.000000 363.000000 218.000000 -0.208136 315.000000 -0.026568 330.000000 -0.201693 343.000000 -0.186913 17.000000 -0.160770 116.000000 0.966562 154.000000 -0.242245
159911.000000 2.094437 421.000000 409.000000 341.000000 -0.111378 358.000000 -0.048352 374.000000 -0.201299 392.000000 -0.179919 14.000000 -0.369358 129.000000 0.956402 177.000000 -0.177591
160320.000000 2.134419 409.000000 357.000000 239.000000 -0.251348 303.000000 -0.053730 314.000000 -0.115611 342.000000 -0.223464 15.000000 -0.272964 117.000000 0.985895 157.000000 -0.203539
161061.000000 2.124499 384.000000 373.000000 306.000000 -0.118305 329.000000 -0.082240 356.000000 -0.171990 359.000000 -0.153480 16.000000 -0.166928 114.000000 0.998452 155.000000 -0.182834
162968.000000 1.958935 381.000000 371.000000 295.000000 -0.092994 319.000000 -0.052898 339.000000 -0.193902 355.000000 -0.150784 16.000000 -0.158648 115.000000 0.951444 156.000000 -0.162886
165926.000000 2.155706 381.000000 411.000000 338.000000 -0.108589 359.000000 -0.029419 375.000000 -0.191707 393.000000 -0.176098 14.000000 -0.329170 124.000000 0.924885 160.000000 -0.170366
168534.000000 1.772902 391.000000 409.000000 340.000000 -0.124154 360.000000 -0.053494 373.000000 -0.156238 392.000000 -0.149232 15.000000 -0.267711 121.000000 0.889885 158.000000 -0.156807
168943.000000 1.978087 409.000000 372.000000 306.000000 -0.103714 323.000000 -0.050204 339.000000 -0.187633 355.000000 -0.172052 16.000000 -0.147509 116.000000 0.926858 157.000000 -0.173423
169667.000000 2.186003 352.000000 365.000000 232.000000 -0.258337 309.000000 -0.067836 329.000000 -0.227461 348.000000 -0.194921 16.000000 -0.196097 121.000000 0.995806 155.000000 -0.233768
172573.000000 2.044875 347.000000 385.000000 248.000000 -0.248931 329.000000 -0.030282 348.000000 -0.167383 365.000000 -0.183055 13.000000 -0.365202 130.000000 0.917041 178.000000 -0.187431
174386.000000 2.270847 345.000000 359.000000 288.000000 -0.122903 310.000000 -0.028889 324.000000 -0.160582 342.000000 -0.172274 12.000000 -0.324230 116.000000 1.007674 152.000000 -0.187717
175874.000000 2.262053 365.000000 391.000000 301.000000 -0.104358 339.000000 -0.057554 356.000000 -0.191519 372.000000 -0.193697 13.000000 -0.330955 122.000000 0.971843 156.000000 -0.222279
178442.000000 2.223042 340.000000 359.000000 238.000000 -0.253421 308.000000 -0.067901 323.000000 -0.218559 341.000000 -0.178839 12.000000 -0.361425 116.000000 1.009916 155.000000 -0.267874
179940.000000 2.141678 361.000000 366.000000 289.000000 -0.133415 315.000000 -0.031503 337.000000 -0.200735 348.000000 -0.198446 15.000000 -0.241332 117.000000 0.967708 153.000000 -0.228686
180306.000000 2.144548 366.000000 364.000000 249.000000 -0.210329 315.000000 -0.032022 331.000000 -0.194795 349.000000 -0.165138 13.000000 -0.333730 118.000000 0.975376 156.000000 -0.226410
181020.000000 2.167116 350.000000 353.000000 259.000000 -0.217613 297.000000 0.017292 313.000000 -0.164433 337.000000 -0.191080 13.000000 -0.294168 118.000000 0.969665 156.000000 -0.256982
181373.000000 2.096882 353.000000 366.000000 242.000000 -0.242834 310.000000 -0.005831 328.000000 -0.168746 343.000000 -0.217680 15.000000 -0.319243 125.000000 0.960930 161.000000 -0.170955
182113.000000 2.141035 374.000000 367.000000 282.000000 -0.126117 320.000000 -0.058074 344.000000 -0.177243 350.000000 -0.166773 15.000000 -0.213588 111.000000 0.952914 151.000000 -0.189411
182480.000000 2.106050 367.000000 360.000000 239.000000 -0.253056 306.000000 -0.063557 324.000000 -0.196645 343.000000 -0.174139 17.000000 -0.170063 116.000000 0.947445 157.000000 -0.231379
185643.000000 2.141912 349.000000 338.000000 262.000000 -0.217255 287.000000 -0.042992 302.000000 -0.229701 320.000000 -0.217693 15.000000 -0.284263 120.000000 0.964375 157.000000 -0.251477
186330.000000 2.217445 349.000000 387.000000 317.000000 -0.117712 337.000000 -0.058606 359.000000 -0.207068 373.000000 -0.178809 11.000000 -0.397069 121.000000 0.962035 155.000000 -0.223844
186717.000000 2.191114 387.000000 342.000000 282.000000 -0.167884 298.000000 -0.079984 310.000000 -0.191771 327.000000 -0.173682 12.000000 -0.332725 118.000000 0.928426 153.000000 -0.204020
187059.000000 2.203728 342.000000 343.000000 227.000000 -0.227806 293.000000 -0.070235 309.000000 -0.187055 325.000000 -0.172741 13.000000 -0.318201 113.000000 0.986197 153.000000 -0.240382
187773.000000 2.126944 371.000000 433.000000 354.000000 -0.101820 380.000000 -0.056788 388.000000 -0.074138 419.000000 -0.203669 16.000000 -0.264340 130.000000 0.924964 176.000000 -0.195176
188572.000000 2.086349 366.000000 362.000000 286.000000 -0.105643 309.000000 -0.047836 326.000000 -0.189388 344.000000 -0.168980 12.000000 -0.327976 106.000000 0.963138 151.000000 -0.213431
189318.000000 2.200141 384.000000 367.000000 296.000000 -0.108497 325.000000 -0.063935 340.000000 -0.216740 352.000000 -0.176567 15.000000 -0.231976 119.000000 0.951358 155.000000 -0.204535
189685.000000 2.051600 367.000000 365.000000 260.000000 -0.208515 310.000000 -0.027276 324.000000 -0.152651 347.000000 -0.166615 13.000000 -0.314467 119.000000 0.912080 156.000000 -0.182133
190050.000000 2.031175 365.000000 370.000000 296.000000 -0.117994 317.000000 -0.023136 336.000000 -0.181694 350.000000 -0.199137 14.000000 -0.343230 121.000000 0.920931 155.000000 -0.198801
190420.000000 2.053558 370.000000 384.000000 278.000000 -0.135045 337.000000 -0.077288 350.000000 -0.190186 366.000000 -0.191034 14.000000 -0.258353 120.000000 0.888813 157.000000 -0.172965
190804.000000 2.141582 384.000000 371.000000 241.000000 -0.211458 324.000000 -0.077160 337.000000 -0.180045 352.000000 -0.181173 13.000000 -0.131365 111.000000 0.961429 154.000000 -0.211639
191175.000000 2.083089 371.000000 333.000000 240.000000 -0.248993 284.000000 -0.061893 301.000000 -0.228807 316.000000 -0.193166 19.000000 -0.118904 111.000000 0.939967 154.000000 -0.206047
193328.000000 2.141913 355.000000 358.000000 251.000000 -0.198875 309.000000 -0.062037 328.000000 -0.177680 338.000000 -0.178793 13.000000 -0.309056 112.000000 0.966908 153.000000 -0.197186
193686.000000 2.173401 358.000000 358.000000 232.000000 -0.227713 307.000000 -0.032756 326.000000 -0.176973 342.000000 -0.171032 14.000000 -0.248699 113.000000 0.952249 155.000000 -0.191762
194044.000000 2.105723 358.000000 380.000000 303.000000 -0.110502 325.000000 -0.050173 344.000000 -0.175564 360.000000 -0.198760 13.000000 -0.340421 127.000000 0.886561 178.000000 -0.214270
194794.000000 2.119610 370.000000 385.000000 305.000000 -0.132351 332.000000 -0.067556 360.000000 -0.190768 365.000000 -0.182476 15.000000 -0.218822 122.000000 0.949265 157.000000 -0.192356
196274.000000 2.106474 349.000000 427.000000 356.000000 -0.073386 375.000000 -0.016175 392.000000 -0.130485 406.000000 -0.150030 14.000000 -0.249155 122.000000 0.899889 157.000000 -0.207100
197098.000000 2.082382 397.000000 327.000000 236.000000 -0.231758 277.000000 -0.068777 291.000000 -0.218432 311.000000 -0.175597 14.000000 -0.303748 117.000000 0.914448 154.000000 -0.219015
197795.000000 2.145049 370.000000 386.000000 299.000000 -0.069545 330.000000 -0.032819 352.000000 -0.153182 370.000000 -0.106568 15.000000 -0.171753 113.000000 0.944147 155.000000 -0.197294
198546.000000 1.919717 365.000000 393.000000 309.000000 -0.096960 340.000000 -0.039217 357.000000 -0.167024 376.000000 -0.145378 15.000000 -0.323558 129.000000 0.890559 169.000000 -0.191413
199719.000000 2.129357 375.000000 334.000000 254.000000 -0.196350 287.000000 -0.048512 301.000000 -0.187588 315.000000 -0.200032 17.000000 -0.118794 110.000000 0.907798 154.000000 -0.232059
200376.000000 2.100327 323.000000 331.000000 242.000000 -0.214550 274.000000 -0.012023 305.000000 -0.187399 313.000000 -0.187556 12.000000 -0.310537 101.000000 0.968896 152.000000 -0.209565
201128.000000 2.024608 421.000000 377.000000 297.000000 -0.109969 326.000000 -0.060721 355.000000 -0.161866 359.000000 -0.168339 15.000000 -0.259309 121.000000 0.904958 165.000000 -0.156388
201899.000000 2.085141 394.000000 392.000000 312.000000 -0.107697 340.000000 -0.051317 349.000000 -0.117163 373.000000 -0.171692 13.000000 -0.291412 116.000000 0.901554 155.000000 -0.198443
203778.000000 2.118748 382.000000 381.000000 311.000000 -0.116364 332.000000 -0.050189 347.000000 -0.200251 365.000000 -0.176974 12.000000 -0.307319 117.000000 0.934556 155.000000 -0.207782
204159.000000 2.014467 381.000000 363.000000 236.000000 -0.220140 311.000000 -0.068229 328.000000 -0.187430 343.000000 -0.181598 13.000000 -0.332679 120.000000 0.913844 155.000000 -0.201739
204868.000000 1.573932 346.000000 402.000000 322.000000 -0.081456 346.000000 -0.023196 367.000000 -0.160422 385.000000 -0.145655 12.000000 -0.252038 123.000000 0.817172 159.000000 -0.158521
205666.000000 1.995001 396.000000 351.000000 263.000000 -0.190958 304.000000 -0.059782 330.000000 -0.210786 334.000000 -0.167650 18.000000 -0.152525 119.000000 0.889604 161.000000 -0.157556
206350.000000 2.113917 333.000000 356.000000 251.000000 -0.182069 305.000000 -0.035424 331.000000 -0.204420 336.000000 -0.183887 13.000000 -0.291084 112.000000 0.941843 152.000000 -0.189675
206706.000000 2.091756 356.000000 351.000000 255.000000 -0.190251 302.000000 -0.035078 319.000000 -0.164434 333.000000 -0.172428 15.000000 -0.204123 118.000000 0.884758 158.000000 -0.174472
207057.000000 2.059815 351.000000 347.000000 265.000000 -0.213830 299.000000 -0.034549 319.000000 -0.204312 330.000000 -0.172666 13.000000 -0.344263 125.000000 0.865730 167.000000 -0.161038
208528.000000 2.040442 386.000000 331.000000 256.000000 -0.189686 280.000000 -0.068557 295.000000 -0.230219 314.000000 -0.174669 12.000000 -0.338587 111.000000 0.894584 152.000000 -0.216857
209163.000000 2.113497 304.000000 411.000000 334.000000 -0.082584 359.000000 -0.037303 383.000000 -0.166895 389.000000 -0.182806 13.000000 -0.338650 120.000000 0.915632 157.000000 -0.204540
209574.000000 2.169200 411.000000 402.000000 313.000000 -0.086785 350.000000 -0.050374 377.000000 -0.205265 382.000000 -0.198682 16.000000 -0.198604 122.000000 0.894076 158.000000 -0.158138
210702.000000 2.184467 368.000000 384.000000 303.000000 -0.111224 330.000000 -0.054107 353.000000 -0.185470 367.000000 -0.158684 15.000000 -0.199342 116.000000 0.928250 154.000000 -0.215305
211086.000000 2.227257 384.000000 370.000000 301.000000 -0.110424 319.000000 -0.028748 335.000000 -0.146050 352.000000 -0.156003 13.000000 -0.261393 114.000000 0.909414 151.000000 -0.180587
211456.000000 2.139420 370.000000 374.000000 304.000000 -0.108275 321.000000 -0.017649 337.000000 -0.162210 356.000000 -0.166380 17.000000 -0.140594 122.000000 0.913384 157.000000 -0.195834
214095.000000 2.171616 384.000000 393.000000 313.000000 -0.112115 339.000000 -0.024244 361.000000 -0.179808 376.000000 -0.146094 12.000000 -0.355252 117.000000 0.945385 163.000000 -0.175320
215194.000000 2.177663 329.000000 358.000000 232.000000 -0.236067 314.000000 -0.062571 318.000000 -0.097007 342.000000 -0.159106 16.000000 -0.215802 116.000000 0.982224 155.000000 -0.257444
215552.000000 2.322398 358.000000 397.000000 323.000000 -0.101569 345.000000 -0.021097 353.000000 -0.085861 382.000000 -0.158622 13.000000 -0.140926 106.000000 0.997914 154.000000 -0.194236
217479.000000 2.203105 392.000000 342.000000 266.000000 -0.181896 291.000000 -0.056238 321.000000 -0.189013 325.000000 -0.166960 17.000000 -0.156658 116.000000 0.966090 155.000000 -0.245435
218175.000000 2.187680 354.000000 377.000000 308.000000 -0.121004 325.000000 -0.029029 342.000000 -0.204029 360.000000 -0.185062 13.000000 -0.331534 119.000000 0.969120 157.000000 -0.212715
219273.000000 2.225000 352.000000 320.000000 236.000000 -0.238508 270.000000 -0.074404 285.000000 -0.220798 304.000000 -0.206004 15.000000 -0.208497 110.000000 0.949242 152.000000 -0.221694
219942.000000 2.260957 349.000000 392.000000 311.000000 -0.103196 341.000000 -0.049308 356.000000 -0.167130 372.000000 -0.193479 14.000000 -0.316661 124.000000 0.963893 167.000000 -0.184164
221040.000000 2.270878 336.000000 358.000000 239.000000 -0.213374 304.000000 -0.025128 325.000000 -0.174656 342.000000 -0.154201 13.000000 -0.306238 118.000000 0.978680 158.000000 -0.228107
221398.000000 2.269719 358.000000 359.000000 285.000000 -0.167553 311.000000 -0.062334 314.000000 -0.122460 343.000000 -0.163872 15.000000 -0.241644 114.000000 0.989923 151.000000 -0.208414
221757.000000 2.325786 359.000000 326.000000 261.000000 -0.238871 282.000000 -0.101473 293.000000 -0.212916 309.000000 -0.197556 15.000000 -0.236377 114.000000 0.981533 150.000000 -0.203205
222083.000000 2.127132 326.000000 370.000000 249.000000 -0.234875 314.000000 -0.031113 331.000000 -0.193339 354.000000 -0.184951 14.000000 -0.348635 119.000000 0.962357 164.000000 -0.222720
223224.000000 2.121160 376.000000 391.000000 239.000000 -0.239564 339.000000 -0.055079 355.000000 -0.191098 374.000000 -0.159341 13.000000 -0.332852 123.000000 0.982133 159.000000 -0.160788
223973.000000 2.170331 358.000000 366.000000 290.000000 -0.110641 316.000000 -0.056158 342.000000 -0.208056 347.000000 -0.187351 15.000000 -0.213038 113.000000 0.995519 154.000000 -0.198479
224751.000000 2.214890 412.000000 397.000000 327.000000 -0.130690 348.000000 -0.037899 360.000000 -0.141850 379.000000 -0.172994 14.000000 -0.327445 131.000000 0.945715 174.000000 -0.191118
225148.000000 2.145705 397.000000 337.000000 234.000000 -0.262321 292.000000 -0.065502 304.000000 -0.191207 319.000000 -0.207008 13.000000 -0.361737 119.000000 0.970304 158.000000 -0.236268
225485.000000 2.168167 337.000000 367.000000 294.000000 -0.145594 315.000000 -0.036519 332.000000 -0.172474 348.000000 -0.189090 13.000000 -0.317742 117.000000 0.975742 155.000000 -0.202672
225852.000000 2.154015 367.000000 376.000000 309.000000 -0.108809 326.000000 -0.054124 351.000000 -0.171882 358.000000 -0.163339 16.000000 -0.177178 117.000000 0.928424 156.000000 -0.202154
226965.000000 2.156443 373.000000 385.000000 249.000000 -0.233496 329.000000 -0.043699 350.000000 -0.188307 364.000000 -0.173542 14.000000 -0.301678 120.000000 0.945836 157.000000 -0.207658
227350.000000 2.160517 385.000000 374.000000 239.000000 -0.245080 322.000000 -0.055327 353.000000 -0.194937 354.000000 -0.210799 18.000000 -0.143608 123.000000 0.948660 163.000000 -0.191653
228073.000000 2.149623 349.000000 314.000000 235.000000 -0.249829 263.000000 -0.121068 281.000000 -0.235362 296.000000 -0.172474 13.000000 -0.312337 116.000000 0.928332 157.000000 -0.237684
229848.000000 2.048323 358.000000 367.000000 279.000000 -0.179465 312.000000 -0.060156 342.000000 -0.166629 349.000000 -0.148556 15.000000 -0.294986 121.000000 0.916418 155.000000 -0.204774
230934.000000 2.084735 353.000000 367.000000 259.000000 -0.198023 308.000000 -0.024531 334.000000 -0.195095 350.000000 -0.199265 14.000000 -0.332112 126.000000 0.906524 157.000000 -0.190801
232063.000000 2.083448 373.000000 350.000000 246.000000 -0.221035 300.000000 -0.044247 316.000000 -0.180971 333.000000 -0.172414 11.000000 -0.293183 114.000000 0.933353 153.000000 -0.194453
232766.000000 2.123950 353.000000 359.000000 292.000000 -0.102791 310.000000 -0.024485 326.000000 -0.156333 343.000000 -0.173887 13.000000 -0.229122 100.000000 0.940144 146.000000 -0.200030
233125.000000 2.077023 359.000000 414.000000 339.000000 -0.097570 359.000000 -0.036096 376.000000 -0.145893 394.000000 -0.142647 13.000000 -0.321316 125.000000 0.886294 161.000000 -0.157518
233917.000000 2.012178 378.000000 352.000000 237.000000 -0.208886 304.000000 -0.029292 319.000000 -0.193696 337.000000 -0.171646 12.000000 -0.330298 112.000000 0.892104 155.000000 -0.207001
234269.000000 2.051192 352.000000 374.000000 307.000000 -0.115503 326.000000 -0.074875 341.000000 -0.196771 357.000000 -0.192035 12.000000 -0.306362 114.000000 0.906079 155.000000 -0.208490
235007.000000 2.072773 364.000000 391.000000 240.000000 -0.190597 336.000000 -0.022334 364.000000 -0.173854 369.000000 -0.179152 14.000000 -0.174327 121.000000 0.896859 157.000000 -0.175474
235753.000000 2.019732 355.000000 356.000000 278.000000 -0.168261 304.000000 -0.066081 320.000000 -0.200735 339.000000 -0.150500 14.000000 -0.356756 118.000000 0.944726 156.000000 -0.222267
236109.000000 2.136883 356.000000 379.000000 294.000000 -0.085768 325.000000 -0.047585 343.000000 -0.160124 365.000000 -0.181329 14.000000 -0.215280 105.000000 0.932367 150.000000 -0.214796
236870.000000 2.080378 382.000000 338.000000 244.000000 -0.214358 293.000000 -0.093699 305.000000 -0.213495 324.000000 -0.216677 11.000000 -0.330404 116.000000 0.921591 155.000000 -0.212785
238386.000000 1.961662 358.000000 335.000000 258.000000 -0.222353 290.000000 -0.068793 317.000000 -0.192915 321.000000 -0.178636 12.000000 -0.328293 117.000000 0.896198 156.000000 -0.204991
238721.000000 2.084826 335.000000 347.000000 278.000000 -0.167322 294.000000 -0.037133 311.000000 -0.182289 329.000000 -0.175705 14.000000 -0.279861 118.000000 0.946026 154.000000 -0.202322
241962.000000 1.815973 359.000000 351.000000 262.000000 -0.224704 303.000000 -0.037494 316.000000 -0.184155 331.000000 -0.193716 17.000000 -0.179402 123.000000 0.885821 159.000000 -0.164022
242679.000000 2.091158 366.000000 360.000000 250.000000 -0.228416 310.000000 -0.070298 320.000000 -0.184436 345.000000 -0.166756 14.000000 -0.304717 125.000000 0.885975 163.000000 -0.152652
243039.000000 2.141302 360.000000 342.000000 243.000000 -0.236147 293.000000 -0.072930 310.000000 -0.212475 325.000000 -0.159215 13.000000 -0.315312 113.000000 0.924334 153.000000 -0.229273
243381.000000 2.106053 342.000000 331.000000 249.000000 -0.226989 281.000000 -0.061363 299.000000 -0.187240 313.000000 -0.181159 14.000000 -0.233649 111.000000 0.911608 153.000000 -0.228502
244082.000000 2.063107 370.000000 354.000000 287.000000 -0.140359 305.000000 -0.029402 332.000000 -0.217789 336.000000 -0.185031 14.000000 -0.336253 126.000000 0.890000 161.000000 -0.174263
245164.000000 2.069970 385.000000 387.000000 315.000000 -0.104214 339.000000 -0.051158 355.000000 -0.193118 370.000000 -0.160328 12.000000 -0.339827 119.000000 0.886946 157.000000 -0.190257
245551.000000 2.024156 387.000000 330.000000 262.000000 -0.219452 281.000000 -0.096177 294.000000 -0.185753 311.000000 -0.188840 15.000000 -0.231283 116.000000 0.901232 155.000000 -0.218034
245881.000000 2.042916 330.000000 381.000000 310.000000 -0.131458 329.000000 -0.049061 347.000000 -0.182745 363.000000 -0.193435 15.000000 -0.282524 116.000000 0.928665 155.000000 -0.223902
246262.000000 2.105091 381.000000 404.000000 304.000000 -0.090065 352.000000 -0.033245 379.000000 -0.215721 385.000000 -0.178604 12.000000 -0.340708 118.000000 0.907601 155.000000 -0.211113
247395.000000 2.106834 343.000000 352.000000 231.000000 -0.211520 299.000000 -0.030845 315.000000 -0.176661 333.000000 -0.181738 14.000000 -0.287349 113.000000 0.960680 153.000000 -0.203819
248503.000000 2.146036 397.000000 359.000000 277.000000 -0.144155 306.000000 -0.034655 324.000000 -0.177146 342.000000 -0.184983 14.000000 -0.302477 120.000000 0.907833 158.000000 -0.196474
248862.000000 2.065488 359.000000 336.000000 260.000000 -0.205186 283.000000 -0.053697 305.000000 -0.224435 318.000000 -0.186347 14.000000 -0.323040 116.000000 0.922591 156.000000 -0.197689
249562.000000 2.145172 364.000000 382.000000 243.000000 -0.182929 291.000000 -0.071940 297.000000 -0.089386 366.000000 -0.187194 13.000000 -0.262086 111.000000 0.922332 155.000000 -0.203994
250700.000000 2.185894 404.000000 399.000000 327.000000 -0.097898 347.000000 -0.034577 362.000000 -0.196631 382.000000 -0.159420 14.000000 -0.327083 125.000000 0.893670 172.000000 -0.159636
251812.000000 2.149279 341.000000 353.000000 283.000000 -0.132992 308.000000 -0.064921 331.000000 -0.170189 337.000000 -0.126130 14.000000 -0.249233 116.000000 0.986802 155.000000 -0.250487
252165.000000 2.201567 353.000000 364.000000 239.000000 -0.197208 309.000000 -0.053448 331.000000 -0.193591 347.000000 -0.169986 11.000000 -0.319780 105.000000 0.982357 142.000000 -0.180276
253315.000000 2.164091 376.000000 361.000000 229.000000 -0.236816 311.000000 -0.045298 332.000000 -0.198683 345.000000 -0.161144 14.000000 -0.322036 118.000000 0.995492 151.000000 -0.225075
254683.000000 2.169013 310.000000 295.000000 217.000000 -0.252132 238.000000 -0.126990 257.000000 -0.311536 281.000000 -0.263463 12.000000 -0.402054 118.000000 0.984948 157.000000 -0.293263
254978.000000 2.056931 295.000000 280.000000 207.000000 -0.227458 225.000000 -0.124716 243.000000 -0.331551 263.000000 -0.309090 12.000000 -0.398963 117.000000 0.987123 155.000000 -0.277379
255258.000000 2.170125 280.000000 293.000000 195.000000 -0.232347 237.000000 -0.150827 269.000000 -0.297961 275.000000 -0.244027 13.000000 -0.342413 118.000000 0.981775 157.000000 -0.268650
256661.000000 2.259499 277.000000 487.000000 412.000000 -0.069248 432.000000 0.003010 450.000000 -0.109295 468.000000 -0.141098 16.000000 -0.129511 114.000000 0.937796 154.000000 -0.190423
257148.000000 2.223166 487.000000 446.000000 370.000000 -0.080925 394.000000 -0.046772 405.000000 -0.145048 426.000000 -0.176554 16.000000 -0.281616 132.000000 0.878778 187.000000 -0.169562
259636.000000 2.228543 409.000000 373.000000 264.000000 -0.203571 323.000000 -0.049167 346.000000 -0.207600 364.000000 -0.292741 14.000000 -0.273010 125.000000 0.905019 160.000000 -0.197787
260009.000000 2.306490 373.000000 368.000000 305.000000 -0.102052 322.000000 -0.059512 331.000000 -0.186581 351.000000 -0.170014 12.000000 -0.324090 119.000000 0.976054 155.000000 -0.219258
261575.000000 2.229122 405.000000 402.000000 329.000000 -0.086850 352.000000 -0.023792 369.000000 -0.194874 383.000000 -0.160564 15.000000 -0.267194 124.000000 0.930403 162.000000 -0.198827
263004.000000 2.218292 299.000000 318.000000 215.000000 -0.233294 261.000000 -0.007743 277.000000 -0.155314 299.000000 -0.189704 10.000000 -0.365641 99.000000 0.943085 144.000000 -0.220381
263322.000000 2.160155 318.000000 364.000000 267.000000 -0.201744 308.000000 0.021096 338.000000 -0.182838 342.000000 -0.188496 18.000000 -0.241146 129.000000 0.904058 163.000000 -0.179862
264819.000000 2.249310 382.000000 359.000000 217.000000 -0.230988 311.000000 -0.087992 327.000000 -0.204481 343.000000 -0.156188 14.000000 -0.268716 119.000000 0.920146 156.000000 -0.206699
265178.000000 2.253232 359.000000 322.000000 222.000000 -0.225797 270.000000 -0.018320 287.000000 -0.185922 302.000000 -0.190687 12.000000 -0.293116 102.000000 0.949371 141.000000 -0.217183
265844.000000 2.165127 344.000000 325.000000 248.000000 -0.261799 271.000000 -0.100530 288.000000 -0.230108 309.000000 -0.209075 14.000000 -0.347602 126.000000 0.933164 154.000000 -0.171631
266518.000000 2.195737 349.000000 385.000000 232.000000 -0.222223 292.000000 -0.068857 321.000000 -0.107726 368.000000 -0.160659 16.000000 -0.163933 116.000000 0.899005 153.000000 -0.191839
266903.000000 2.176269 385.000000 389.000000 236.000000 -0.201491 303.000000 -0.069373 323.000000 -0.113856 372.000000 -0.151189 12.000000 -0.321255 111.000000 0.921156 154.000000 -0.206116
267292.000000 2.221175 389.000000 343.000000 245.000000 -0.225107 291.000000 -0.025141 309.000000 -0.177256 323.000000 -0.200562 12.000000 -0.326209 107.000000 0.961559 147.000000 -0.190120
267959.000000 2.105377 324.000000 301.000000 226.000000 -0.229247 249.000000 -0.136395 268.000000 -0.290675 287.000000 -0.273040 16.000000 -0.238873 117.000000 0.929244 157.000000 -0.269984
268260.000000 2.170595 301.000000 280.000000 207.000000 -0.255642 229.000000 -0.172053 245.000000 -0.363354 263.000000 -0.330925 16.000000 -0.257415 121.000000 0.904542 157.000000 -0.241600
268540.000000 2.102665 280.000000 274.000000 197.000000 -0.206473 219.000000 -0.137225 240.000000 -0.344373 255.000000 -0.237177 12.000000 -0.296710 106.000000 0.918854 153.000000 -0.261879
270248.000000 2.180911 369.000000 355.000000 250.000000 -0.209540 304.000000 -0.045657 319.000000 -0.185892 340.000000 -0.129920 14.000000 -0.281065 118.000000 0.869615 153.000000 -0.173880
270603.000000 2.073215 355.000000 341.000000 242.000000 -0.179341 286.000000 -0.028981 308.000000 -0.191849 325.000000 -0.164437 14.000000 -0.259324 107.000000 0.887642 152.000000 -0.195748
271359.000000 2.169859 415.000000 393.000000 312.000000 -0.099624 346.000000 -0.041363 370.000000 -0.152382 373.000000 -0.165658 13.000000 -0.236410 110.000000 0.852075 148.000000 -0.176605
272181.000000 2.060581 429.000000 429.000000 346.000000 -0.077787 375.000000 -0.035814 391.000000 -0.158181 408.000000 -0.186818 17.000000 -0.207080 123.000000 0.886772 158.000000 -0.176340
272610.000000 2.148353 429.000000 396.000000 317.000000 -0.092130 342.000000 -0.050563 369.000000 -0.182101 386.000000 -0.264608 13.000000 -0.251994 117.000000 0.898581 156.000000 -0.207877
273006.000000 2.194201 396.000000 406.000000 328.000000 -0.090472 355.000000 -0.043059 372.000000 -0.146413 388.000000 -0.159954 12.000000 -0.292019 115.000000 0.919341 154.000000 -0.219163
273412.000000 2.162538 406.000000 405.000000 249.000000 -0.201000 296.000000 -0.081406 308.000000 -0.092208 386.000000 -0.146145 16.000000 -0.172651 120.000000 0.870687 155.000000 -0.211535
275307.000000 2.174468 371.000000 379.000000 299.000000 -0.095409 327.000000 -0.041897 331.000000 -0.051584 361.000000 -0.142822 14.000000 -0.241020 116.000000 0.883106 151.000000 -0.228995
275686.000000 2.151927 379.000000 360.000000 297.000000 -0.116552 320.000000 -0.083120 327.000000 -0.156881 345.000000 -0.174247 13.000000 -0.252728 117.000000 0.913323 155.000000 -0.199832
277273.000000 2.138933 399.000000 378.000000 237.000000 -0.197567 297.000000 -0.069936 304.000000 -0.087835 361.000000 -0.161315 17.000000 -0.164783 119.000000 0.904787 155.000000 -0.206980
277651.000000 1.986070 378.000000 322.000000 255.000000 -0.189843 274.000000 -0.058572 289.000000 -0.186739 307.000000 -0.137743 14.000000 -0.206280 111.000000 0.896686 154.000000 -0.202597
278694.000000 2.108480 410.000000 401.000000 324.000000 -0.099170 352.000000 -0.042194 361.000000 -0.150235 383.000000 -0.171269 15.000000 -0.262555 124.000000 0.916389 159.000000 -0.171604
280262.000000 2.283281 403.000000 392.000000 324.000000 -0.100877 343.000000 -0.049999 357.000000 -0.174513 376.000000 -0.196191 12.000000 -0.297407 103.000000 0.967005 150.000000 -0.198425
281420.000000 2.241348 375.000000 362.000000 281.000000 -0.118789 313.000000 -0.066141 335.000000 -0.213069 340.000000 -0.203634 18.000000 -0.110972 111.000000 0.964282 152.000000 -0.218492
282482.000000 2.227557 340.000000 316.000000 239.000000 -0.226347 265.000000 -0.070438 277.000000 -0.198150 298.000000 -0.205800 11.000000 -0.233069 109.000000 0.944539 158.000000 -0.252752
283129.000000 2.188528 331.000000 397.000000 320.000000 -0.106254 344.000000 -0.040063 348.000000 -0.086458 375.000000 -0.185391 12.000000 -0.341597 116.000000 0.951654 154.000000 -0.198095
283927.000000 2.226928 401.000000 369.000000 292.000000 -0.121565 319.000000 -0.075141 337.000000 -0.181284 350.000000 -0.149623 12.000000 -0.329403 117.000000 0.915263 154.000000 -0.199833
284296.000000 2.138997 369.000000 367.000000 243.000000 -0.215892 286.000000 -0.091224 315.000000 -0.147212 351.000000 -0.190502 14.000000 -0.290909 113.000000 0.942197 161.000000 -0.159510
284663.000000 2.242823 367.000000 404.000000 326.000000 -0.075673 351.000000 -0.027790 381.000000 -0.169372 386.000000 -0.174012 13.000000 -0.134326 111.000000 0.956151 154.000000 -0.199647
285067.000000 2.180454 404.000000 421.000000 354.000000 -0.106332 373.000000 -0.040453 384.000000 -0.155187 404.000000 -0.167868 16.000000 -0.249779 127.000000 0.914994 168.000000 -0.170788
285488.000000 2.190674 421.000000 387.000000 241.000000 -0.218652 338.000000 -0.056394 351.000000 -0.194982 373.000000 -0.169888 13.000000 -0.334826 126.000000 0.922792 161.000000 -0.166069
285875.000000 2.139155 387.000000 362.000000 263.000000 -0.209486 310.000000 -0.046053 327.000000 -0.181695 343.000000 -0.195926 11.000000 -0.370422 122.000000 0.941856 156.000000 -0.225099
286585.000000 2.224623 348.000000 353.000000 236.000000 -0.210328 301.000000 -0.041347 321.000000 -0.203619 335.000000 -0.169420 13.000000 -0.323105 114.000000 0.976667 154.000000 -0.224224
287335.000000 2.188339 397.000000 373.000000 292.000000 -0.117444 320.000000 -0.052099 324.000000 -0.053714 351.000000 -0.210470 16.000000 -0.211568 120.000000 0.965284 156.000000 -0.190716
288450.000000 2.239434 379.000000 378.000000 264.000000 -0.187289 325.000000 -0.058120 343.000000 -0.197587 360.000000 -0.162773 13.000000 -0.297354 115.000000 0.945869 154.000000 -0.229333
289857.000000 2.204295 366.000000 385.000000 312.000000 -0.095189 334.000000 -0.008433 351.000000 -0.139797 365.000000 -0.145377 14.000000 -0.261126 117.000000 0.921558 153.000000 -0.230686
290242.000000 2.203089 385.000000 372.000000 300.000000 -0.096552 326.000000 -0.059185 351.000000 -0.182557 355.000000 -0.185065 17.000000 -0.135706 121.000000 0.936115 158.000000 -0.191375
291276.000000 2.179325 335.000000 425.000000 336.000000 -0.080656 372.000000 -0.023462 398.000000 -0.175749 405.000000 -0.199873 15.000000 -0.313090 131.000000 0.903978 176.000000 -0.188114
292097.000000 2.276142 396.000000 336.000000 253.000000 -0.187539 284.000000 -0.052303 301.000000 -0.162524 318.000000 -0.142133 15.000000 -0.289470 116.000000 0.952127 155.000000 -0.225224
292433.000000 2.191880 336.000000 343.000000 266.000000 -0.207348 295.000000 -0.072129 317.000000 -0.207662 323.000000 -0.204700 17.000000 -0.186520 114.000000 0.995995 152.000000 -0.215745
292776.000000 2.276931 343.000000 363.000000 250.000000 -0.220719 312.000000 -0.117020 333.000000 -0.238227 346.000000 -0.185140 14.000000 -0.280873 114.000000 0.988053 151.000000 -0.199649
293486.000000 2.161930 347.000000 360.000000 229.000000 -0.249249 303.000000 -0.018999 322.000000 -0.168731 345.000000 -0.229233 18.000000 -0.147224 118.000000 0.937537 157.000000 -0.222872
294212.000000 2.197444 366.000000 360.000000 227.000000 -0.243263 310.000000 -0.056725 326.000000 -0.183181 341.000000 -0.194184 18.000000 -0.164877 118.000000 0.953536 155.000000 -0.223406
294572.000000 2.283135 360.000000 371.000000 241.000000 -0.221233 321.000000 -0.048949 338.000000 -0.186584 353.000000 -0.162164 13.000000 -0.287852 117.000000 0.978691 155.000000 -0.237591
294943.000000 2.226019 371.000000 346.000000 243.000000 -0.203209 297.000000 -0.065564 310.000000 -0.184108 332.000000 -0.169956 14.000000 -0.300059 117.000000 0.966300 156.000000 -0.220333
295289.000000 2.184874 346.000000 340.000000 240.000000 -0.222399 282.000000 -0.034731 304.000000 -0.190985 321.000000 -0.192506 13.000000 -0.335217 115.000000 0.987190 153.000000 -0.242705
295629.000000 2.260801 340.000000 364.000000 282.000000 -0.167901 308.000000 -0.035064 336.000000 -0.218402 343.000000 -0.192634 16.000000 -0.274214 122.000000 0.984714 162.000000 -0.181671
295993.000000 2.253494 364.000000 368.000000 295.000000 -0.119687 315.000000 -0.032727 329.000000 -0.171144 350.000000 -0.182649 6.000000 -0.481082 118.000000 1.009269 156.000000 -0.214871
297039.000000 2.236157 332.000000 344.000000 281.000000 -0.146145 297.000000 -0.064388 307.000000 -0.148526 326.000000 -0.186534 13.000000 -0.248560 109.000000 1.015600 145.000000 -0.210417
297383.000000 2.230721 344.000000 365.000000 256.000000 -0.198574 316.000000 -0.043134 330.000000 -0.175782 348.000000 -0.157929 14.000000 -0.253526 114.000000 0.954130 155.000000 -0.209145
297748.000000 2.199217 365.000000 363.000000 254.000000 -0.273763 307.000000 -0.023119 328.000000 -0.185423 345.000000 -0.201753 15.000000 -0.337726 131.000000 0.892539 180.000000 -0.237132
298111.000000 2.062275 363.000000 318.000000 244.000000 -0.229700 266.000000 -0.105016 283.000000 -0.273495 300.000000 -0.205502 15.000000 -0.319605 129.000000 0.952562 178.000000 -0.210999
298773.000000 2.168606 344.000000 426.000000 346.000000 -0.105171 373.000000 -0.020155 390.000000 -0.162570 408.000000 -0.134923 10.000000 -0.339248 114.000000 0.958809 155.000000 -0.234718
299597.000000 2.146850 398.000000 357.000000 224.000000 -0.243355 305.000000 -0.035250 320.000000 -0.177444 339.000000 -0.184734 12.000000 -0.286710 107.000000 1.005070 152.000000 -0.243563
300389.000000 2.280533 435.000000 445.000000 289.000000 -0.131929 322.000000 -0.060972 332.000000 -0.097523 426.000000 -0.168840 15.000000 -0.293858 124.000000 1.015883 161.000000 -0.163425
301876.000000 2.295170 341.000000 395.000000 304.000000 -0.084324 346.000000 -0.025751 370.000000 -0.171316 378.000000 -0.179420 11.000000 -0.326977 100.000000 1.031810 123.000000 -0.055542
303429.000000 2.251066 371.000000 389.000000 317.000000 -0.079856 341.000000 -0.037586 357.000000 -0.171017 375.000000 -0.142335 13.000000 -0.285377 114.000000 1.024679 152.000000 -0.224302
303818.000000 2.157446 389.000000 374.000000 223.000000 -0.232180 323.000000 -0.025312 352.000000 -0.189308 356.000000 -0.190029 12.000000 -0.286895 115.000000 0.984904 156.000000 -0.217984
305028.000000 2.175265 409.000000 393.000000 327.000000 -0.091378 343.000000 -0.031345 355.000000 -0.130733 374.000000 -0.155500 15.000000 -0.235688 121.000000 0.979077 163.000000 -0.166094
305421.000000 2.127117 393.000000 348.000000 234.000000 -0.229872 298.000000 -0.039403 314.000000 -0.199419 331.000000 -0.198321 15.000000 -0.260217 124.000000 0.964227 157.000000 -0.227375
308434.000000 2.075846 392.000000 394.000000 320.000000 -0.075724 344.000000 -0.018591 361.000000 -0.165173 378.000000 -0.159468 11.000000 -0.326066 116.000000 0.953694 156.000000 -0.227230
308828.000000 2.083904 394.000000 430.000000 346.000000 -0.089751 377.000000 -0.028543 393.000000 -0.144343 412.000000 -0.167021 12.000000 -0.319389 123.000000 0.943983 158.000000 -0.203001
309258.000000 2.153104 430.000000 418.000000 340.000000 -0.129530 366.000000 -0.061160 384.000000 -0.194688 399.000000 -0.203779 14.000000 -0.350862 127.000000 0.946754 164.000000 -0.174557
310398.000000 2.098135 340.000000 342.000000 219.000000 -0.253325 288.000000 0.001535 304.000000 -0.150801 326.000000 -0.194468 13.000000 -0.336270 118.000000 0.962483 157.000000 -0.229880
310740.000000 2.163699 342.000000 404.000000 324.000000 -0.065378 353.000000 -0.010660 369.000000 -0.163401 389.000000 -0.143104 14.000000 -0.344075 132.000000 0.929038 174.000000 -0.173692
311544.000000 2.193762 400.000000 372.000000 299.000000 -0.095486 321.000000 -0.051019 336.000000 -0.162900 353.000000 -0.172367 13.000000 -0.319829 120.000000 0.933441 156.000000 -0.202434
312255.000000 2.135802 339.000000 342.000000 238.000000 -0.214137 296.000000 -0.055360 299.000000 -0.100485 325.000000 -0.153917 13.000000 -0.288538 110.000000 0.959520 147.000000 -0.220593
312597.000000 2.167149 342.000000 362.000000 287.000000 -0.122006 308.000000 -0.026380 330.000000 -0.165142 344.000000 -0.143966 16.000000 -0.116941 114.000000 0.944209 148.000000 -0.204947
314065.000000 1.849252 333.000000 387.000000 321.000000 -0.102193 339.000000 -0.055028 364.000000 -0.185483 369.000000 -0.162286 12.000000 -0.339105 119.000000 0.931527 156.000000 -0.200355
314452.000000 1.866803 387.000000 382.000000 227.000000 -0.226455 288.000000 -0.075545 297.000000 -0.103290 367.000000 -0.082589 16.000000 -0.175910 114.000000 0.875819 155.000000 -0.232678
315996.000000 2.296474 410.000000 368.000000 292.000000 -0.096020 321.000000 -0.078714 337.000000 -0.203149 350.000000 -0.170877 6.000000 -0.540187 111.000000 0.990918 152.000000 -0.228158
316364.000000 2.211082 368.000000 328.000000 246.000000 -0.237492 278.000000 -0.070611 294.000000 -0.223652 311.000000 -0.196836 16.000000 -0.183292 111.000000 0.981480 154.000000 -0.254318
317046.000000 2.324736 354.000000 381.000000 312.000000 -0.140550 334.000000 -0.054766 362.000000 -0.201488 366.000000 -0.200688 12.000000 -0.160607 106.000000 0.988136 152.000000 -0.226931
317427.000000 2.245142 381.000000 363.000000 234.000000 -0.240002 312.000000 -0.043544 327.000000 -0.221976 346.000000 -0.211959 13.000000 -0.344279 126.000000 0.954578 161.000000 -0.194544
319521.000000 2.263810 357.000000 401.000000 326.000000 -0.097694 348.000000 -0.027570 372.000000 -0.170093 380.000000 -0.198650 15.000000 -0.357052 125.000000 0.913748 164.000000 -0.174797
319922.000000 2.236098 401.000000 375.000000 310.000000 -0.134213 330.000000 -0.078227 336.000000 -0.118007 357.000000 -0.196597 16.000000 -0.162977 115.000000 0.993605 153.000000 -0.227096
320297.000000 2.208325 375.000000 335.000000 238.000000 -0.230614 286.000000 -0.050706 311.000000 -0.204672 316.000000 -0.190863 13.000000 -0.334512 111.000000 0.962807 156.000000 -0.242670
321320.000000 2.287540 345.000000 338.000000 238.000000 -0.228150 282.000000 -0.043948 284.000000 -0.072883 321.000000 -0.214530 15.000000 -0.214106 103.000000 0.964695 151.000000 -0.206387
321658.000000 2.150409 338.000000 343.000000 246.000000 -0.234720 286.000000 -0.034640 307.000000 -0.207274 337.000000 0.252398 14.000000 -0.335329 124.000000 0.943006 157.000000 -0.248529
322354.000000 2.259390 353.000000 347.000000 217.000000 -0.241429 298.000000 -0.024467 313.000000 -0.199593 331.000000 -0.196678 12.000000 -0.385441 119.000000 0.959962 154.000000 -0.200724
322701.000000 2.311050 347.000000 365.000000 294.000000 -0.120676 310.000000 -0.067948 332.000000 -0.201756 349.000000 -0.168229 12.000000 -0.351361 120.000000 0.946878 162.000000 -0.190915
323379.000000 2.201899 313.000000 308.000000 229.000000 -0.265737 250.000000 -0.108887 267.000000 -0.239655 291.000000 -0.191660 12.000000 -0.323038 112.000000 1.007020 153.000000 -0.300319
323687.000000 2.187492 308.000000 343.000000 260.000000 -0.196144 290.000000 0.011396 311.000000 -0.164765 320.000000 -0.142227 17.000000 -0.273701 122.000000 0.930251 155.000000 -0.303872
324374.000000 1.941504 344.000000 324.000000 248.000000 -0.248590 276.000000 -0.095422 296.000000 -0.247806 310.000000 -0.195016 15.000000 -0.256554 120.000000 0.858259 161.000000 -0.183417
324698.000000 1.953495 324.000000 369.000000 292.000000 -0.125204 313.000000 -0.080361 333.000000 -0.192399 349.000000 -0.193010 13.000000 -0.380188 118.000000 0.933237 156.000000 -0.209693
325067.000000 2.201143 369.000000 376.000000 295.000000 -0.095517 326.000000 -0.067618 343.000000 -0.173717 359.000000 -0.159860 17.000000 -0.135533 111.000000 0.932591 154.000000 -0.229278
326549.000000 2.275157 390.000000 384.000000 232.000000 -0.253211 331.000000 -0.063496 349.000000 -0.190330 365.000000 -0.202478 16.000000 -0.201552 122.000000 0.950959 170.000000 -0.165122
326933.000000 2.262068 384.000000 397.000000 316.000000 -0.110861 347.000000 -0.057461 364.000000 -0.213794 381.000000 -0.153841 14.000000 -0.269500 121.000000 0.956723 160.000000 -0.204936
327993.000000 2.210831 317.000000 395.000000 319.000000 -0.094028 344.000000 -0.043540 360.000000 -0.202426 379.000000 -0.172788 7.000000 -0.449043 122.000000 0.935529 156.000000 -0.230240
329548.000000 2.257537 359.000000 391.000000 246.000000 -0.211083 289.000000 -0.080578 294.000000 -0.108132 373.000000 -0.126801 15.000000 -0.222055 116.000000 0.998830 156.000000 -0.239352
329939.000000 2.286193 391.000000 376.000000 292.000000 -0.117446 325.000000 -0.051365 351.000000 -0.208151 357.000000 -0.196803 16.000000 -0.101424 102.000000 1.013103 149.000000 -0.201934
330315.000000 2.207444 376.000000 353.000000 247.000000 -0.203617 301.000000 -0.036801 318.000000 -0.206582 333.000000 -0.185737 16.000000 -0.237103 116.000000 0.968143 155.000000 -0.261323
331431.000000 2.238997 389.000000 339.000000 258.000000 -0.215990 289.000000 -0.070346 307.000000 -0.191804 323.000000 -0.180346 14.000000 -0.286490 117.000000 0.961491 156.000000 -0.222977
331770.000000 2.169231 339.000000 312.000000 240.000000 -0.262116 263.000000 -0.131695 277.000000 -0.259264 295.000000 -0.187116 13.000000 -0.355567 112.000000 1.014790 156.000000 -0.287277
332082.000000 2.253054 312.000000 324.000000 220.000000 -0.206972 268.000000 -0.010237 286.000000 -0.144719 306.000000 -0.182131 12.000000 -0.333718 100.000000 1.051516 149.000000 -0.213620
333857.000000 2.156740 424.000000 404.000000 249.000000 -0.213089 310.000000 -0.081788 330.000000 -0.129766 383.000000 -0.174812 12.000000 -0.329622 118.000000 0.954340 157.000000 -0.196021
334261.000000 2.124952 404.000000 365.000000 293.000000 -0.129701 314.000000 -0.041003 330.000000 -0.180581 346.000000 -0.195377 15.000000 -0.204142 103.000000 0.960624 148.000000 -0.226489
335428.000000 2.254313 384.000000 329.000000 259.000000 -0.200157 281.000000 -0.059155 297.000000 -0.219153 309.000000 -0.182036 14.000000 -0.271267 107.000000 1.010282 152.000000 -0.242476
336399.000000 2.241881 335.000000 361.000000 283.000000 -0.102115 306.000000 -0.029561 327.000000 -0.191095 342.000000 -0.191502 14.000000 -0.249702 107.000000 1.002000 153.000000 -0.211702
338549.000000 2.191597 323.000000 348.000000 217.000000 -0.207037 296.000000 0.001771 318.000000 -0.187979 333.000000 -0.158794 12.000000 -0.333447 99.000000 1.019679 139.000000 -0.202471
339306.000000 2.204293 409.000000 382.000000 243.000000 -0.215583 295.000000 -0.072119 321.000000 -0.120834 364.000000 -0.160800 15.000000 -0.262667 122.000000 0.948851 160.000000 -0.197449
340013.000000 2.069403 325.000000 315.000000 234.000000 -0.248417 266.000000 -0.093699 281.000000 -0.257367 300.000000 -0.178430 12.000000 -0.373529 122.000000 0.940400 159.000000 -0.257230
340654.000000 2.163949 326.000000 334.000000 247.000000 -0.206567 279.000000 -0.054468 295.000000 -0.166583 317.000000 -0.156753 14.000000 -0.246318 112.000000 0.911730 145.000000 -0.210977
341331.000000 2.064749 343.000000 355.000000 275.000000 -0.172366 303.000000 -0.039217 320.000000 -0.200941 336.000000 -0.181144 18.000000 -0.153088 119.000000 0.906029 156.000000 -0.228922
341686.000000 2.115000 355.000000 349.000000 257.000000 -0.224920 297.000000 -0.058619 312.000000 -0.196800 331.000000 -0.175139 17.000000 -0.161365 117.000000 0.932326 155.000000 -0.215558
342035.000000 2.136789 349.000000 382.000000 298.000000 -0.110644 331.000000 -0.047665 347.000000 -0.190251 365.000000 -0.166082 16.000000 -0.165984 116.000000 0.913652 157.000000 -0.188562
342417.000000 2.044326 382.000000 340.000000 272.000000 -0.185155 292.000000 -0.070000 309.000000 -0.172460 324.000000 -0.175830 12.000000 -0.333245 117.000000 0.886574 156.000000 -0.210669
343092.000000 2.095391 335.000000 410.000000 338.000000 -0.100108 354.000000 -0.017835 371.000000 -0.133212 391.000000 -0.152759 11.000000 -0.358733 120.000000 0.886714 157.000000 -0.196873
344234.000000 2.033718 336.000000 328.000000 261.000000 -0.182568 280.000000 -0.048430 296.000000 -0.176644 311.000000 -0.151565 14.000000 -0.269574 113.000000 0.907049 156.000000 -0.244569
344562.000000 2.081112 328.000000 327.000000 236.000000 -0.222697 277.000000 -0.036270 292.000000 -0.195534 309.000000 -0.183840 16.000000 -0.150552 108.000000 0.908220 152.000000 -0.228014
345572.000000 1.934140 345.000000 344.000000 256.000000 -0.181900 292.000000 -0.031914 309.000000 -0.172399 325.000000 -0.201647 13.000000 -0.326049 112.000000 0.906456 155.000000 -0.203981
347016.000000 2.002805 337.000000 320.000000 249.000000 -0.235329 270.000000 -0.107114 286.000000 -0.212568 301.000000 -0.207412 14.000000 -0.286663 113.000000 0.916015 156.000000 -0.193310
347731.000000 2.041459 395.000000 359.000000 271.000000 -0.204979 310.000000 -0.057272 334.000000 -0.178243 341.000000 -0.165563 14.000000 -0.321925 124.000000 0.902660 160.000000 -0.175353
348090.000000 2.048576 359.000000 303.000000 234.000000 -0.238260 256.000000 -0.153074 272.000000 -0.273558 286.000000 -0.196960 15.000000 -0.241925 113.000000 0.883361 155.000000 -0.233208
349446.000000 2.052007 362.000000 346.000000 248.000000 -0.221894 294.000000 -0.056376 311.000000 -0.171314 329.000000 -0.190595 10.000000 -0.318745 114.000000 0.854808 155.000000 -0.197452
349792.000000 2.044547 346.000000 406.000000 338.000000 -0.098149 355.000000 -0.035845 374.000000 -0.184623 388.000000 -0.184309 15.000000 -0.259967 121.000000 0.891809 159.000000 -0.196529
350198.000000 2.023858 406.000000 387.000000 317.000000 -0.124029 339.000000 -0.075094 354.000000 -0.195611 371.000000 -0.159185 15.000000 -0.297429 123.000000 0.885599 157.000000 -0.178772
350934.000000 1.883512 349.000000 310.000000 238.000000 -0.224828 263.000000 -0.114498 279.000000 -0.205017 296.000000 -0.149375 12.000000 -0.302194 113.000000 0.849439 155.000000 -0.235781
351551.000000 1.531615 307.000000 376.000000 295.000000 -0.087535 325.000000 -0.025875 343.000000 -0.154684 359.000000 -0.132521 12.000000 -0.223322 101.000000 0.814578 150.000000 -0.177896
351927.000000 1.869796 376.000000 429.000000 348.000000 -0.099153 379.000000 -0.046443 395.000000 -0.186050 411.000000 -0.169639 17.000000 -0.165580 127.000000 0.852654 162.000000 -0.146544
352734.000000 2.015141 378.000000 380.000000 302.000000 -0.089263 328.000000 -0.041850 344.000000 -0.164938 363.000000 -0.129798 14.000000 -0.267272 118.000000 0.904191 163.000000 -0.198051
353114.000000 2.139090 380.000000 371.000000 306.000000 -0.127038 322.000000 -0.084641 338.000000 -0.181051 354.000000 -0.163043 15.000000 -0.151462 115.000000 0.925169 155.000000 -0.210707
353485.000000 2.131631 371.000000 328.000000 263.000000 -0.210266 284.000000 -0.071817 294.000000 -0.192490 312.000000 -0.198681 12.000000 -0.319215 111.000000 0.907448 154.000000 -0.223417
355097.000000 2.035155 308.000000 295.000000 220.000000 -0.216282 244.000000 -0.134200 264.000000 -0.282726 281.000000 -0.183904 11.000000 -0.360894 118.000000 0.876016 155.000000 -0.232132
355661.000000 1.881473 269.000000 256.000000 196.000000 -0.222018 214.000000 -0.151296 237.000000 -0.303977 239.000000 -0.310593 12.000000 -0.354626 112.000000 0.854903 151.000000 -0.257223
356972.000000 2.072490 410.000000 385.000000 308.000000 -0.089294 330.000000 -0.048212 359.000000 -0.159389 365.000000 -0.156159 15.000000 -0.242981 108.000000 0.872969 151.000000 -0.179380
358155.000000 2.094672 402.000000 402.000000 319.000000 -0.095394 347.000000 -0.020739 372.000000 -0.175707 381.000000 -0.169045 13.000000 -0.333714 126.000000 0.854077 164.000000 -0.190638
359384.000000 2.170504 400.000000 395.000000 330.000000 -0.105174 347.000000 -0.047383 363.000000 -0.190769 378.000000 -0.137760 13.000000 -0.284888 120.000000 0.904217 158.000000 -0.216196
360133.000000 2.166035 354.000000 394.000000 281.000000 -0.071898 330.000000 -0.002085 370.000000 -0.164531 375.000000 -0.160597 15.000000 -0.188476 103.000000 0.957340 143.000000 -0.195026
361640.000000 2.026852 337.000000 319.000000 252.000000 -0.218699 270.000000 -0.082226 285.000000 -0.212805 304.000000 -0.163276 13.000000 -0.333539 114.000000 0.898814 163.000000 -0.254682
363466.000000 2.087902 377.000000 354.000000 232.000000 -0.204720 303.000000 -0.040392 319.000000 -0.167414 336.000000 -0.159152 15.000000 -0.215641 110.000000 0.911914 152.000000 -0.173620
364209.000000 2.026649 389.000000 346.000000 290.000000 -0.140451 308.000000 -0.082490 314.000000 -0.138917 328.000000 -0.186879 12.000000 -0.290265 116.000000 0.853586 155.000000 -0.202341
364909.000000 1.931320 354.000000 302.000000 228.000000 -0.231161 251.000000 -0.138526 268.000000 -0.310736 285.000000 -0.244748 12.000000 -0.350561 125.000000 0.868544 163.000000 -0.241974
365211.000000 1.959623 302.000000 284.000000 210.000000 -0.242118 231.000000 -0.107337 246.000000 -0.309125 268.000000 -0.236523 15.000000 -0.291177 116.000000 0.942587 154.000000 -0.283917
365795.000000 2.024611 300.000000 343.000000 270.000000 -0.146566 294.000000 -0.024747 307.000000 -0.173619 326.000000 -0.142335 13.000000 -0.279855 114.000000 0.865072 152.000000 -0.204291
366138.000000 2.154233 343.000000 276.000000 208.000000 -0.232178 227.000000 -0.135688 251.000000 -0.285893 259.000000 -0.249405 13.000000 -0.239139 108.000000 0.887297 142.000000 -0.205975
366414.000000 2.021334 276.000000 268.000000 172.000000 -0.195957 215.000000 -0.157367 231.000000 -0.307447 252.000000 -0.245660 14.000000 -0.252429 107.000000 0.867630 147.000000 -0.284422
367475.000000 2.096020 492.000000 427.000000 273.000000 -0.158134 307.000000 -0.060390 318.000000 -0.070655 409.000000 -0.161833 19.000000 -0.098498 120.000000 0.841111 157.000000 -0.178273
367902.000000 1.985925 427.000000 431.000000 363.000000 -0.100847 382.000000 -0.051632 396.000000 -0.171052 412.000000 -0.147211 17.000000 -0.127869 120.000000 0.851500 156.000000 -0.191810
369155.000000 2.034904 404.000000 434.000000 361.000000 -0.095658 383.000000 -0.020596 404.000000 -0.187836 418.000000 -0.141457 15.000000 -0.334513 131.000000 0.869654 166.000000 -0.163799
369589.000000 2.009405 434.000000 390.000000 239.000000 -0.229515 337.000000 -0.076427 340.000000 -0.086991 372.000000 -0.179561 17.000000 -0.196442 118.000000 0.890619 157.000000 -0.201260
370371.000000 2.095328 392.000000 395.000000 328.000000 -0.133291 344.000000 -0.036098 371.000000 -0.186599 376.000000 -0.201207 17.000000 -0.100049 114.000000 0.913417 149.000000 -0.205310
371577.000000 2.059109 415.000000 388.000000 317.000000 -0.098150 338.000000 -0.034217 363.000000 -0.201065 370.000000 -0.177866 13.000000 -0.318164 120.000000 0.898644 158.000000 -0.218677
373522.000000 2.181146 379.000000 423.000000 358.000000 -0.082868 376.000000 -0.029999 393.000000 -0.188494 405.000000 -0.161143 13.000000 -0.330753 126.000000 0.913159 167.000000 -0.180819
374344.000000 2.228121 399.000000 370.000000 299.000000 -0.113135 321.000000 -0.063180 336.000000 -0.202475 354.000000 -0.164844 11.000000 -0.354575 113.000000 0.960180 154.000000 -0.187112
375053.000000 1.992195 339.000000 325.000000 262.000000 -0.211414 286.000000 -0.093639 291.000000 -0.131209 310.000000 -0.183106 14.000000 -0.248325 111.000000 0.913428 156.000000 -0.243953
375378.000000 2.112444 325.000000 404.000000 326.000000 -0.082352 349.000000 -0.001254 366.000000 -0.129655 384.000000 -0.159813 15.000000 -0.165079 115.000000 0.960872 156.000000 -0.222370
376189.000000 2.045312 407.000000 332.000000 252.000000 -0.223310 288.000000 -0.076381 309.000000 -0.218482 314.000000 -0.195206 14.000000 -0.324046 121.000000 0.910318 169.000000 -0.191652
377302.000000 2.193859 405.000000 381.000000 306.000000 -0.083354 329.000000 -0.027914 349.000000 -0.154372 362.000000 -0.156802 13.000000 -0.270325 117.000000 0.935305 156.000000 -0.216378
377683.000000 2.111521 381.000000 348.000000 244.000000 -0.230564 299.000000 -0.038682 316.000000 -0.224936 332.000000 -0.189043 14.000000 -0.330672 126.000000 0.920378 162.000000 -0.160593
378378.000000 2.044939 347.000000 353.000000 247.000000 -0.211209 301.000000 -0.021006 317.000000 -0.165535 334.000000 -0.195159 13.000000 -0.342444 126.000000 0.921139 164.000000 -0.167463
379107.000000 2.058417 376.000000 352.000000 277.000000 -0.162462 303.000000 -0.074811 320.000000 -0.181803 335.000000 -0.159905 14.000000 -0.289389 111.000000 0.863000 155.000000 -0.232045
379459.000000 2.105253 352.000000 351.000000 240.000000 -0.195489 299.000000 -0.019234 318.000000 -0.138717 331.000000 -0.162730 12.000000 -0.307459 108.000000 0.927380 154.000000 -0.210382
379810.000000 2.044827 351.000000 437.000000 363.000000 -0.090220 386.000000 -0.015411 401.000000 -0.166806 420.000000 -0.154422 16.000000 -0.239265 129.000000 0.890530 173.000000 -0.191756
380639.000000 2.014656 392.000000 355.000000 267.000000 -0.188903 301.000000 -0.017882 334.000000 -0.204889 336.000000 -0.166316 14.000000 -0.269828 120.000000 0.887771 156.000000 -0.184531
380994.000000 1.841758 355.000000 356.000000 248.000000 -0.217743 306.000000 -0.039091 320.000000 -0.213542 339.000000 -0.168982 8.000000 -0.342618 120.000000 0.904452 158.000000 -0.200092
382113.000000 1.804077 383.000000 395.000000 245.000000 -0.239858 339.000000 -0.029621 342.000000 -0.051612 377.000000 -0.187947 14.000000 -0.327114 129.000000 0.849271 179.000000 -0.207548
387024.000000 1.912006 361.000000 329.000000 260.000000 -0.219436 279.000000 -0.068276 296.000000 -0.208307 310.000000 -0.176115 17.000000 -0.188291 118.000000 0.891586 154.000000 -0.191782
387353.000000 1.964498 329.000000 396.000000 316.000000 -0.081913 347.000000 -0.039201 365.000000 -0.143715 379.000000 -0.146222 14.000000 -0.296519 118.000000 0.884456 156.000000 -0.187177
388481.000000 1.512790 349.000000 382.000000 262.000000 -0.209939 329.000000 -0.016899 345.000000 -0.157351 362.000000 -0.186536 16.000000 -0.250752 136.000000 0.800993 179.000000 -0.194111
389236.000000 2.030204 373.000000 393.000000 321.000000 -0.111583 341.000000 -0.050532 357.000000 -0.201221 375.000000 -0.175172 15.000000 -0.292145 121.000000 0.898488 158.000000 -0.191965
390699.000000 2.024937 372.000000 418.000000 344.000000 -0.088150 366.000000 -0.024060 379.000000 -0.136724 397.000000 -0.178963 14.000000 -0.299605 121.000000 0.878855 159.000000 -0.180494
391795.000000 2.017051 308.000000 358.000000 277.000000 -0.135973 308.000000 -0.028763 336.000000 -0.180611 342.000000 -0.151817 13.000000 -0.287448 117.000000 0.913112 161.000000 -0.200363
392153.000000 2.072900 358.000000 372.000000 292.000000 -0.077366 322.000000 -0.059075 338.000000 -0.182101 354.000000 -0.161161 12.000000 -0.338166 113.000000 0.903375 153.000000 -0.190181
392892.000000 1.955045 367.000000 396.000000 313.000000 -0.085989 346.000000 -0.037070 361.000000 -0.158246 379.000000 -0.159813 15.000000 -0.256522 122.000000 0.873214 161.000000 -0.192664
393288.000000 2.019390 396.000000 391.000000 301.000000 -0.087006 339.000000 -0.018354 365.000000 -0.172508 370.000000 -0.156772 16.000000 -0.144763 119.000000 0.844792 156.000000 -0.207182
394691.000000 2.084232 331.000000 356.000000 256.000000 -0.145798 298.000000 -0.026772 308.000000 -0.083825 335.000000 -0.162617 12.000000 -0.295437 105.000000 0.925181 147.000000 -0.158692
395811.000000 2.094910 350.000000 370.000000 297.000000 -0.113244 317.000000 -0.043150 335.000000 -0.167100 352.000000 -0.153152 14.000000 -0.234966 112.000000 0.900847 153.000000 -0.215848
396575.000000 2.119983 394.000000 361.000000 292.000000 -0.137571 322.000000 -0.099216 340.000000 -0.202648 345.000000 -0.168588 14.000000 -0.241616 117.000000 0.924707 157.000000 -0.189522
396936.000000 2.060707 361.000000 357.000000 249.000000 -0.194752 302.000000 -0.027774 319.000000 -0.169249 336.000000 -0.185565 13.000000 -0.115767 110.000000 0.917843 154.000000 -0.219021
397670.000000 2.104187 377.000000 382.000000 301.000000 -0.098886 330.000000 -0.087116 350.000000 -0.202257 367.000000 -0.147851 19.000000 -0.123309 120.000000 0.933486 158.000000 -0.187453
398052.000000 2.141270 382.000000 340.000000 237.000000 -0.212708 290.000000 -0.060422 307.000000 -0.177022 324.000000 -0.163716 16.000000 -0.145846 109.000000 0.921686 154.000000 -0.234347
398392.000000 2.021379 340.000000 306.000000 224.000000 -0.239387 259.000000 -0.122507 273.000000 -0.220564 288.000000 -0.213840 13.000000 -0.314120 111.000000 0.938810 153.000000 -0.245032
399045.000000 2.162994 347.000000 393.000000 320.000000 -0.108384 340.000000 -0.040014 369.000000 -0.178277 374.000000 -0.173386 13.000000 -0.311393 100.000000 0.927846 144.000000 -0.183271
400203.000000 2.114830 362.000000 372.000000 286.000000 -0.102304 316.000000 -0.040515 341.000000 -0.174010 349.000000 -0.196832 13.000000 -0.324730 118.000000 0.914402 154.000000 -0.198466
401267.000000 2.066944 324.000000 384.000000 303.000000 -0.092115 326.000000 -0.022821 343.000000 -0.152869 366.000000 -0.184214 13.000000 -0.228855 116.000000 0.926243 153.000000 -0.202599
402056.000000 2.131617 405.000000 377.000000 294.000000 -0.098528 335.000000 -0.052664 355.000000 -0.205861 359.000000 -0.185376 13.000000 -0.304245 113.000000 0.910935 155.000000 -0.199141
403915.000000 2.034797 385.000000 373.000000 265.000000 -0.213321 323.000000 -0.027366 341.000000 -0.187083 355.000000 -0.177177 14.000000 -0.346109 130.000000 0.899362 181.000000 -0.191256
406491.000000 2.070861 408.000000 410.000000 337.000000 -0.116395 362.000000 -0.062117 374.000000 -0.174263 389.000000 -0.201992 14.000000 -0.301976 123.000000 0.900364 161.000000 -0.162911
407281.000000 2.140722 380.000000 390.000000 251.000000 -0.190112 299.000000 -0.088807 311.000000 -0.107978 374.000000 -0.135688 13.000000 -0.308811 119.000000 0.925764 156.000000 -0.190803
407671.000000 2.201035 390.000000 391.000000 331.000000 -0.094951 347.000000 -0.022490 358.000000 -0.130029 373.000000 -0.155611 13.000000 -0.267128 97.000000 0.944293 149.000000 -0.183742
408062.000000 2.068840 391.000000 419.000000 351.000000 -0.076802 369.000000 -0.023307 386.000000 -0.160814 401.000000 -0.160141 16.000000 -0.273653 131.000000 0.876557 185.000000 -0.231324
409281.000000 2.008152 400.000000 352.000000 266.000000 -0.187945 303.000000 -0.063886 329.000000 -0.197397 336.000000 -0.177256 14.000000 -0.302506 117.000000 0.876935 153.000000 -0.185433
409633.000000 2.049940 352.000000 345.000000 240.000000 -0.210748 299.000000 -0.067068 304.000000 -0.083212 324.000000 -0.208936 13.000000 -0.318679 112.000000 0.984575 150.000000 -0.209223
409978.000000 2.092773 345.000000 412.000000 344.000000 -0.087446 361.000000 -0.021773 376.000000 -0.169171 396.000000 -0.202932 14.000000 -0.248950 123.000000 0.909227 164.000000 -0.152025
411470.000000 2.097885 348.000000 344.000000 233.000000 -0.210876 291.000000 -0.065830 306.000000 -0.200093 327.000000 -0.149029 14.000000 -0.281469 118.000000 0.912519 156.000000 -0.216859
412867.000000 2.118762 393.000000 366.000000 255.000000 -0.192698 322.000000 -0.042569 332.000000 -0.150689 349.000000 -0.192210 14.000000 -0.323183 124.000000 0.864375 157.000000 -0.203887
413233.000000 2.040158 366.000000 330.000000 237.000000 -0.243400 280.000000 -0.078527 295.000000 -0.219342 314.000000 -0.164216 13.000000 -0.343589 124.000000 0.901404 159.000000 -0.206309
413563.000000 2.153934 330.000000 341.000000 265.000000 -0.184249 293.000000 -0.040879 318.000000 -0.192774 324.000000 -0.179685 11.000000 -0.323262 117.000000 0.910966 155.000000 -0.224346
414241.000000 2.169169 337.000000 335.000000 254.000000 -0.249911 281.000000 -0.065613 296.000000 -0.194358 320.000000 -0.235925 13.000000 -0.356741 129.000000 0.888194 185.000000 -0.226918
414576.000000 2.015751 335.000000 316.000000 234.000000 -0.251881 263.000000 -0.124779 280.000000 -0.264482 299.000000 -0.212476 14.000000 -0.411897 131.000000 0.899526 175.000000 -0.242293
416091.000000 2.151535 281.000000 296.000000 236.000000 -0.275248 259.000000 -0.156612 276.000000 -0.235438 280.000000 -0.224404 17.000000 -0.157229 115.000000 0.941732 153.000000 -0.257621
417106.000000 2.203543 377.000000 326.000000 240.000000 -0.238853 276.000000 -0.103038 293.000000 -0.216048 310.000000 -0.165330 13.000000 -0.330704 120.000000 0.893656 154.000000 -0.203619
417432.000000 2.061927 326.000000 310.000000 239.000000 -0.179814 256.000000 -0.079328 273.000000 -0.219907 295.000000 -0.188012 15.000000 -0.242135 111.000000 0.940950 154.000000 -0.228186
417742.000000 2.168524 310.000000 336.000000 261.000000 -0.214324 282.000000 -0.058775 304.000000 -0.200688 321.000000 -0.187320 15.000000 -0.250032 115.000000 0.897528 154.000000 -0.227659
418433.000000 2.210300 355.000000 306.000000 225.000000 -0.217331 253.000000 -0.107615 267.000000 -0.233856 289.000000 -0.188293 12.000000 -0.275262 103.000000 0.919484 138.000000 -0.172760
418739.000000 1.972928 306.000000 315.000000 239.000000 -0.234044 263.000000 -0.092211 280.000000 -0.226067 295.000000 -0.200596 13.000000 -0.350082 114.000000 0.903190 158.000000 -0.276775
419054.000000 2.068340 315.000000 327.000000 241.000000 -0.225768 272.000000 -0.077806 295.000000 -0.233856 312.000000 -0.228951 17.000000 -0.205156 123.000000 0.933306 157.000000 -0.171127
419710.000000 2.278918 329.000000 294.000000 219.000000 -0.271913 240.000000 -0.159407 263.000000 -0.291396 287.000000 -0.121256 13.000000 -0.300737 115.000000 0.924263 154.000000 -0.264122
422175.000000 2.197243 387.000000 355.000000 255.000000 -0.235457 307.000000 -0.054638 334.000000 -0.193276 340.000000 -0.178668 12.000000 -0.322366 116.000000 0.944774 155.000000 -0.234566
422530.000000 2.203278 355.000000 380.000000 229.000000 -0.212393 337.000000 -0.068808 352.000000 -0.213433 367.000000 -0.180267 18.000000 -0.096456 114.000000 0.946651 153.000000 -0.229932
422910.000000 2.143795 380.000000 423.000000 352.000000 -0.094312 369.000000 -0.011193 391.000000 -0.164090 407.000000 -0.184092 11.000000 -0.346876 114.000000 0.895072 153.000000 -0.208568
425189.000000 1.621081 362.000000 408.000000 336.000000 -0.103542 359.000000 -0.033479 361.000000 -0.064201 389.000000 -0.158682 13.000000 -0.244562 120.000000 0.800870 162.000000 -0.156743
425597.000000 2.049671 408.000000 380.000000 302.000000 -0.119829 328.000000 -0.018483 356.000000 -0.208669 363.000000 -0.176176 13.000000 -0.351396 124.000000 0.930560 169.000000 -0.211727
425977.000000 1.954529 380.000000 354.000000 242.000000 -0.223810 303.000000 -0.042055 318.000000 -0.196380 337.000000 -0.187805 12.000000 -0.356303 122.000000 0.916966 158.000000 -0.177011
427074.000000 2.086706 370.000000 327.000000 238.000000 -0.178275 273.000000 0.000499 290.000000 -0.183872 306.000000 -0.193980 14.000000 -0.240189 105.000000 0.946767 148.000000 -0.201005
428605.000000 2.140878 406.000000 398.000000 326.000000 -0.083713 350.000000 -0.055672 362.000000 -0.158587 392.000000 -0.072286 17.000000 -0.161975 116.000000 0.942341 154.000000 -0.208724
429003.000000 2.187337 398.000000 377.000000 308.000000 -0.116788 331.000000 -0.057994 354.000000 -0.180360 359.000000 -0.188572 10.000000 -0.343743 114.000000 0.949088 153.000000 -0.226917
430615.000000 2.155987 387.000000 407.000000 325.000000 -0.081568 356.000000 -0.041800 384.000000 -0.197005 389.000000 -0.189874 14.000000 -0.260939 115.000000 0.966280 154.000000 -0.236288
431022.000000 2.154875 407.000000 408.000000 252.000000 -0.244532 304.000000 -0.053935 314.000000 -0.077350 390.000000 -0.153135 18.000000 -0.137885 118.000000 0.934947 156.000000 -0.236197
431823.000000 2.219797 393.000000 449.000000 293.000000 -0.112883 324.000000 -0.029636 334.000000 -0.063288 433.000000 -0.153119 13.000000 -0.353135 127.000000 0.962703 169.000000 -0.173956
432662.000000 2.223071 390.000000 363.000000 230.000000 -0.202667 312.000000 -0.071870 335.000000 -0.204910 347.000000 -0.189596 13.000000 -0.171631 110.000000 0.986498 154.000000 -0.246979
433025.000000 2.181252 363.000000 396.000000 325.000000 -0.117193 346.000000 -0.047601 365.000000 -0.213589 378.000000 -0.192053 14.000000 -0.272478 118.000000 0.983250 157.000000 -0.228018
433421.000000 2.167585 396.000000 396.000000 321.000000 -0.094954 340.000000 -0.028637 362.000000 -0.172115 377.000000 -0.171299 13.000000 -0.355144 118.000000 0.986548 155.000000 -0.201911
434600.000000 2.232414 389.000000 371.000000 251.000000 -0.234075 313.000000 -0.068024 335.000000 -0.187304 352.000000 -0.199280 13.000000 -0.327038 125.000000 0.942401 162.000000 -0.166140
435698.000000 2.337570 382.000000 391.000000 317.000000 -0.102477 337.000000 -0.014061 358.000000 -0.192306 375.000000 -0.203905 16.000000 -0.167009 111.000000 0.999223 150.000000 -0.168347
436472.000000 2.254859 383.000000 365.000000 257.000000 -0.203810 313.000000 -0.061818 329.000000 -0.202444 345.000000 -0.196863 14.000000 -0.274092 116.000000 1.010593 156.000000 -0.240222
436837.000000 2.302100 365.000000 362.000000 285.000000 -0.123841 313.000000 -0.038842 338.000000 -0.201755 344.000000 -0.163385 16.000000 -0.174532 115.000000 0.990963 155.000000 -0.217669
437929.000000 2.300956 359.000000 403.000000 327.000000 -0.094797 350.000000 -0.030926 370.000000 -0.188512 384.000000 -0.168402 11.000000 -0.348277 103.000000 0.972109 148.000000 -0.235149
438332.000000 2.204186 403.000000 372.000000 267.000000 -0.214500 318.000000 -0.059203 329.000000 -0.146333 349.000000 -0.218464 15.000000 -0.353182 127.000000 0.914678 166.000000 -0.176763
438704.000000 2.163747 372.000000 359.000000 255.000000 -0.207600 307.000000 -0.057663 324.000000 -0.185939 341.000000 -0.177633 15.000000 -0.307505 120.000000 0.980873 161.000000 -0.212733
439063.000000 2.233560 359.000000 337.000000 260.000000 -0.161613 289.000000 -0.050358 306.000000 -0.205029 320.000000 -0.171093 17.000000 -0.135514 109.000000 0.970151 151.000000 -0.209555
439400.000000 2.301161 337.000000 337.000000 243.000000 -0.234498 287.000000 -0.064056 295.000000 -0.117708 320.000000 -0.174762 15.000000 -0.236175 113.000000 0.988195 155.000000 -0.224436
440051.000000 2.245831 314.000000 356.000000 242.000000 -0.167302 302.000000 -0.037008 325.000000 -0.220079 339.000000 -0.170079 13.000000 -0.287918 99.000000 1.052653 142.000000 -0.197611
