77.000000 1.088903 77.000000 293.000000 198.000000 -0.031910 231.000000 0.106620 237.000000 0.083861 277.000000 -0.051988 12.000000 -0.081900 129.000000 0.061707 152.000000 -0.003777
370.000000 1.250517 293.000000 293.000000 207.000000 0.001857 233.000000 0.128191 241.000000 0.067328 274.000000 -0.025260 15.000000 -0.075865 131.000000 0.031222 142.000000 -0.005894
1231.000000 1.154342 284.000000 284.000000 199.000000 0.013456 234.000000 0.145069 255.000000 -0.038254 268.000000 -0.063944 13.000000 -0.064140 137.000000 0.037068 152.000000 -0.014042
1515.000000 1.209975 284.000000 294.000000 200.000000 -0.007834 231.000000 0.119503 245.000000 0.098280 273.000000 -0.032175 12.000000 -0.069480 130.000000 0.053272 157.000000 -0.019906
1809.000000 1.252264 294.000000 236.000000 143.000000 0.024486 176.000000 0.130538 191.000000 -0.004351 222.000000 -0.145748 16.000000 -0.064618 123.000000 0.036161 129.000000 0.027353
2706.000000 1.224634 303.000000 292.000000 208.000000 -0.019544 245.000000 0.125755 263.000000 -0.037270 285.000000 -0.086076 11.000000 -0.080165 127.000000 0.061936 151.000000 0.000465
2998.000000 1.234223 292.000000 285.000000 206.000000 0.006532 237.000000 0.128381 250.000000 -0.001524 267.000000 -0.026601 4.000000 -0.015542 123.000000 0.053198 132.000000 0.000910
3560.000000 1.148221 277.000000 303.000000 204.000000 -0.003639 251.000000 0.116316 262.000000 -0.024076 286.000000 -0.050784 13.000000 -0.059648 132.000000 0.048426 155.000000 -0.001696
4466.000000 1.120972 295.000000 299.000000 213.000000 -0.008428 234.000000 0.117593 260.000000 -0.022673 281.000000 -0.026972 12.000000 -0.081492 125.000000 0.043259 149.000000 0.006582
5918.000000 1.222405 284.000000 297.000000 206.000000 -0.012161 227.000000 0.121052 237.000000 0.086021 279.000000 -0.052582 12.000000 -0.077519 132.000000 0.055433 154.000000 -0.008170
6527.000000 1.187511 312.000000 297.000000 195.000000 -0.003098 244.000000 0.119646 257.000000 -0.027472 282.000000 -0.135157 12.000000 -0.071142 128.000000 0.046564 147.000000 -0.010535
7106.000000 1.254570 282.000000 287.000000 196.000000 -0.018731 236.000000 0.104078 250.000000 -0.056125 269.000000 -0.146923 12.000000 -0.070714 119.000000 0.057818 153.000000 -0.031665
7670.000000 1.191494 277.000000 283.000000 198.000000 0.006341 216.000000 0.119474 226.000000 0.107232 268.000000 -0.068355 15.000000 -0.061015 161.000000 0.023830 174.000000 0.003752
7953.000000 1.257897 283.000000 293.000000 198.000000 -0.003220 244.000000 0.130584 254.000000 -0.032331 276.000000 -0.118692 14.000000 -0.064332 131.000000 0.050803 154.000000 -0.018007
8539.000000 1.244169 293.000000 298.000000 212.000000 0.003875 247.000000 0.137640 278.000000 -0.054242 283.000000 -0.093756 12.000000 -0.068196 136.000000 0.047335 156.000000 0.005970
8837.000000 1.157656 298.000000 305.000000 200.000000 0.005517 242.000000 0.120897 249.000000 0.076352 291.000000 -0.115450 13.000000 -0.090524 139.000000 0.052301 154.000000 -0.001492
9710.000000 1.204140 278.000000 288.000000 197.000000 -0.003845 227.000000 0.120947 234.000000 0.082561 281.000000 -0.100193 12.000000 -0.059311 120.000000 0.057340 155.000000 -0.000970
9998.000000 1.171361 288.000000 285.000000 200.000000 -0.018954 234.000000 0.118894 246.000000 -0.017720 267.000000 -0.067359 4.000000 0.127380 125.000000 0.053311 137.000000 -0.000545
10591.000000 1.318820 308.000000 304.000000 212.000000 -0.010144 235.000000 0.114572 248.000000 0.074775 289.000000 -0.129422 13.000000 -0.070772 132.000000 0.049849 156.000000 0.000710
11191.000000 1.184650 296.000000 289.000000 207.000000 -0.004375 241.000000 0.111106 252.000000 -0.017592 275.000000 -0.101857 15.000000 -0.073952 121.000000 0.064472 132.000000 0.032417
11480.000000 1.252438 289.000000 301.000000 212.000000 -0.035329 252.000000 0.136067 262.000000 -0.003870 281.000000 -0.018670 14.000000 -0.078110 132.000000 0.049637 153.000000 -0.018794
11781.000000 1.387862 301.000000 285.000000 200.000000 -0.015182 220.000000 0.129148 234.000000 0.122377 272.000000 -0.114447 14.000000 -0.075694 113.000000 0.043150 152.000000 -0.032928
12066.000000 1.197888 285.000000 285.000000 187.000000 -0.018450 234.000000 0.112368 250.000000 -0.048478 268.000000 -0.149213 11.000000 -0.064635 116.000000 0.057712 149.000000 -0.021349
12645.000000 1.263466 294.000000 305.000000 231.000000 0.081841 255.000000 0.124567 266.000000 -0.033394 289.000000 -0.127578 13.000000 -0.071501 137.000000 0.043406 155.000000 -0.012270
13562.000000 1.214602 295.000000 280.000000 191.000000 0.004755 221.000000 0.136828 230.000000 0.110026 263.000000 -0.027172 15.000000 -0.070287 137.000000 0.030015 150.000000 0.008512
13842.000000 1.269093 280.000000 289.000000 205.000000 0.009049 224.000000 0.143691 235.000000 0.103456 275.000000 -0.131029 11.000000 -0.170830 127.000000 0.048414 143.000000 -0.009813
14131.000000 1.249799 289.000000 292.000000 206.000000 0.005581 247.000000 0.146081 255.000000 -0.000128 278.000000 -0.100755 13.000000 -0.068964 132.000000 0.040783 152.000000 -0.015015
14423.000000 1.122538 292.000000 288.000000 199.000000 -0.020174 226.000000 0.105627 236.000000 0.088056 273.000000 -0.093511 10.000000 -0.069468 122.000000 0.042823 142.000000 -0.018856
15310.000000 1.177795 298.000000 297.000000 200.000000 -0.018225 249.000000 0.140337 265.000000 -0.022328 284.000000 -0.138211 12.000000 -0.081596 130.000000 0.049213 153.000000 -0.000237
15607.000000 1.128431 297.000000 293.000000 211.000000 0.011917 234.000000 0.115209 247.000000 0.060678 272.000000 -0.027668 12.000000 -0.075051 133.000000 0.043418 148.000000 -0.016658
16183.000000 1.352852 283.000000 282.000000 193.000000 -0.023443 237.000000 0.109383 248.000000 -0.028738 266.000000 -0.084135 15.000000 -0.080850 120.000000 0.027429 129.000000 -0.005298
16755.000000 1.144605 290.000000 303.000000 211.000000 -0.028126 250.000000 0.124195 264.000000 -0.022014 290.000000 -0.142093 14.000000 -0.083857 136.000000 0.048185 159.000000 -0.004636
17058.000000 1.211339 303.000000 301.000000 212.000000 -0.004404 251.000000 0.134185 267.000000 -0.023761 285.000000 -0.092553 13.000000 -0.064793 133.000000 0.053505 151.000000 0.005028
17657.000000 1.304668 298.000000 290.000000 204.000000 -0.022211 224.000000 0.119386 234.000000 0.088398 272.000000 -0.032714 16.000000 -0.067292 121.000000 0.029232 153.000000 -0.015296
17947.000000 1.166502 290.000000 280.000000 196.000000 -0.016734 216.000000 0.104312 221.000000 0.079531 264.000000 -0.146853 11.000000 -0.075849 116.000000 0.052482 154.000000 -0.033866
18227.000000 1.177220 280.000000 287.000000 200.000000 -0.004893 236.000000 0.141185 248.000000 -0.027578 267.000000 -0.048221 12.000000 -0.072060 122.000000 0.064879 156.000000 -0.018021
18514.000000 1.164760 287.000000 282.000000 196.000000 0.000294 231.000000 0.123236 257.000000 -0.027984 264.000000 -0.099393 11.000000 -0.073153 116.000000 0.046669 153.000000 -0.016847
19989.000000 1.111506 295.000000 283.000000 199.000000 -0.009459 232.000000 0.121439 243.000000 -0.022400 265.000000 -0.042274 11.000000 -0.062066 137.000000 0.031378 154.000000 -0.020194
20554.000000 1.263571 282.000000 284.000000 198.000000 0.015099 232.000000 0.142987 248.000000 -0.022375 265.000000 -0.023068 13.000000 -0.076634 123.000000 0.045987 141.000000 0.001834
21131.000000 1.126577 293.000000 293.000000 211.000000 -0.001487 230.000000 0.113385 245.000000 0.109826 277.000000 -0.081100 13.000000 -0.091195 129.000000 0.049566 141.000000 0.026055
21729.000000 1.257403 305.000000 301.000000 210.000000 -0.004651 246.000000 0.122266 262.000000 -0.028641 288.000000 -0.168333 13.000000 -0.057648 125.000000 0.058620 153.000000 0.002649
22321.000000 1.143016 291.000000 282.000000 186.000000 0.002773 218.000000 0.109941 232.000000 0.058826 267.000000 -0.070639 12.000000 -0.083616 121.000000 0.028428 126.000000 -0.001085
22603.000000 1.213768 282.000000 278.000000 195.000000 0.007235 230.000000 0.147722 241.000000 0.018068 265.000000 -0.131398 12.000000 -0.070995 115.000000 0.054439 130.000000 -0.001035
22881.000000 1.268980 278.000000 283.000000 193.000000 -0.006589 232.000000 0.116451 250.000000 -0.033547 268.000000 -0.062309 10.000000 -0.069843 119.000000 0.046646 123.000000 0.012100
23164.000000 1.153932 283.000000 290.000000 194.000000 -0.012465 220.000000 0.103746 260.000000 -0.048509 274.000000 -0.069998 10.000000 -0.059468 124.000000 0.052002 154.000000 -0.016587
24053.000000 1.247814 296.000000 293.000000 202.000000 0.006204 244.000000 0.134634 256.000000 0.002707 278.000000 -0.094703 15.000000 -0.065819 129.000000 0.046259 153.000000 -0.001016
25485.000000 1.167209 287.000000 295.000000 198.000000 -0.012601 244.000000 0.101635 256.000000 -0.021248 279.000000 -0.104287 12.000000 -0.066477 131.000000 0.044311 154.000000 -0.024295
26387.000000 1.177495 298.000000 284.000000 194.000000 -0.030600 237.000000 0.153813 249.000000 -0.027754 269.000000 -0.087972 13.000000 -0.083681 123.000000 0.030710 141.000000 0.007700
26952.000000 1.294202 281.000000 286.000000 201.000000 0.003465 225.000000 0.130032 240.000000 0.116770 266.000000 -0.041475 12.000000 -0.080690 122.000000 0.039555 136.000000 0.010733
27536.000000 1.168777 298.000000 297.000000 207.000000 -0.014257 234.000000 0.124803 243.000000 0.074268 277.000000 -0.018652 14.000000 -0.044730 126.000000 0.056127 158.000000 -0.024027
27833.000000 1.266312 297.000000 300.000000 199.000000 -0.012023 249.000000 0.119888 265.000000 -0.045990 283.000000 -0.178561 14.000000 -0.114960 129.000000 0.042618 150.000000 -0.024749
28431.000000 1.250075 298.000000 296.000000 193.000000 -0.003461 244.000000 0.134315 256.000000 -0.008615 282.000000 -0.131674 12.000000 -0.078905 131.000000 0.051007 154.000000 -0.007692
28727.000000 1.119797 296.000000 288.000000 197.000000 0.007050 224.000000 0.121496 253.000000 -0.024993 273.000000 -0.234050 12.000000 -0.083653 119.000000 0.047575 184.000000 -0.003465
29294.000000 1.251619 279.000000 287.000000 199.000000 -0.017432 240.000000 0.115515 250.000000 -0.050300 266.000000 -0.044266 11.000000 -0.069011 127.000000 0.040497 153.000000 -0.015565
29873.000000 1.234686 292.000000 309.000000 222.000000 -0.004889 256.000000 0.109534 278.000000 -0.045042 292.000000 -0.041028 13.000000 -0.098792 140.000000 0.042159 155.000000 0.002270
30182.000000 1.229146 309.000000 305.000000 215.000000 -0.006931 254.000000 0.129042 268.000000 -0.036709 287.000000 -0.049201 12.000000 -0.075540 132.000000 0.051880 155.000000 -0.003183
30487.000000 1.296474 305.000000 293.000000 206.000000 0.005498 243.000000 0.125231 255.000000 -0.012871 275.000000 -0.061050 14.000000 -0.072536 128.000000 0.052491 154.000000 -0.020518
31065.000000 1.223910 285.000000 284.000000 199.000000 0.015414 222.000000 0.134053 229.000000 0.102831 264.000000 -0.033765 14.000000 -0.075305 121.000000 0.049328 136.000000 0.008760
32836.000000 1.254576 305.000000 291.000000 208.000000 -0.025054 228.000000 0.115903 240.000000 0.081923 277.000000 -0.157652 14.000000 -0.093231 124.000000 0.046667 148.000000 -0.018915
33127.000000 1.259590 291.000000 277.000000 194.000000 -0.005491 218.000000 0.127627 222.000000 0.091687 260.000000 -0.024648 13.000000 -0.087759 117.000000 0.035034 154.000000 -0.033003
34274.000000 1.240939 293.000000 301.000000 209.000000 0.003054 235.000000 0.138760 260.000000 -0.012855 285.000000 -0.079546 11.000000 -0.098813 139.000000 0.036750 150.000000 -0.013280
34575.000000 1.327931 301.000000 295.000000 213.000000 0.017673 247.000000 0.132454 257.000000 -0.005350 280.000000 -0.081524 14.000000 -0.078604 126.000000 0.049723 171.000000 -0.014514
34870.000000 1.274418 295.000000 298.000000 209.000000 0.009841 249.000000 0.131226 267.000000 -0.035686 283.000000 -0.090716 11.000000 -0.059264 125.000000 0.044451 128.000000 0.026159
35168.000000 1.196699 298.000000 287.000000 202.000000 -0.015169 223.000000 0.117871 232.000000 0.063529 272.000000 -0.044808 15.000000 -0.060121 128.000000 0.031469 145.000000 0.000529
35455.000000 1.243235 287.000000 282.000000 197.000000 -0.001087 235.000000 0.136124 246.000000 -0.029862 264.000000 -0.049439 13.000000 -0.076701 123.000000 0.040567 130.000000 0.024422
36016.000000 1.251111 279.000000 294.000000 206.000000 -0.017067 245.000000 0.105664 256.000000 -0.035528 279.000000 -0.160355 16.000000 -0.091848 120.000000 0.057928 153.000000 -0.011618
36605.000000 1.276054 295.000000 311.000000 215.000000 -0.004652 257.000000 0.130866 271.000000 -0.029386 295.000000 -0.077080 13.000000 -0.088996 138.000000 0.050731 156.000000 0.001046
36916.000000 1.298283 311.000000 299.000000 211.000000 0.000834 246.000000 0.124908 261.000000 -0.038149 285.000000 -0.129386 13.000000 -0.071578 120.000000 0.047641 153.000000 -0.029423
37215.000000 1.202071 299.000000 285.000000 197.000000 -0.025244 235.000000 0.115115 244.000000 -0.031172 271.000000 -0.101018 13.000000 -0.066645 116.000000 0.035562 140.000000 0.013997
38071.000000 1.274261 288.000000 285.000000 193.000000 -0.020691 225.000000 0.126348 254.000000 -0.020908 271.000000 -0.102631 13.000000 -0.079468 123.000000 0.050031 159.000000 0.009229
38356.000000 1.159812 285.000000 296.000000 210.000000 -0.002034 234.000000 0.108559 240.000000 0.085675 279.000000 -0.147183 12.000000 -0.071961 127.000000 0.053246 154.000000 -0.015813
38950.000000 1.239176 298.000000 302.000000 206.000000 0.006922 235.000000 0.127800 243.000000 0.085197 288.000000 -0.187949 12.000000 -0.072767 126.000000 0.055193 153.000000 -0.001064
39252.000000 1.225298 302.000000 296.000000 206.000000 -0.024846 246.000000 0.110773 261.000000 -0.026372 280.000000 -0.120867 10.000000 -0.045374 130.000000 0.055914 156.000000 -0.003306
40096.000000 1.247580 270.000000 286.000000 199.000000 0.004813 236.000000 0.129423 253.000000 -0.015014 270.000000 -0.068882 13.000000 -0.043425 120.000000 0.046638 152.000000 -0.007964
40382.000000 1.177575 286.000000 296.000000 203.000000 -0.030967 231.000000 0.121763 240.000000 0.103410 282.000000 -0.170717 12.000000 -0.090452 130.000000 0.041611 153.000000 -0.007383
40970.000000 1.204836 292.000000 302.000000 206.000000 -0.002442 250.000000 0.122452 265.000000 -0.031403 285.000000 -0.168707 12.000000 -0.100101 131.000000 0.047599 153.000000 -0.000315
41567.000000 1.183542 295.000000 283.000000 196.000000 -0.010695 217.000000 0.115852 227.000000 0.079834 264.000000 -0.033344 15.000000 -0.074249 115.000000 0.059016 130.000000 0.011241
42117.000000 1.227046 267.000000 299.000000 204.000000 -0.019312 236.000000 0.114038 248.000000 0.092440 278.000000 -0.041480 11.000000 -0.088015 122.000000 0.050069 155.000000 -0.040152
42416.000000 1.323915 299.000000 282.000000 196.000000 0.000259 234.000000 0.112560 243.000000 0.011997 267.000000 -0.147121 14.000000 -0.075598 118.000000 0.040411 132.000000 -0.017582
43307.000000 1.256305 310.000000 297.000000 211.000000 0.008231 247.000000 0.123998 258.000000 -0.015750 280.000000 -0.062096 12.000000 -0.054529 132.000000 0.047315 156.000000 -0.008356
44172.000000 1.215035 279.000000 284.000000 198.000000 0.010396 220.000000 0.132890 238.000000 0.093375 267.000000 -0.110368 14.000000 -0.070580 116.000000 0.056042 133.000000 0.013553
44743.000000 1.232936 287.000000 287.000000 201.000000 0.003109 222.000000 0.116121 253.000000 -0.036359 270.000000 -0.028759 13.000000 -0.065747 119.000000 0.053835 134.000000 -0.007150
45030.000000 1.179074 287.000000 293.000000 209.000000 -0.013974 228.000000 0.101562 234.000000 0.087157 278.000000 -0.130053 12.000000 -0.068231 131.000000 0.060410 146.000000 0.008342
45323.000000 1.188976 293.000000 305.000000 196.000000 -0.027886 240.000000 0.122541 248.000000 0.092008 291.000000 -0.151660 15.000000 -0.061326 138.000000 0.059382 153.000000 0.002708
45628.000000 1.259031 305.000000 297.000000 203.000000 -0.014963 248.000000 0.128844 258.000000 -0.032522 284.000000 -0.107558 14.000000 -0.060280 134.000000 0.057676 157.000000 0.001881
45925.000000 1.136406 297.000000 279.000000 198.000000 -0.009050 216.000000 0.099209 228.000000 0.068659 262.000000 -0.102376 10.000000 -0.065067 113.000000 0.042731 125.000000 0.039409
46204.000000 1.207060 279.000000 275.000000 197.000000 0.001741 230.000000 0.137228 253.000000 -0.048260 259.000000 -0.060658 12.000000 -0.091794 111.000000 0.043637 140.000000 0.019045
47037.000000 1.138723 277.000000 298.000000 201.000000 0.002972 245.000000 0.111557 259.000000 -0.028864 281.000000 -0.070354 13.000000 -0.083517 130.000000 0.041144 146.000000 -0.015314
48202.000000 1.143248 282.000000 284.000000 204.000000 -0.002896 236.000000 0.134091 260.000000 -0.015457 268.000000 -0.104877 13.000000 -0.070152 122.000000 0.018611 128.000000 0.010084
48486.000000 1.211264 284.000000 280.000000 181.000000 0.002937 229.000000 0.132706 245.000000 -0.028862 263.000000 -0.059854 11.000000 -0.074646 114.000000 0.049483 155.000000 -0.026972
48766.000000 1.255989 280.000000 274.000000 172.000000 -0.014902 211.000000 0.117733 221.000000 0.082184 254.000000 -0.037739 12.000000 -0.082557 110.000000 0.048853 127.000000 0.003839
49040.000000 1.196788 274.000000 283.000000 197.000000 -0.001513 232.000000 0.113284 242.000000 -0.012155 265.000000 -0.023522 16.000000 -0.061191 118.000000 0.039248 135.000000 -0.013353
49323.000000 1.215863 283.000000 295.000000 205.000000 -0.002508 244.000000 0.127055 253.000000 -0.015924 280.000000 -0.098116 18.000000 -0.078155 130.000000 0.043947 140.000000 0.001721
49618.000000 1.205036 295.000000 305.000000 212.000000 -0.005044 254.000000 0.132497 264.000000 -0.029007 286.000000 -0.046922 14.000000 -0.051029 128.000000 0.056847 152.000000 -0.002306
49923.000000 1.215289 305.000000 291.000000 204.000000 -0.008508 242.000000 0.123841 265.000000 -0.028137 277.000000 -0.133012 13.000000 -0.092909 130.000000 0.054325 152.000000 -0.006676
50214.000000 1.200656 291.000000 277.000000 188.000000 -0.015992 218.000000 0.113959 233.000000 0.073318 259.000000 -0.025350 13.000000 -0.084233 132.000000 0.036646 157.000000 -0.000379
50491.000000 1.205371 277.000000 280.000000 196.000000 0.006426 234.000000 0.134939 245.000000 -0.006815 262.000000 -0.028632 14.000000 -0.074692 132.000000 0.041155 151.000000 0.001675
50771.000000 1.261009 280.000000 285.000000 199.000000 0.002916 218.000000 0.121757 228.000000 0.071051 264.000000 -0.040279 13.000000 -0.055182 120.000000 0.049727 152.000000 -0.009280
51056.000000 1.199660 285.000000 284.000000 196.000000 0.005298 231.000000 0.119684 262.000000 -0.034661 267.000000 -0.144270 12.000000 -0.073225 119.000000 0.062630 158.000000 -0.021956
51921.000000 1.253130 294.000000 295.000000 208.000000 0.013411 244.000000 0.124649 255.000000 -0.021684 281.000000 -0.150773 12.000000 -0.066805 130.000000 0.051506 154.000000 0.012160
52216.000000 1.180812 295.000000 290.000000 204.000000 -0.024349 226.000000 0.115605 234.000000 0.067769 277.000000 -0.148538 11.000000 -0.077306 128.000000 0.057284 145.000000 -0.001458
52506.000000 1.134640 290.000000 278.000000 182.000000 -0.002676 229.000000 0.107233 240.000000 -0.032736 260.000000 -0.043802 10.000000 -0.087619 132.000000 0.043952 155.000000 -0.021830
52784.000000 1.170258 278.000000 279.000000 191.000000 0.013756 216.000000 0.125542 225.000000 0.093614 263.000000 -0.032308 14.000000 -0.086167 114.000000 0.053093 130.000000 0.028544
53063.000000 1.237803 279.000000 278.000000 180.000000 -0.011979 229.000000 0.121347 241.000000 -0.015095 260.000000 -0.037474 13.000000 -0.070752 116.000000 0.047349 126.000000 0.006956
53341.000000 1.154656 278.000000 291.000000 191.000000 -0.015606 240.000000 0.111197 269.000000 -0.040924 275.000000 -0.120675 11.000000 -0.062461 126.000000 0.044843 140.000000 -0.004734
53923.000000 1.199265 291.000000 297.000000 208.000000 -0.006258 230.000000 0.126434 236.000000 0.080996 282.000000 -0.092606 13.000000 -0.058446 132.000000 0.063251 143.000000 0.027151
54784.000000 1.161849 276.000000 280.000000 192.000000 -0.008266 231.000000 0.140619 240.000000 -0.004710 264.000000 -0.046654 12.000000 -0.101650 118.000000 0.021281 126.000000 0.001894
55064.000000 1.216639 280.000000 280.000000 185.000000 0.011819 235.000000 0.126066 249.000000 -0.018481 265.000000 -0.058999 11.000000 -0.050680 119.000000 0.039578 128.000000 0.015832
55908.000000 1.124135 282.000000 300.000000 203.000000 -0.020945 230.000000 0.108916 255.000000 -0.007213 283.000000 -0.132293 11.000000 -0.089378 128.000000 0.047771 151.000000 -0.004344
56502.000000 1.215122 294.000000 283.000000 200.000000 -0.003747 224.000000 0.125769 244.000000 -0.009670 267.000000 -0.112033 12.000000 -0.068496 121.000000 0.029208 148.000000 -0.025311
57055.000000 1.168533 270.000000 278.000000 190.000000 0.000405 218.000000 0.126961 237.000000 0.041162 265.000000 -0.112236 13.000000 -0.095294 115.000000 0.046768 127.000000 0.034212
57333.000000 1.267107 278.000000 283.000000 180.000000 -0.006297 220.000000 0.114568 227.000000 0.094661 261.000000 -0.052800 12.000000 -0.056546 120.000000 0.046173 131.000000 0.034294
58192.000000 1.165214 291.000000 298.000000 202.000000 -0.004581 233.000000 0.121372 241.000000 0.080493 281.000000 -0.039771 13.000000 -0.080993 131.000000 0.049533 151.000000 -0.021801
58490.000000 1.214854 298.000000 298.000000 210.000000 -0.011091 245.000000 0.117951 262.000000 -0.029666 280.000000 -0.045321 15.000000 -0.080316 132.000000 0.046759 153.000000 -0.028903
58788.000000 1.142129 298.000000 290.000000 208.000000 -0.021827 225.000000 0.112876 233.000000 0.075445 277.000000 -0.150516 12.000000 -0.066019 123.000000 0.040639 140.000000 0.012678
59354.000000 1.182313 276.000000 278.000000 198.000000 0.011063 217.000000 0.120526 227.000000 0.064367 264.000000 -0.096997 13.000000 -0.054753 115.000000 0.046649 123.000000 0.026430
60214.000000 1.179918 294.000000 302.000000 203.000000 -0.018834 250.000000 0.098708 261.000000 -0.031794 284.000000 -0.101088 13.000000 -0.091866 132.000000 0.035237 154.000000 -0.022443
61391.000000 1.107063 285.000000 289.000000 199.000000 -0.006299 240.000000 0.114172 252.000000 -0.022363 274.000000 -0.070762 12.000000 -0.075756 127.000000 0.024511 140.000000 -0.008828
61680.000000 1.160682 289.000000 284.000000 198.000000 -0.018596 237.000000 0.128268 247.000000 -0.031466 266.000000 -0.058956 11.000000 -0.075852 117.000000 0.042931 152.000000 -0.009518
62547.000000 1.200272 299.000000 305.000000 221.000000 0.025948 253.000000 0.118155 264.000000 -0.013021 288.000000 -0.107361 14.000000 -0.114666 138.000000 0.042370 150.000000 0.008340
62852.000000 1.204943 305.000000 303.000000 211.000000 -0.003412 235.000000 0.110301 246.000000 0.064673 282.000000 -0.058009 14.000000 -0.061230 133.000000 0.044566 148.000000 -0.016500
63711.000000 1.130762 272.000000 288.000000 182.000000 0.007196 238.000000 0.121370 272.000000 -0.058411 282.000000 0.162576 13.000000 -0.063409 121.000000 0.056451 136.000000 0.007457
64288.000000 1.121771 289.000000 294.000000 203.000000 0.003288 227.000000 0.106010 237.000000 0.067671 278.000000 -0.156874 15.000000 -0.069357 127.000000 0.040647 143.000000 0.008202
64876.000000 1.237733 294.000000 298.000000 215.000000 -0.001106 233.000000 0.122324 243.000000 0.080992 282.000000 -0.040805 11.000000 -0.054163 132.000000 0.062265 156.000000 0.022258
65174.000000 1.179949 298.000000 290.000000 191.000000 -0.010359 243.000000 0.131444 257.000000 -0.035296 275.000000 -0.070392 9.000000 -0.054359 126.000000 0.061758 155.000000 -0.006191
65464.000000 1.109073 290.000000 286.000000 189.000000 -0.041288 235.000000 0.107016 250.000000 -0.029364 268.000000 -0.037813 10.000000 -0.067558 119.000000 0.051994 134.000000 0.009831
65750.000000 1.168537 286.000000 281.000000 191.000000 -0.014592 231.000000 0.122371 250.000000 -0.038378 264.000000 -0.136073 14.000000 -0.064707 115.000000 0.033396 137.000000 -0.022716
66604.000000 1.100847 296.000000 188.000000 143.000000 -0.028999 162.000000 -0.004173 171.000000 -0.032889 173.000000 -0.023234 11.000000 -0.057367 101.000000 0.071941 114.000000 -0.063718
66792.000000 1.348866 188.000000 339.000000 237.000000 -0.000646 288.000000 0.104517 306.000000 -0.019543 323.000000 -0.079072 12.000000 -0.038643 165.000000 0.015258 190.000000 -0.022604
68302.000000 1.282657 294.000000 293.000000 206.000000 -0.006635 240.000000 0.128159 255.000000 -0.027452 275.000000 -0.124551 16.000000 -0.078832 120.000000 0.053211 154.000000 -0.018609
68886.000000 1.156811 291.000000 305.000000 215.000000 -0.013550 238.000000 0.113783 249.000000 0.068108 287.000000 -0.026919 13.000000 -0.096401 130.000000 0.042161 153.000000 -0.009091
69191.000000 1.201124 305.000000 313.000000 216.000000 -0.002557 263.000000 0.120906 295.000000 -0.061316 298.000000 -0.150956 15.000000 -0.055362 137.000000 0.051444 157.000000 0.004045
69796.000000 1.165077 292.000000 278.000000 197.000000 -0.013629 216.000000 0.122121 226.000000 0.047999 259.000000 -0.037615 12.000000 -0.037009 114.000000 0.050297 126.000000 0.003198
70357.000000 1.218230 283.000000 286.000000 202.000000 0.000165 220.000000 0.129680 230.000000 0.089366 269.000000 -0.041652 12.000000 -0.071940 117.000000 0.053200 135.000000 0.022023
70643.000000 1.223584 286.000000 298.000000 201.000000 -0.018952 246.000000 0.148328 267.000000 -0.041234 287.000000 -0.162692 12.000000 -0.055269 120.000000 0.051696 148.000000 0.004684
70941.000000 1.124924 298.000000 299.000000 207.000000 -0.004573 231.000000 0.109454 238.000000 0.081335 282.000000 -0.069499 13.000000 -0.056424 133.000000 0.050331 154.000000 -0.011754
71240.000000 1.171453 299.000000 300.000000 214.000000 0.006603 236.000000 0.133498 248.000000 0.126462 282.000000 -0.044901 13.000000 -0.077547 129.000000 0.047300 156.000000 -0.012290
72138.000000 1.148576 292.000000 279.000000 196.000000 -0.013098 221.000000 0.123971 243.000000 -0.026748 265.000000 -0.091403 14.000000 -0.088809 119.000000 0.040595 137.000000 -0.002853
72417.000000 1.201684 279.000000 286.000000 194.000000 -0.001744 241.000000 0.129223 253.000000 -0.024084 272.000000 -0.088565 13.000000 -0.079194 121.000000 0.048441 151.000000 -0.012083
72703.000000 1.329680 286.000000 295.000000 211.000000 -0.019031 246.000000 0.125545 255.000000 -0.010646 287.000000 -0.239452 13.000000 -0.075490 130.000000 0.056617 159.000000 -0.006036
72998.000000 1.192085 295.000000 304.000000 215.000000 -0.018604 237.000000 0.108385 252.000000 0.089639 289.000000 -0.122951 5.000000 -0.176599 124.000000 0.054431 133.000000 0.038007
74196.000000 1.200420 283.000000 288.000000 195.000000 -0.022399 240.000000 0.114682 250.000000 -0.038970 269.000000 -0.044438 13.000000 -0.067385 126.000000 0.042586 164.000000 0.000126
74767.000000 1.224989 283.000000 219.000000 135.000000 0.035538 156.000000 0.155478 176.000000 0.012171 200.000000 -0.035451 12.000000 -0.079072 125.000000 0.045334 135.000000 0.035538
74986.000000 1.325047 219.000000 346.000000 264.000000 -0.003738 284.000000 0.121970 299.000000 0.092548 330.000000 -0.026234 11.000000 -0.076742 121.000000 0.036873 152.000000 -0.006340
75332.000000 1.178277 346.000000 300.000000 214.000000 -0.006129 250.000000 0.110865 260.000000 -0.023541 285.000000 -0.044573 13.000000 -0.070973 136.000000 0.052071 152.000000 0.002980
75632.000000 1.168295 300.000000 304.000000 212.000000 -0.026230 250.000000 0.135385 266.000000 -0.024554 288.000000 -0.154837 12.000000 -0.083818 135.000000 0.036651 151.000000 -0.034683
76515.000000 1.155660 281.000000 271.000000 176.000000 -0.017667 225.000000 0.130023 236.000000 -0.021308 254.000000 -0.035179 14.000000 -0.049341 117.000000 0.028625 136.000000 -0.013102
77074.000000 1.242627 288.000000 293.000000 181.000000 -0.014749 242.000000 0.130084 253.000000 -0.016925 277.000000 -0.112785 10.000000 -0.058204 128.000000 0.056845 141.000000 0.002097
77954.000000 1.207392 290.000000 297.000000 215.000000 0.005383 249.000000 0.115589 266.000000 -0.034928 281.000000 -0.046637 11.000000 -0.082843 136.000000 0.059044 155.000000 0.011317
78251.000000 1.266747 297.000000 288.000000 199.000000 -0.002833 241.000000 0.114220 252.000000 -0.034181 274.000000 -0.118819 13.000000 -0.058460 121.000000 0.046610 153.000000 -0.009060
78539.000000 1.212419 288.000000 286.000000 204.000000 -0.016918 237.000000 0.112973 248.000000 -0.011870 269.000000 -0.066914 11.000000 -0.090482 122.000000 0.064030 158.000000 -0.004468
79100.000000 1.212300 275.000000 286.000000 193.000000 0.003508 222.000000 0.127121 230.000000 0.076886 267.000000 -0.048895 14.000000 -0.082040 125.000000 0.062797 137.000000 0.015491
79386.000000 1.267457 286.000000 303.000000 211.000000 -0.015871 235.000000 0.109271 263.000000 -0.031106 284.000000 -0.037075 12.000000 -0.076004 128.000000 0.049453 154.000000 -0.017274
79689.000000 1.189229 303.000000 303.000000 233.000000 0.051232 254.000000 0.108145 284.000000 -0.029527 289.000000 -0.143837 11.000000 -0.054796 136.000000 0.056142 157.000000 -0.020374
80583.000000 1.247351 292.000000 286.000000 203.000000 0.004536 226.000000 0.135746 248.000000 -0.021450 270.000000 -0.038679 15.000000 -0.063890 124.000000 0.043133 144.000000 0.003402
81152.000000 1.284910 283.000000 287.000000 189.000000 -0.036695 239.000000 0.132461 250.000000 -0.028307 268.000000 -0.028401 15.000000 -0.090328 125.000000 0.023772 144.000000 -0.019235
81439.000000 1.328167 287.000000 292.000000 207.000000 -0.025914 229.000000 0.109982 237.000000 0.058496 273.000000 -0.071282 13.000000 -0.072897 121.000000 0.037465 154.000000 -0.032352
83209.000000 1.131079 281.000000 283.000000 203.000000 -0.019817 224.000000 0.117847 231.000000 0.088708 269.000000 -0.143909 13.000000 -0.054860 128.000000 0.039140 143.000000 -0.000785
83492.000000 1.214601 283.000000 303.000000 199.000000 0.009062 252.000000 0.130011 267.000000 -0.037640 289.000000 -0.141541 14.000000 -0.075069 132.000000 0.054198 157.000000 0.002398
84407.000000 1.124421 303.000000 303.000000 217.000000 -0.021076 237.000000 0.103958 263.000000 -0.026276 286.000000 -0.148550 13.000000 -0.077996 135.000000 0.047165 159.000000 0.005285
85010.000000 1.219850 300.000000 293.000000 184.000000 -0.027913 228.000000 0.144295 237.000000 0.071458 275.000000 -0.148387 11.000000 -0.069101 121.000000 0.063352 160.000000 0.005426
85303.000000 1.137664 293.000000 277.000000 193.000000 -0.012245 231.000000 0.112677 253.000000 -0.029190 258.000000 -0.041024 13.000000 -0.057852 123.000000 0.029826 151.000000 0.003960
85580.000000 1.210824 277.000000 290.000000 205.000000 0.019392 230.000000 0.127372 258.000000 -0.009447 277.000000 -0.133631 16.000000 -0.094253 121.000000 0.052223 137.000000 0.005939
85870.000000 1.209631 290.000000 302.000000 213.000000 -0.028859 250.000000 0.116688 261.000000 -0.035805 283.000000 -0.042560 12.000000 -0.056734 137.000000 0.048567 154.000000 0.006313
86478.000000 1.126784 306.000000 302.000000 213.000000 -0.001186 243.000000 0.097750 251.000000 0.067359 288.000000 -0.128723 12.000000 -0.095789 140.000000 0.052839 152.000000 0.003716
86780.000000 1.253817 302.000000 299.000000 219.000000 -0.012247 235.000000 0.127286 244.000000 0.086392 285.000000 -0.144608 14.000000 -0.082985 132.000000 0.056731 151.000000 0.009564
87079.000000 1.407259 299.000000 286.000000 193.000000 -0.012610 224.000000 0.122551 235.000000 0.073930 273.000000 -0.151580 14.000000 -0.075392 122.000000 0.033820 132.000000 -0.005394
87652.000000 1.217270 287.000000 289.000000 198.000000 -0.001404 238.000000 0.144336 250.000000 -0.017467 276.000000 -0.131448 14.000000 -0.101257 126.000000 0.039295 145.000000 -0.002115
87941.000000 1.261623 289.000000 291.000000 204.000000 -0.008364 242.000000 0.121199 266.000000 -0.034573 272.000000 -0.040249 13.000000 -0.074649 124.000000 0.061907 154.000000 0.001693
88232.000000 1.203135 291.000000 299.000000 208.000000 -0.023798 246.000000 0.124065 271.000000 -0.034946 277.000000 -0.025087 14.000000 -0.063840 128.000000 0.058797 149.000000 -0.020953
88834.000000 1.222656 303.000000 302.000000 205.000000 -0.011066 250.000000 0.116381 267.000000 -0.045013 286.000000 -0.157802 13.000000 -0.069035 138.000000 0.059323 158.000000 -0.001130
89421.000000 1.164303 285.000000 283.000000 199.000000 0.008447 222.000000 0.113055 256.000000 -0.049938 268.000000 -0.086004 14.000000 -0.058364 120.000000 0.054823 133.000000 -0.008123
89988.000000 1.251688 284.000000 298.000000 214.000000 0.004614 249.000000 0.131922 260.000000 -0.010821 284.000000 -0.123162 12.000000 -0.078750 124.000000 0.062696 157.000000 -0.016504
90286.000000 1.173433 298.000000 304.000000 207.000000 -0.038183 234.000000 0.115236 260.000000 -0.035106 288.000000 -0.057065 14.000000 -0.064876 131.000000 0.057054 155.000000 -0.014969
90590.000000 1.162451 304.000000 295.000000 202.000000 -0.021778 243.000000 0.104572 256.000000 -0.030054 279.000000 -0.080712 12.000000 -0.074944 128.000000 0.054852 151.000000 -0.017151
90885.000000 1.217439 295.000000 305.000000 211.000000 0.004327 252.000000 0.126169 261.000000 -0.016165 285.000000 -0.041557 16.000000 -0.063797 139.000000 0.047325 152.000000 0.012733
91190.000000 1.239087 305.000000 292.000000 201.000000 -0.008217 242.000000 0.116011 253.000000 -0.020601 274.000000 -0.107903 12.000000 -0.069751 128.000000 0.055584 154.000000 -0.006693
91761.000000 1.166182 279.000000 286.000000 194.000000 0.016812 236.000000 0.120949 253.000000 -0.009978 271.000000 -0.092376 12.000000 -0.078284 121.000000 0.049520 136.000000 -0.008460
92338.000000 1.215458 291.000000 296.000000 199.000000 -0.014639 242.000000 0.127957 259.000000 -0.014817 278.000000 -0.042562 14.000000 -0.083227 120.000000 0.054905 126.000000 0.053102
93246.000000 1.241294 301.000000 288.000000 199.000000 -0.019540 240.000000 0.130664 251.000000 -0.013522 271.000000 -0.045280 11.000000 -0.074473 125.000000 0.045208 157.000000 -0.020216
93534.000000 1.199846 288.000000 290.000000 203.000000 0.003697 238.000000 0.133927 251.000000 -0.007875 276.000000 -0.159330 11.000000 -0.059027 125.000000 0.049815 152.000000 -0.010122
93824.000000 1.098605 290.000000 279.000000 196.000000 -0.009946 231.000000 0.126500 241.000000 -0.017073 266.000000 -0.143782 12.000000 -0.098289 115.000000 0.043182 128.000000 0.013885
94693.000000 1.172562 297.000000 303.000000 218.000000 0.001129 237.000000 0.124156 257.000000 0.053655 293.000000 -0.240941 10.000000 -0.075072 136.000000 0.064173 153.000000 0.019956
94996.000000 1.224012 303.000000 303.000000 212.000000 0.005684 236.000000 0.109943 268.000000 -0.048473 288.000000 -0.116024 7.000000 -0.112478 139.000000 0.030898 154.000000 -0.018209
95893.000000 1.178821 286.000000 278.000000 194.000000 -0.019376 227.000000 0.113481 244.000000 -0.040327 264.000000 -0.144901 14.000000 -0.085299 112.000000 0.058948 121.000000 0.016502
96171.000000 1.121119 278.000000 280.000000 195.000000 0.001433 217.000000 0.104271 231.000000 0.084020 260.000000 -0.045149 13.000000 -0.071310 118.000000 0.041459 128.000000 0.014294
97050.000000 1.114686 303.000000 298.000000 211.000000 -0.013997 235.000000 0.122511 258.000000 -0.016375 280.000000 -0.042266 12.000000 -0.047931 132.000000 0.053809 152.000000 -0.006414
97348.000000 1.125416 298.000000 297.000000 210.000000 -0.007996 248.000000 0.128981 259.000000 -0.011285 282.000000 -0.155893 17.000000 -0.076342 128.000000 0.045369 157.000000 0.017143
98228.000000 1.143056 291.000000 280.000000 186.000000 -0.016060 219.000000 0.112185 242.000000 -0.018772 264.000000 -0.043255 12.000000 -0.083810 117.000000 0.043035 136.000000 0.005232
98508.000000 1.148089 280.000000 281.000000 200.000000 0.017430 233.000000 0.134157 243.000000 -0.015388 264.000000 -0.032237 14.000000 -0.079360 114.000000 0.037439 153.000000 -0.016147
98789.000000 1.210711 281.000000 295.000000 212.000000 0.002658 242.000000 0.115463 263.000000 -0.031933 280.000000 -0.144848 13.000000 -0.059710 127.000000 0.050070 153.000000 -0.016347
99084.000000 1.260592 295.000000 298.000000 204.000000 0.014384 228.000000 0.119983 255.000000 -0.047871 285.000000 -0.180535 12.000000 -0.053514 132.000000 0.045434 155.000000 0.001594
99382.000000 1.073413 298.000000 198.000000 94.000000 -0.071798 121.000000 0.179977 158.000000 -0.029361 182.000000 -0.088425 11.000000 -0.092402 117.000000 0.134083 158.000000 -0.029361
99930.000000 1.214299 350.000000 288.000000 202.000000 -0.014957 241.000000 0.122048 253.000000 -0.031040 273.000000 -0.162544 12.000000 -0.059370 125.000000 0.068804 137.000000 0.044415
100218.000000 1.226140 288.000000 278.000000 196.000000 -0.001618 229.000000 0.134886 251.000000 -0.023795 263.000000 -0.065063 13.000000 -0.068326 114.000000 0.055444 127.000000 0.030849
100496.000000 1.127180 278.000000 285.000000 195.000000 -0.014287 220.000000 0.105309 231.000000 0.078474 266.000000 -0.042405 13.000000 -0.074169 123.000000 0.044855 136.000000 0.004748
100781.000000 1.153234 285.000000 290.000000 193.000000 0.018280 223.000000 0.141371 233.000000 0.090509 274.000000 -0.177125 16.000000 -0.059889 121.000000 0.061264 152.000000 0.006081
101071.000000 1.253877 290.000000 290.000000 181.000000 -0.030280 238.000000 0.108425 250.000000 -0.028284 275.000000 -0.157429 11.000000 -0.064528 126.000000 0.050546 157.000000 -0.026364
101361.000000 1.274684 290.000000 293.000000 204.000000 -0.019389 225.000000 0.115781 237.000000 0.065405 278.000000 -0.125018 12.000000 -0.088107 123.000000 0.045568 154.000000 -0.013429
102793.000000 1.193246 276.000000 281.000000 190.000000 -0.013726 216.000000 0.134521 225.000000 0.073831 264.000000 -0.039272 14.000000 -0.095206 119.000000 0.045795 137.000000 0.005626
103074.000000 1.265336 281.000000 297.000000 191.000000 -0.040047 248.000000 0.116193 272.000000 -0.030421 277.000000 -0.036063 13.000000 -0.053411 133.000000 0.044464 152.000000 -0.000317
103371.000000 1.173594 297.000000 298.000000 205.000000 -0.015591 226.000000 0.124740 242.000000 0.052186 284.000000 -0.126076 13.000000 -0.081295 136.000000 0.054338 157.000000 -0.016771
103669.000000 1.144803 298.000000 295.000000 197.000000 -0.009866 241.000000 0.107264 261.000000 -0.048238 278.000000 -0.161748 16.000000 -0.078866 132.000000 0.052582 154.000000 -0.020018
103964.000000 1.239696 295.000000 298.000000 212.000000 -0.003952 246.000000 0.133913 261.000000 -0.016918 283.000000 -0.095602 13.000000 -0.062294 131.000000 0.057243 155.000000 0.005738
105118.000000 1.213782 287.000000 289.000000 192.000000 -0.018178 226.000000 0.130131 234.000000 0.084724 274.000000 -0.116371 15.000000 -0.061049 117.000000 0.042486 152.000000 -0.011145
105407.000000 1.228723 289.000000 300.000000 213.000000 0.010364 236.000000 0.129550 247.000000 0.109849 283.000000 -0.038583 11.000000 -0.075369 122.000000 0.052876 154.000000 -0.009205
105707.000000 1.142279 300.000000 309.000000 216.000000 -0.006409 242.000000 0.103969 279.000000 -0.037236 297.000000 -0.230419 12.000000 -0.082126 135.000000 0.047347 155.000000 -0.019595
106600.000000 1.049747 285.000000 282.000000 201.000000 0.007401 220.000000 0.124205 235.000000 0.032938 269.000000 -0.124872 11.000000 -0.071929 119.000000 0.045755 147.000000 0.013305
106882.000000 0.919938 282.000000 277.000000 186.000000 -0.013212 214.000000 0.115923 224.000000 0.077302 262.000000 -0.067242 11.000000 -0.060440 112.000000 0.029502 122.000000 0.016383
107159.000000 1.010873 277.000000 296.000000 185.000000 -0.029325 226.000000 0.108342 266.000000 -0.035232 276.000000 -0.093647 12.000000 -0.093657 130.000000 0.057470 147.000000 -0.019768
108045.000000 1.130661 293.000000 297.000000 205.000000 -0.014660 247.000000 0.136123 263.000000 -0.002403 283.000000 -0.110868 14.000000 -0.078183 132.000000 0.053930 155.000000 0.003023
108342.000000 1.286358 297.000000 302.000000 218.000000 0.004276 236.000000 0.129037 250.000000 0.093347 282.000000 -0.040915 14.000000 -0.070930 140.000000 0.053813 153.000000 -0.003915
108926.000000 1.213399 282.000000 273.000000 193.000000 0.005561 210.000000 0.129306 220.000000 0.065418 256.000000 -0.055899 11.000000 -0.086979 133.000000 0.045068 153.000000 -0.037396
109199.000000 1.245981 273.000000 287.000000 203.000000 0.008796 237.000000 0.141963 249.000000 -0.030152 266.000000 -0.036251 14.000000 -0.062562 117.000000 0.046187 142.000000 0.014528
109486.000000 1.315303 287.000000 287.000000 192.000000 -0.031430 220.000000 0.115295 238.000000 0.114716 271.000000 -0.109623 15.000000 -0.069713 124.000000 0.061551 135.000000 0.010641
110963.000000 1.187055 289.000000 281.000000 197.000000 -0.002269 233.000000 0.145346 248.000000 -0.041790 261.000000 -0.019347 13.000000 -0.069482 130.000000 0.036301 153.000000 -0.012585
111244.000000 1.207187 281.000000 280.000000 198.000000 -0.008920 232.000000 0.138479 248.000000 -0.031553 265.000000 -0.067980 13.000000 -0.074821 119.000000 0.021736 136.000000 0.004197
111524.000000 1.277805 280.000000 287.000000 187.000000 0.012072 222.000000 0.130097 232.000000 0.083449 268.000000 -0.057166 12.000000 -0.079420 121.000000 0.041244 154.000000 -0.017909
112108.000000 1.169496 297.000000 297.000000 202.000000 -0.014250 244.000000 0.113655 258.000000 -0.021626 282.000000 -0.120231 12.000000 -0.083151 131.000000 0.052254 154.000000 -0.010838
112405.000000 1.210176 297.000000 306.000000 218.000000 0.005938 237.000000 0.132986 247.000000 0.101982 289.000000 -0.046498 14.000000 -0.064103 140.000000 0.047781 155.000000 -0.001326
113281.000000 1.169632 280.000000 282.000000 183.000000 -0.004435 223.000000 0.129470 237.000000 0.007904 267.000000 -0.145687 10.000000 -0.077501 117.000000 0.051000 133.000000 0.009607
113850.000000 1.310043 287.000000 292.000000 205.000000 -0.011109 242.000000 0.122392 255.000000 -0.016306 272.000000 -0.049064 12.000000 -0.090976 118.000000 0.066676 137.000000 0.001173
114142.000000 1.495587 292.000000 286.000000 201.000000 -0.009304 222.000000 0.126370 230.000000 0.082091 269.000000 -0.043726 15.000000 -0.088790 124.000000 0.051444 133.000000 0.016945
114428.000000 1.203999 286.000000 288.000000 194.000000 -0.015930 237.000000 0.143304 253.000000 -0.021099 271.000000 -0.052289 12.000000 -0.067743 123.000000 0.050079 151.000000 0.016785
114716.000000 1.146099 288.000000 285.000000 194.000000 -0.026834 233.000000 0.134749 248.000000 -0.022868 278.000000 0.220536 14.000000 -0.079622 122.000000 0.026968 142.000000 -0.021743
115280.000000 1.122250 279.000000 267.000000 181.000000 0.013730 206.000000 0.125955 214.000000 0.091126 251.000000 -0.047368 12.000000 -0.087779 121.000000 0.063215 156.000000 -0.011710
115547.000000 1.180220 267.000000 268.000000 188.000000 -0.010047 208.000000 0.131911 211.000000 0.095751 254.000000 -0.144907 13.000000 -0.087616 124.000000 0.041307 144.000000 0.007557
115815.000000 1.200125 268.000000 269.000000 181.000000 0.000298 217.000000 0.133790 230.000000 0.000577 255.000000 -0.127605 12.000000 -0.074719 108.000000 0.046696 118.000000 0.015238
116084.000000 1.181470 269.000000 286.000000 197.000000 -0.006413 231.000000 0.113351 252.000000 -0.050128 269.000000 -0.095158 15.000000 -0.081569 122.000000 0.054142 134.000000 0.031887
116654.000000 1.143882 284.000000 286.000000 190.000000 -0.018228 235.000000 0.118422 243.000000 -0.016689 268.000000 -0.178696 13.000000 -0.073405 133.000000 0.035627 143.000000 -0.001162
117494.000000 1.167864 280.000000 272.000000 187.000000 -0.010588 212.000000 0.139319 228.000000 0.118989 257.000000 -0.069542 12.000000 -0.079909 135.000000 0.033499 154.000000 -0.014023
117766.000000 1.106725 272.000000 278.000000 190.000000 0.002173 227.000000 0.156354 233.000000 0.025774 263.000000 -0.067591 14.000000 -0.073843 133.000000 0.050033 154.000000 -0.000580
118044.000000 1.100266 278.000000 279.000000 178.000000 -0.011187 226.000000 0.148426 244.000000 -0.002421 264.000000 -0.116214 14.000000 -0.059779 117.000000 0.043085 125.000000 0.020829
118323.000000 1.185246 279.000000 284.000000 194.000000 0.003879 235.000000 0.170654 245.000000 -0.024990 271.000000 -0.161894 15.000000 -0.081731 121.000000 0.060825 148.000000 0.005015
118607.000000 1.149530 284.000000 305.000000 214.000000 -0.007090 248.000000 0.142781 268.000000 -0.010322 290.000000 -0.143940 14.000000 -0.097682 137.000000 0.051507 157.000000 -0.006628
120077.000000 1.087510 285.000000 299.000000 195.000000 -0.027110 247.000000 0.119460 264.000000 -0.023787 285.000000 -0.130684 14.000000 -0.064624 132.000000 0.044604 156.000000 -0.019749
120376.000000 1.169347 299.000000 300.000000 216.000000 0.007882 246.000000 0.128821 261.000000 -0.017024 283.000000 -0.053654 14.000000 -0.081043 126.000000 0.056408 154.000000 -0.006962
120676.000000 1.170641 300.000000 315.000000 221.000000 -0.000096 260.000000 0.144296 276.000000 -0.026189 300.000000 -0.199385 13.000000 -0.089483 145.000000 0.051678 157.000000 0.005095
122170.000000 1.145702 280.000000 291.000000 197.000000 -0.005348 239.000000 0.120360 249.000000 -0.031017 275.000000 -0.187868 13.000000 -0.086865 121.000000 0.057102 153.000000 -0.008232
123050.000000 1.057997 299.000000 310.000000 223.000000 -0.014051 262.000000 0.132436 275.000000 -0.021213 296.000000 -0.133390 11.000000 -0.094511 130.000000 0.050703 185.000000 -0.007920
123360.000000 1.153946 310.000000 304.000000 207.000000 -0.012964 252.000000 0.141694 266.000000 -0.027945 290.000000 -0.143305 15.000000 -0.093984 131.000000 0.042408 150.000000 -0.004912
123664.000000 1.118577 304.000000 272.000000 187.000000 0.022251 223.000000 0.201135 240.000000 -0.019680 254.000000 -0.045243 10.000000 -0.083837 122.000000 0.039330 136.000000 0.018215
123936.000000 1.065984 272.000000 286.000000 184.000000 -0.025277 233.000000 0.133832 251.000000 -0.040826 272.000000 -0.265502 16.000000 -0.066851 119.000000 0.052773 128.000000 0.017586
124507.000000 1.110666 285.000000 269.000000 189.000000 0.017767 220.000000 0.172486 232.000000 -0.001776 250.000000 -0.020066 13.000000 -0.100854 130.000000 0.051081 154.000000 0.014417
125060.000000 1.125613 284.000000 295.000000 204.000000 -0.020910 243.000000 0.130970 259.000000 -0.044813 282.000000 -0.210561 11.000000 -0.056441 137.000000 0.040880 155.000000 -0.005358
125355.000000 1.118842 295.000000 294.000000 204.000000 -0.000473 240.000000 0.139038 251.000000 -0.010210 278.000000 -0.076543 10.000000 -0.106190 128.000000 0.048427 137.000000 0.021281
125926.000000 1.112064 277.000000 278.000000 184.000000 -0.012963 225.000000 0.127715 257.000000 -0.056766 263.000000 -0.102549 11.000000 -0.096288 128.000000 0.041597 156.000000 -0.018733
126476.000000 1.082067 272.000000 271.000000 173.000000 0.006770 216.000000 0.160768 230.000000 -0.009578 256.000000 -0.083839 12.000000 -0.077978 130.000000 0.045816 146.000000 0.007696
127025.000000 1.095799 278.000000 289.000000 199.000000 0.002133 225.000000 0.137400 233.000000 0.098543 272.000000 -0.047896 10.000000 -0.097510 127.000000 0.049628 135.000000 0.023546
128423.000000 1.376225 337.000000 275.000000 183.000000 -0.001663 213.000000 0.127253 221.000000 0.081360 259.000000 -0.161303 13.000000 -0.072693 122.000000 0.032445 142.000000 -0.016599
128698.000000 1.311333 275.000000 260.000000 174.000000 -0.049657 210.000000 0.172084 228.000000 0.024012 246.000000 -0.040439 14.000000 -0.091646 136.000000 0.032599 154.000000 -0.028184
128958.000000 1.331021 260.000000 273.000000 185.000000 -0.011349 220.000000 0.142387 247.000000 -0.016889 254.000000 -0.079114 12.000000 -0.041971 114.000000 0.033842 146.000000 -0.000254
130057.000000 1.195794 258.000000 261.000000 170.000000 0.000925 199.000000 0.150799 205.000000 0.131960 245.000000 -0.036253 13.000000 -0.104674 128.000000 0.050346 150.000000 0.023011
130318.000000 1.203042 261.000000 250.000000 169.000000 0.009139 201.000000 0.177951 214.000000 -0.000997 237.000000 -0.117689 11.000000 -0.087646 141.000000 0.051223 156.000000 -0.000690
130568.000000 1.264255 250.000000 251.000000 154.000000 0.005311 200.000000 0.157553 214.000000 -0.002823 233.000000 -0.093935 10.000000 -0.073440 137.000000 0.049794 154.000000 0.005311
132122.000000 1.240367 269.000000 259.000000 170.000000 0.012100 206.000000 0.144767 221.000000 -0.005576 244.000000 -0.128990 11.000000 -0.066372 144.000000 0.044968 156.000000 0.011724
132381.000000 1.217420 259.000000 248.000000 154.000000 0.003354 197.000000 0.150356 213.000000 -0.021040 232.000000 -0.029397 11.000000 -0.063146 131.000000 0.052181 136.000000 0.019155
132629.000000 1.174963 248.000000 254.000000 156.000000 -0.020144 195.000000 0.151248 214.000000 0.011075 235.000000 -0.037310 12.000000 -0.104267 124.000000 0.047305 156.000000 -0.020144
132883.000000 1.259320 254.000000 249.000000 166.000000 0.008149 200.000000 0.152472 217.000000 0.002034 229.000000 -0.006587 11.000000 -0.073265 140.000000 0.055989 166.000000 0.008149
133132.000000 1.232428 249.000000 258.000000 169.000000 -0.017117 207.000000 0.151129 236.000000 -0.032033 243.000000 -0.078883 13.000000 -0.094608 124.000000 0.042692 132.000000 0.019918
133390.000000 1.127937 258.000000 273.000000 180.000000 0.002462 215.000000 0.145288 230.000000 -0.012142 252.000000 -0.028931 14.000000 -0.066434 135.000000 0.027978 148.000000 0.013793
133933.000000 1.224083 270.000000 264.000000 173.000000 -0.001581 212.000000 0.170678 223.000000 -0.005168 246.000000 -0.042583 11.000000 -0.083613 127.000000 0.049589 134.000000 0.039182
134197.000000 1.159471 264.000000 267.000000 179.000000 -0.010623 216.000000 0.178865 247.000000 -0.023406 252.000000 -0.084692 11.000000 -0.102236 139.000000 0.048964 152.000000 0.013230
134990.000000 1.228519 252.000000 253.000000 173.000000 0.003907 205.000000 0.174065 217.000000 0.018783 239.000000 -0.080637 10.000000 -0.098989 115.000000 0.052429 154.000000 -0.018853
135243.000000 1.129975 253.000000 262.000000 180.000000 0.009739 203.000000 0.145416 228.000000 0.015007 243.000000 -0.050965 12.000000 -0.085667 120.000000 0.052682 157.000000 0.000601
136061.000000 1.144096 280.000000 290.000000 183.000000 -0.009167 235.000000 0.154055 255.000000 -0.020350 270.000000 -0.053045 12.000000 -0.099648 166.000000 0.054847 190.000000 -0.003447
136630.000000 1.253725 279.000000 269.000000 175.000000 0.001488 220.000000 0.166254 245.000000 -0.012148 252.000000 -0.026364 12.000000 -0.103347 126.000000 0.033716 152.000000 -0.011552
136899.000000 1.177571 269.000000 272.000000 180.000000 0.014123 210.000000 0.144486 219.000000 0.098827 257.000000 -0.071468 13.000000 -0.081738 126.000000 0.054044 166.000000 -0.000751
137449.000000 1.091055 278.000000 280.000000 180.000000 -0.007809 219.000000 0.143003 233.000000 0.075667 264.000000 -0.150496 12.000000 -0.101800 118.000000 0.057569 132.000000 0.010064
137729.000000 1.140914 280.000000 279.000000 182.000000 -0.002653 227.000000 0.184550 252.000000 -0.024007 271.000000 -0.217407 13.000000 -0.075637 113.000000 0.064924 138.000000 0.024500
138008.000000 1.113425 279.000000 296.000000 201.000000 0.010567 243.000000 0.146678 255.000000 -0.004826 280.000000 -0.060310 11.000000 -0.080116 140.000000 0.047009 156.000000 0.014751
138304.000000 1.073046 296.000000 295.000000 207.000000 -0.022444 240.000000 0.134362 257.000000 -0.009964 278.000000 -0.115261 16.000000 -0.072284 131.000000 0.046597 157.000000 -0.017384
139164.000000 1.046454 275.000000 276.000000 194.000000 -0.000159 230.000000 0.139593 241.000000 -0.013965 262.000000 -0.086395 15.000000 -0.086224 130.000000 0.051681 151.000000 -0.026567
139440.000000 1.086990 276.000000 280.000000 185.000000 0.025374 230.000000 0.154820 241.000000 -0.020007 266.000000 -0.111558 11.000000 -0.082178 118.000000 0.042980 143.000000 0.024734
140302.000000 1.221347 292.000000 297.000000 205.000000 0.017286 242.000000 0.130725 254.000000 -0.017204 283.000000 -0.114902 14.000000 -0.100516 132.000000 0.049839 155.000000 -0.026652
140599.000000 1.114972 297.000000 283.000000 178.000000 0.020688 213.000000 0.155260 223.000000 0.108706 269.000000 -0.114993 14.000000 -0.095451 123.000000 0.048279 150.000000 0.012526
141152.000000 1.043207 270.000000 271.000000 180.000000 0.002497 221.000000 0.141183 230.000000 0.003707 257.000000 -0.146027 12.000000 -0.098081 129.000000 0.035938 162.000000 -0.006754
141423.000000 1.116153 271.000000 261.000000 177.000000 0.013264 213.000000 0.182858 229.000000 -0.001517 246.000000 -0.115455 14.000000 -0.072737 145.000000 0.037570 154.000000 -0.005030
141684.000000 1.231910 261.000000 259.000000 166.000000 -0.050097 209.000000 0.122162 220.000000 -0.022681 245.000000 -0.147180 12.000000 -0.086319 130.000000 0.021442 137.000000 -0.028418
141943.000000 1.074859 259.000000 264.000000 180.000000 0.054809 211.000000 0.202412 226.000000 0.065437 250.000000 -0.035454 12.000000 -0.124028 127.000000 0.085044 141.000000 0.077881
142207.000000 1.030188 264.000000 273.000000 178.000000 0.034669 218.000000 0.165894 235.000000 -0.020422 258.000000 -0.128160 12.000000 -0.073042 123.000000 0.096300 129.000000 0.031065
142747.000000 1.045153 267.000000 264.000000 178.000000 0.020730 215.000000 0.161135 234.000000 -0.033534 253.000000 -0.278203 12.000000 -0.100429 142.000000 0.056771 155.000000 0.016016
143265.000000 1.092088 254.000000 250.000000 164.000000 0.000557 201.000000 0.147654 230.000000 -0.034659 235.000000 -0.047714 11.000000 -0.103961 123.000000 0.026456 131.000000 -0.002478
143515.000000 1.163180 250.000000 251.000000 156.000000 0.009500 198.000000 0.177921 211.000000 -0.013865 237.000000 -0.101857 14.000000 -0.099577 124.000000 0.069808 156.000000 0.009500
143766.000000 1.105557 251.000000 259.000000 170.000000 -0.013824 207.000000 0.150773 222.000000 -0.003664 244.000000 -0.129602 13.000000 -0.083456 119.000000 0.038384 152.000000 -0.005313
144025.000000 1.061761 259.000000 261.000000 171.000000 0.020514 209.000000 0.159932 225.000000 -0.016400 246.000000 -0.139537 13.000000 -0.093398 136.000000 0.047930 139.000000 0.013713
144286.000000 1.173160 261.000000 272.000000 173.000000 -0.014121 221.000000 0.153674 235.000000 0.001810 259.000000 -0.134853 13.000000 -0.086072 133.000000 0.023979 149.000000 -0.002524
144832.000000 1.128193 274.000000 280.000000 182.000000 0.006552 230.000000 0.161133 245.000000 -0.014775 264.000000 -0.068943 14.000000 -0.086100 139.000000 0.047037 153.000000 -0.005095
145647.000000 1.163794 265.000000 256.000000 171.000000 0.011125 211.000000 0.152547 223.000000 -0.012970 241.000000 -0.045697 11.000000 -0.095861 122.000000 0.046007 153.000000 0.012381
146170.000000 1.121456 267.000000 276.000000 184.000000 -0.015436 224.000000 0.156493 241.000000 -0.017205 258.000000 -0.028618 10.000000 -0.082148 115.000000 0.073810 138.000000 0.000938
146737.000000 1.219483 291.000000 276.000000 173.000000 0.015563 222.000000 0.175432 239.000000 0.005651 265.000000 -0.184990 12.000000 -0.092256 125.000000 0.048217 137.000000 0.038560
147013.000000 1.159414 276.000000 277.000000 185.000000 0.024800 226.000000 0.160679 244.000000 0.010569 264.000000 -0.142315 12.000000 -0.074347 161.000000 0.035333 173.000000 0.016774
147290.000000 1.253904 277.000000 275.000000 194.000000 0.012213 226.000000 0.158688 236.000000 -0.001281 258.000000 -0.025954 12.000000 -0.107415 131.000000 0.019965 137.000000 -0.003591
147565.000000 1.235456 275.000000 268.000000 189.000000 0.003551 220.000000 0.203143 234.000000 0.004883 254.000000 -0.076653 12.000000 -0.076847 137.000000 0.046505 152.000000 -0.007385
148099.000000 1.144557 266.000000 266.000000 166.000000 -0.020547 214.000000 0.160645 226.000000 -0.024777 248.000000 -0.144782 11.000000 -0.087572 138.000000 0.038497 151.000000 -0.024417
149488.000000 1.207235 283.000000 281.000000 176.000000 0.008650 230.000000 0.185752 247.000000 -0.021727 267.000000 -0.097700 14.000000 -0.095725 164.000000 0.033242 176.000000 0.008650
150030.000000 1.178047 261.000000 274.000000 175.000000 0.014625 218.000000 0.177347 235.000000 0.009229 260.000000 -0.235362 13.000000 -0.111293 133.000000 0.041319 153.000000 -0.003306
150849.000000 1.194021 273.000000 274.000000 185.000000 0.006210 223.000000 0.156623 237.000000 0.004351 260.000000 -0.122253 11.000000 -0.090010 130.000000 0.037738 145.000000 0.011409
151407.000000 1.174512 284.000000 293.000000 202.000000 -0.005172 239.000000 0.161032 255.000000 -0.021524 278.000000 -0.139184 12.000000 -0.083497 129.000000 0.041068 151.000000 -0.038602
151700.000000 1.318372 293.000000 274.000000 179.000000 0.003591 220.000000 0.159471 243.000000 -0.021688 261.000000 -0.135951 13.000000 -0.087634 143.000000 0.026660 156.000000 -0.019453
151974.000000 1.191918 274.000000 263.000000 181.000000 0.009600 204.000000 0.151890 232.000000 -0.018706 247.000000 -0.031890 12.000000 -0.077566 121.000000 0.043619 155.000000 -0.018430
152237.000000 1.196053 263.000000 274.000000 191.000000 -0.005702 226.000000 0.130648 240.000000 -0.016015 255.000000 -0.049417 11.000000 -0.097132 122.000000 0.036486 140.000000 0.004640
153067.000000 1.159433 285.000000 295.000000 202.000000 -0.004607 229.000000 0.141020 257.000000 -0.020891 278.000000 -0.043463 15.000000 -0.096555 132.000000 0.069455 143.000000 0.011743
153362.000000 1.167820 295.000000 282.000000 180.000000 0.022571 216.000000 0.158768 223.000000 0.122265 270.000000 -0.163898 13.000000 -0.126334 119.000000 0.044197 130.000000 0.003445
153644.000000 1.163639 282.000000 279.000000 184.000000 -0.000312 223.000000 0.147494 240.000000 -0.010217 261.000000 -0.160639 12.000000 -0.082257 119.000000 0.044664 125.000000 0.014932
154193.000000 1.162652 270.000000 278.000000 195.000000 0.008728 218.000000 0.129605 223.000000 0.096423 263.000000 -0.095941 13.000000 -0.093776 117.000000 0.035907 121.000000 0.018400
155009.000000 1.084396 267.000000 283.000000 191.000000 -0.009821 218.000000 0.128394 221.000000 0.104052 269.000000 -0.269682 11.000000 -0.089493 121.000000 0.050404 169.000000 -0.011062
155865.000000 1.236234 276.000000 268.000000 174.000000 -0.008351 216.000000 0.132200 233.000000 -0.005167 251.000000 -0.023504 14.000000 -0.121742 131.000000 0.042351 134.000000 0.018337
156395.000000 1.257486 262.000000 253.000000 172.000000 0.044109 206.000000 0.169766 217.000000 -0.011269 236.000000 -0.010613 12.000000 -0.092233 129.000000 0.059766 157.000000 0.017461
156648.000000 1.265814 253.000000 258.000000 168.000000 0.012200 206.000000 0.171604 224.000000 -0.018913 244.000000 -0.144366 12.000000 -0.098512 116.000000 0.059140 132.000000 0.031524
156906.000000 1.230429 258.000000 263.000000 169.000000 -0.004735 212.000000 0.168499 226.000000 -0.004935 246.000000 -0.040155 13.000000 -0.095625 128.000000 0.042395 137.000000 -0.006022
157960.000000 1.191804 264.000000 274.000000 170.000000 -0.005970 221.000000 0.167572 232.000000 -0.012382 256.000000 -0.111992 15.000000 -0.075891 130.000000 0.024533 134.000000 -0.033728
158730.000000 1.227979 240.000000 244.000000 161.000000 -0.035822 196.000000 0.161323 212.000000 -0.011954 226.000000 -0.036189 10.000000 -0.040735 125.000000 0.025629 139.000000 -0.020387
158974.000000 1.317821 244.000000 252.000000 154.000000 0.020104 205.000000 0.183177 230.000000 -0.013829 235.000000 -0.017278 13.000000 -0.116805 129.000000 0.041220 142.000000 0.016814
159738.000000 1.211836 258.000000 264.000000 170.000000 -0.000248 209.000000 0.147762 229.000000 -0.024292 257.000000 0.022917 12.000000 -0.072490 142.000000 0.057415 170.000000 -0.000248
160260.000000 1.312006 258.000000 247.000000 154.000000 0.027104 195.000000 0.182405 208.000000 0.026182 233.000000 -0.107048 14.000000 -0.097949 135.000000 0.064359 156.000000 0.014628
160507.000000 1.221132 247.000000 248.000000 156.000000 -0.011364 199.000000 0.180722 211.000000 0.002114 234.000000 -0.103675 11.000000 -0.089075 123.000000 0.042415 156.000000 -0.011364
160755.000000 1.278803 248.000000 250.000000 170.000000 0.016211 201.000000 0.153844 217.000000 -0.026723 241.000000 -0.230268 12.000000 -0.077183 127.000000 0.040472 144.000000 0.004171
161005.000000 1.236831 250.000000 250.000000 155.000000 0.019459 201.000000 0.198880 213.000000 0.034193 227.000000 -0.022220 10.000000 -0.091383 128.000000 0.062809 140.000000 0.037592
163093.000000 1.185794 257.000000 270.000000 162.000000 -0.024512 220.000000 0.150827 234.000000 -0.016604 256.000000 -0.120549 13.000000 -0.110426 130.000000 0.054488 145.000000 -0.011940
163899.000000 1.224926 269.000000 283.000000 195.000000 -0.005672 230.000000 0.186881 240.000000 0.000110 266.000000 -0.015315 11.000000 -0.095623 162.000000 0.059533 176.000000 -0.004998
164182.000000 1.296802 283.000000 279.000000 189.000000 -0.008430 229.000000 0.209204 246.000000 0.016570 263.000000 -0.033855 14.000000 -0.093025 133.000000 0.064799 145.000000 0.040003
164461.000000 1.338714 279.000000 270.000000 181.000000 0.011439 217.000000 0.155232 232.000000 0.000140 256.000000 -0.113193 12.000000 -0.101413 129.000000 0.051897 134.000000 0.037335
164731.000000 1.261965 270.000000 261.000000 176.000000 0.007183 211.000000 0.151417 229.000000 -0.018035 248.000000 -0.121875 12.000000 -0.102613 113.000000 0.048868 124.000000 0.035891
165246.000000 1.195678 254.000000 253.000000 170.000000 0.004529 204.000000 0.182552 219.000000 -0.004345 235.000000 -0.050943 14.000000 -0.096938 126.000000 0.043295 152.000000 -0.001252
165499.000000 1.112695 253.000000 257.000000 155.000000 0.005630 204.000000 0.166495 219.000000 -0.006876 242.000000 -0.038111 12.000000 -0.108511 125.000000 0.051975 155.000000 0.005630
165756.000000 1.124945 257.000000 277.000000 187.000000 -0.019494 222.000000 0.154627 243.000000 -0.046299 261.000000 -0.148526 13.000000 -0.092284 119.000000 0.037037 130.000000 0.023965
166301.000000 1.162822 268.000000 269.000000 180.000000 0.012044 218.000000 0.172200 234.000000 -0.012861 256.000000 -0.130040 13.000000 -0.095140 126.000000 0.051847 142.000000 0.006000
166570.000000 1.112782 269.000000 272.000000 182.000000 0.002229 220.000000 0.168091 234.000000 -0.002914 253.000000 -0.021424 11.000000 -0.101150 121.000000 0.045440 135.000000 0.017526
167371.000000 1.157754 259.000000 270.000000 182.000000 -0.004437 218.000000 0.155549 235.000000 -0.013698 253.000000 -0.038178 13.000000 -0.105881 119.000000 0.050736 158.000000 -0.010142
167641.000000 1.082982 270.000000 271.000000 174.000000 0.014637 221.000000 0.170465 243.000000 -0.020098 254.000000 -0.045284 12.000000 -0.087897 130.000000 0.052039 149.000000 0.008699
167912.000000 1.118842 271.000000 279.000000 193.000000 0.001469 227.000000 0.159788 242.000000 -0.016137 261.000000 -0.041954 14.000000 -0.069730 117.000000 0.026902 123.000000 0.011306
168191.000000 1.144268 279.000000 294.000000 186.000000 0.002149 242.000000 0.151357 256.000000 -0.018925 278.000000 -0.091480 10.000000 -0.106203 127.000000 0.057334 166.000000 0.000705
169074.000000 1.158788 289.000000 275.000000 192.000000 0.006316 226.000000 0.158653 238.000000 -0.017538 263.000000 -0.139387 11.000000 -0.085790 132.000000 0.039544 135.000000 -0.005189
169349.000000 1.124987 275.000000 281.000000 194.000000 0.027903 229.000000 0.156227 244.000000 -0.017736 266.000000 -0.155619 11.000000 -0.094729 115.000000 0.062339 129.000000 0.013935
169907.000000 1.341772 277.000000 295.000000 197.000000 -0.015654 229.000000 0.155352 253.000000 0.018188 279.000000 -0.084977 13.000000 -0.101569 128.000000 0.045560 154.000000 -0.030470
170719.000000 1.129170 223.000000 355.000000 267.000000 -0.008144 289.000000 0.108299 303.000000 0.091212 336.000000 -0.023099 13.000000 -0.058243 131.000000 0.058392 152.000000 -0.016329
171074.000000 1.160160 355.000000 299.000000 213.000000 0.009037 235.000000 0.124776 249.000000 0.093287 281.000000 -0.097495 13.000000 -0.085500 126.000000 0.056194 150.000000 0.016990
171921.000000 1.152229 268.000000 279.000000 183.000000 0.006524 228.000000 0.148784 248.000000 -0.035008 262.000000 -0.036182 13.000000 -0.088981 113.000000 0.045621 128.000000 -0.002306
172776.000000 1.134513 294.000000 291.000000 205.000000 0.013564 229.000000 0.118532 234.000000 0.088313 272.000000 -0.033176 16.000000 -0.077841 126.000000 0.046941 137.000000 0.012977
173067.000000 1.189239 291.000000 285.000000 200.000000 -0.016287 220.000000 0.142101 235.000000 0.113732 268.000000 -0.081767 12.000000 -0.095998 118.000000 0.039780 152.000000 -0.020067
173629.000000 1.208859 277.000000 278.000000 192.000000 -0.004710 217.000000 0.120243 238.000000 -0.034505 261.000000 -0.032780 17.000000 -0.087161 115.000000 0.045392 155.000000 -0.016869
173907.000000 1.170232 278.000000 269.000000 184.000000 0.016978 220.000000 0.139405 236.000000 -0.028228 252.000000 -0.028213 12.000000 -0.081349 124.000000 0.034673 132.000000 0.021130
174176.000000 1.175530 269.000000 276.000000 185.000000 0.014783 210.000000 0.146714 236.000000 0.003970 257.000000 -0.026529 12.000000 -0.070349 131.000000 0.040043 154.000000 -0.012383
174737.000000 1.102939 285.000000 287.000000 195.000000 -0.001338 219.000000 0.135732 246.000000 -0.027360 273.000000 -0.107754 14.000000 -0.080356 136.000000 0.040392 150.000000 -0.013429
175323.000000 1.174007 299.000000 286.000000 199.000000 0.006286 223.000000 0.150220 248.000000 -0.001723 270.000000 -0.135733 11.000000 -0.050927 119.000000 0.045130 135.000000 0.011366
175877.000000 1.143602 268.000000 268.000000 187.000000 0.002253 219.000000 0.128165 235.000000 -0.022025 254.000000 -0.106635 13.000000 -0.087288 135.000000 0.034030 151.000000 0.001177
176145.000000 1.253458 268.000000 283.000000 181.000000 0.013636 221.000000 0.151946 227.000000 0.110175 264.000000 -0.016406 15.000000 -0.103284 137.000000 0.040123 154.000000 -0.016633
177523.000000 1.259710 274.000000 275.000000 182.000000 -0.006319 223.000000 0.174478 241.000000 -0.032044 258.000000 -0.139190 12.000000 -0.076950 139.000000 0.034296 154.000000 -0.013228
178059.000000 1.352661 261.000000 258.000000 176.000000 -0.009586 194.000000 0.118703 202.000000 0.093939 240.000000 -0.030654 20.000000 -0.079066 127.000000 0.024110 154.000000 -0.030716
178578.000000 1.348178 261.000000 264.000000 182.000000 -0.002341 212.000000 0.147959 222.000000 -0.031037 246.000000 -0.059470 12.000000 -0.087591 135.000000 0.031638 148.000000 -0.011167
179388.000000 1.268824 270.000000 274.000000 190.000000 0.032339 208.000000 0.139424 217.000000 0.106681 259.000000 -0.091688 12.000000 -0.108872 135.000000 0.048180 152.000000 0.005595
179662.000000 1.319364 274.000000 265.000000 176.000000 -0.017920 216.000000 0.156202 234.000000 -0.021288 249.000000 -0.097588 11.000000 -0.076858 126.000000 0.043635 148.000000 -0.002119
179927.000000 1.213040 265.000000 256.000000 176.000000 -0.000295 207.000000 0.167938 224.000000 -0.004507 238.000000 -0.016262 13.000000 -0.096738 128.000000 0.040437 153.000000 -0.002162
180705.000000 1.302662 261.000000 259.000000 156.000000 -0.015374 206.000000 0.134177 219.000000 -0.011010 246.000000 -0.108094 16.000000 -0.084268 126.000000 0.042774 159.000000 -0.036173
180964.000000 1.077314 259.000000 273.000000 183.000000 0.001458 219.000000 0.155225 243.000000 -0.012283 259.000000 -0.122910 13.000000 -0.068472 119.000000 0.024811 139.000000 0.006866
181811.000000 1.303029 287.000000 274.000000 189.000000 -0.011097 223.000000 0.173889 239.000000 -0.000498 261.000000 -0.126358 13.000000 -0.076530 147.000000 0.026615 158.000000 -0.005877
182624.000000 1.286977 270.000000 273.000000 175.000000 0.014374 223.000000 0.163587 235.000000 -0.018200 258.000000 -0.167950 15.000000 -0.098619 110.000000 0.026622 123.000000 0.014332
183181.000000 1.162597 284.000000 294.000000 199.000000 -0.016365 241.000000 0.170311 259.000000 -0.023905 275.000000 -0.051962 13.000000 -0.086117 129.000000 0.063968 177.000000 -0.001176
183475.000000 1.203884 294.000000 304.000000 210.000000 -0.025458 253.000000 0.137761 265.000000 -0.031533 287.000000 -0.130407 14.000000 -0.084360 123.000000 0.063358 131.000000 0.050631
184361.000000 1.268565 289.000000 289.000000 196.000000 -0.015689 239.000000 0.166267 251.000000 -0.013342 275.000000 -0.116415 13.000000 -0.108877 124.000000 0.057904 146.000000 -0.015230
185213.000000 1.247354 279.000000 297.000000 204.000000 0.007004 246.000000 0.176705 273.000000 -0.041554 278.000000 -0.050395 12.000000 -0.081426 114.000000 0.058699 123.000000 0.035627
185510.000000 1.194198 297.000000 319.000000 220.000000 -0.027446 249.000000 0.141344 260.000000 0.125733 304.000000 -0.157421 14.000000 -0.091835 140.000000 0.064555 194.000000 -0.004298
186428.000000 1.172918 290.000000 289.000000 202.000000 0.014416 224.000000 0.152516 232.000000 0.118989 275.000000 -0.133001 12.000000 -0.085597 122.000000 0.075701 140.000000 0.000844
186717.000000 1.199148 289.000000 289.000000 202.000000 -0.011501 228.000000 0.127499 259.000000 -0.026985 283.000000 0.203704 10.000000 -0.084535 117.000000 0.065736 153.000000 -0.002304
187291.000000 1.209298 285.000000 287.000000 189.000000 -0.008971 221.000000 0.118347 231.000000 0.071465 269.000000 -0.104047 11.000000 -0.093902 118.000000 0.053087 137.000000 -0.023496
187872.000000 1.204262 294.000000 307.000000 205.000000 -0.011191 255.000000 0.145863 273.000000 -0.043463 292.000000 -0.122084 13.000000 -0.103353 137.000000 0.059195 154.000000 0.001690
188179.000000 1.271601 307.000000 302.000000 208.000000 0.003357 249.000000 0.140304 261.000000 -0.036171 285.000000 -0.034748 14.000000 -0.089761 136.000000 0.057851 154.000000 -0.001616
188481.000000 1.189276 302.000000 283.000000 197.000000 -0.016005 232.000000 0.123700 250.000000 -0.041442 265.000000 -0.100770 12.000000 -0.102733 122.000000 0.031502 129.000000 -0.006538
189043.000000 1.242756 279.000000 287.000000 188.000000 0.002806 238.000000 0.142601 248.000000 -0.017964 272.000000 -0.069529 12.000000 -0.091710 121.000000 0.039830 135.000000 0.015552
189330.000000 1.144219 287.000000 295.000000 199.000000 -0.003161 234.000000 0.118187 256.000000 -0.028412 276.000000 -0.022630 12.000000 -0.082661 130.000000 0.055310 155.000000 -0.002711
190529.000000 1.170321 300.000000 292.000000 207.000000 -0.018106 229.000000 0.111489 237.000000 0.081097 275.000000 -0.051647 12.000000 -0.066717 120.000000 0.044176 157.000000 0.002536
191112.000000 1.143396 291.000000 284.000000 190.000000 -0.021943 234.000000 0.135272 245.000000 -0.000620 267.000000 -0.110809 13.000000 -0.090018 119.000000 0.053874 129.000000 0.006881
191674.000000 1.176827 278.000000 303.000000 200.000000 0.020483 249.000000 0.146112 264.000000 -0.021804 286.000000 -0.053590 12.000000 -0.107686 139.000000 0.058209 155.000000 -0.012886
191977.000000 1.188589 303.000000 305.000000 215.000000 0.003714 251.000000 0.154341 266.000000 -0.017589 291.000000 -0.138684 12.000000 -0.092915 142.000000 0.042198 157.000000 -0.005060
192575.000000 1.167330 293.000000 287.000000 203.000000 0.002002 239.000000 0.139262 251.000000 0.002146 268.000000 -0.029720 12.000000 -0.085525 126.000000 0.036373 145.000000 0.007331
192862.000000 1.119496 287.000000 284.000000 204.000000 -0.006315 237.000000 0.142726 252.000000 -0.023684 267.000000 -0.039467 13.000000 -0.077760 116.000000 0.043797 127.000000 0.029629
193146.000000 1.155127 284.000000 277.000000 191.000000 -0.004038 216.000000 0.152171 225.000000 0.071199 260.000000 -0.054637 10.000000 -0.073838 120.000000 0.049011 139.000000 0.030438
193423.000000 1.175202 277.000000 280.000000 191.000000 0.007785 216.000000 0.114713 229.000000 0.055592 268.000000 -0.186315 12.000000 -0.069392 130.000000 0.041711 144.000000 0.006851
193703.000000 1.221713 280.000000 291.000000 204.000000 0.027395 240.000000 0.143571 251.000000 -0.012480 276.000000 -0.084531 9.000000 -0.123664 126.000000 0.055765 157.000000 0.012614
193994.000000 1.199310 291.000000 287.000000 193.000000 -0.007398 236.000000 0.144705 247.000000 -0.026157 273.000000 -0.108853 9.000000 -0.116049 124.000000 0.039655 153.000000 -0.003623
194281.000000 1.143497 287.000000 294.000000 193.000000 -0.018154 227.000000 0.126953 255.000000 -0.017450 279.000000 -0.106679 14.000000 -0.093120 120.000000 0.036916 150.000000 0.023624
194868.000000 1.403091 293.000000 288.000000 200.000000 0.015001 240.000000 0.161411 253.000000 0.003213 274.000000 -0.131819 14.000000 -0.126595 169.000000 0.033042 174.000000 0.025190
195156.000000 1.322507 288.000000 271.000000 173.000000 -0.014686 210.000000 0.145200 217.000000 0.110544 255.000000 -0.132369 13.000000 -0.077035 114.000000 0.011666 119.000000 -0.008568
195701.000000 1.189356 274.000000 278.000000 193.000000 0.001272 226.000000 0.106918 237.000000 -0.013473 264.000000 -0.113334 13.000000 -0.061710 116.000000 0.031081 123.000000 -0.027509
196560.000000 1.157662 291.000000 288.000000 184.000000 -0.008811 222.000000 0.156658 236.000000 0.113445 269.000000 -0.123797 13.000000 -0.061677 126.000000 0.070844 135.000000 0.025360
197685.000000 1.145876 270.000000 265.000000 173.000000 -0.012696 197.000000 0.125783 215.000000 0.113902 243.000000 -0.018792 12.000000 -0.078984 117.000000 0.035298 123.000000 0.024200
197950.000000 1.228026 265.000000 275.000000 183.000000 -0.009254 224.000000 0.144714 240.000000 -0.017168 258.000000 -0.043925 14.000000 -0.072192 115.000000 0.015567 123.000000 0.010347
199353.000000 1.354646 277.000000 266.000000 182.000000 -0.005392 218.000000 0.143875 236.000000 -0.021985 250.000000 -0.031122 12.000000 -0.081905 124.000000 0.038528 127.000000 0.004029
199619.000000 1.261073 266.000000 276.000000 182.000000 0.001469 224.000000 0.155574 241.000000 -0.009753 257.000000 -0.035597 12.000000 -0.081468 128.000000 0.045502 142.000000 -0.003636
200993.000000 1.229073 278.000000 279.000000 186.000000 -0.017869 230.000000 0.156404 256.000000 -0.036355 260.000000 -0.038673 7.000000 -0.199201 140.000000 0.031713 152.000000 -0.004886
201545.000000 1.311031 273.000000 262.000000 168.000000 -0.015975 211.000000 0.176717 239.000000 -0.033939 246.000000 -0.055019 13.000000 -0.092260 127.000000 0.041881 134.000000 0.034059
202067.000000 1.254045 260.000000 272.000000 172.000000 0.002183 223.000000 0.194288 237.000000 0.005432 254.000000 -0.022562 13.000000 -0.091818 140.000000 0.030801 151.000000 -0.006738
202339.000000 1.281952 272.000000 276.000000 183.000000 -0.011111 223.000000 0.184488 237.000000 -0.019822 260.000000 -0.164162 12.000000 -0.075604 144.000000 0.028542 157.000000 0.005315
203741.000000 1.191230 272.000000 281.000000 194.000000 0.019181 228.000000 0.165479 245.000000 -0.023563 264.000000 -0.053704 14.000000 -0.085899 122.000000 0.054015 146.000000 0.023669
205459.000000 1.244909 300.000000 279.000000 191.000000 0.009732 226.000000 0.154683 244.000000 -0.033012 265.000000 -0.138483 13.000000 -0.094698 133.000000 0.058780 151.000000 0.023934
206016.000000 1.221243 278.000000 273.000000 177.000000 -0.002748 224.000000 0.167906 235.000000 0.012561 255.000000 -0.035198 12.000000 -0.125811 141.000000 0.044232 155.000000 -0.013200
206567.000000 1.283659 278.000000 278.000000 189.000000 0.022367 226.000000 0.169732 242.000000 -0.018074 262.000000 -0.123356 13.000000 -0.108410 117.000000 0.039943 126.000000 0.006682
207130.000000 1.140009 285.000000 291.000000 195.000000 0.012360 236.000000 0.162781 254.000000 -0.025589 273.000000 -0.020368 12.000000 -0.108282 130.000000 0.053772 150.000000 -0.001853
207421.000000 1.163866 291.000000 304.000000 197.000000 -0.003651 249.000000 0.128373 265.000000 -0.015312 286.000000 -0.143245 15.000000 -0.092009 133.000000 0.072541 151.000000 0.015316
208548.000000 1.164273 270.000000 274.000000 175.000000 0.002021 224.000000 0.162322 241.000000 -0.002834 258.000000 -0.045341 14.000000 -0.059471 123.000000 0.043023 136.000000 0.008698
208822.000000 1.212653 274.000000 279.000000 181.000000 -0.002241 225.000000 0.193222 242.000000 -0.008643 259.000000 -0.061447 14.000000 -0.090340 117.000000 0.048973 123.000000 0.026025
209973.000000 1.200761 289.000000 283.000000 194.000000 0.003170 233.000000 0.177671 263.000000 -0.054789 267.000000 -0.131262 13.000000 -0.085824 119.000000 0.055622 128.000000 0.024918
210256.000000 1.198641 283.000000 278.000000 197.000000 0.017674 227.000000 0.182454 257.000000 -0.045025 262.000000 -0.130982 13.000000 -0.084277 118.000000 0.047380 127.000000 0.009717
210534.000000 1.104077 278.000000 275.000000 180.000000 -0.002131 227.000000 0.154825 239.000000 -0.028886 260.000000 -0.041249 11.000000 -0.109153 111.000000 0.052709 126.000000 0.005875
210809.000000 1.212638 275.000000 277.000000 191.000000 0.013574 226.000000 0.164013 244.000000 -0.011472 262.000000 -0.152506 11.000000 -0.106910 111.000000 0.041782 121.000000 0.005059
211654.000000 1.136214 289.000000 298.000000 195.000000 -0.023022 244.000000 0.150869 259.000000 -0.024946 283.000000 -0.168566 13.000000 -0.105387 131.000000 0.056015 145.000000 -0.002198
212228.000000 1.151148 276.000000 274.000000 186.000000 -0.003788 225.000000 0.161540 238.000000 -0.037770 257.000000 -0.058680 15.000000 -0.086001 133.000000 0.039154 144.000000 0.011178
212502.000000 1.149268 274.000000 276.000000 183.000000 0.013189 225.000000 0.157969 242.000000 -0.030292 261.000000 -0.079557 13.000000 -0.104400 111.000000 0.060812 130.000000 0.034028
213058.000000 1.199187 280.000000 269.000000 182.000000 -0.008489 217.000000 0.163487 233.000000 -0.011858 250.000000 -0.043881 14.000000 -0.094344 125.000000 0.036847 143.000000 0.014028
214181.000000 1.191900 286.000000 284.000000 199.000000 -0.011791 232.000000 0.175933 246.000000 -0.005524 270.000000 -0.128925 12.000000 -0.108224 136.000000 0.046900 156.000000 0.009438
214465.000000 1.174352 284.000000 273.000000 195.000000 0.025038 223.000000 0.169711 248.000000 -0.009883 253.000000 -0.036546 11.000000 -0.120584 140.000000 0.039107 164.000000 0.030536
214738.000000 1.128496 273.000000 267.000000 176.000000 -0.013672 221.000000 0.155682 233.000000 0.003518 258.000000 -0.244473 16.000000 -0.070159 120.000000 0.045738 160.000000 -0.000614
215005.000000 1.121361 267.000000 276.000000 180.000000 -0.033543 226.000000 0.133601 253.000000 -0.042405 260.000000 -0.075901 11.000000 -0.106004 117.000000 0.036760 141.000000 0.008717
215563.000000 1.163291 282.000000 288.000000 190.000000 0.001822 232.000000 0.156154 243.000000 -0.004628 272.000000 -0.130185 11.000000 -0.095693 123.000000 0.034275 136.000000 -0.005521
216141.000000 1.184877 290.000000 290.000000 204.000000 0.011587 237.000000 0.155362 253.000000 0.002902 276.000000 -0.106126 12.000000 -0.067614 126.000000 0.036620 151.000000 0.000976
216431.000000 1.200239 290.000000 279.000000 196.000000 0.009810 227.000000 0.170312 238.000000 -0.005016 265.000000 -0.100486 14.000000 -0.092210 130.000000 0.032362 136.000000 0.016751
216710.000000 1.174906 279.000000 280.000000 194.000000 0.001017 230.000000 0.174649 247.000000 -0.026087 262.000000 -0.051493 12.000000 -0.085892 116.000000 0.032357 154.000000 -0.015686
216990.000000 1.087288 280.000000 279.000000 178.000000 0.003938 231.000000 0.149803 240.000000 -0.006340 266.000000 -0.114286 10.000000 -0.087177 129.000000 0.054880 154.000000 0.003500
217547.000000 1.189288 278.000000 278.000000 190.000000 0.014201 226.000000 0.163724 239.000000 0.011703 261.000000 -0.089942 11.000000 -0.075695 112.000000 0.043093 154.000000 -0.003587
219813.000000 1.205269 283.000000 286.000000 189.000000 -0.004437 230.000000 0.152951 245.000000 -0.019055 269.000000 -0.137609 13.000000 -0.073334 120.000000 0.055671 157.000000 -0.000535
220691.000000 1.279915 299.000000 286.000000 192.000000 0.001505 237.000000 0.168577 250.000000 0.011273 273.000000 -0.122346 14.000000 -0.120289 161.000000 0.028290 172.000000 0.021708
220977.000000 1.220148 286.000000 276.000000 191.000000 0.012857 230.000000 0.167436 246.000000 -0.016012 259.000000 -0.033350 13.000000 -0.059977 114.000000 0.040386 125.000000 0.013130
221527.000000 1.167417 274.000000 277.000000 191.000000 0.015529 230.000000 0.149867 240.000000 -0.025526 264.000000 -0.119180 13.000000 -0.108444 135.000000 0.030035 148.000000 0.001602
221804.000000 1.228187 277.000000 278.000000 188.000000 0.014832 224.000000 0.178363 246.000000 -0.020730 261.000000 -0.032973 12.000000 -0.087486 116.000000 0.042694 128.000000 0.019778
222375.000000 1.138542 293.000000 291.000000 199.000000 -0.009062 241.000000 0.163311 269.000000 -0.046329 275.000000 -0.057961 13.000000 -0.092960 127.000000 0.046114 156.000000 -0.017197
222666.000000 1.245315 291.000000 286.000000 193.000000 -0.013510 236.000000 0.164219 248.000000 -0.009259 269.000000 -0.081202 14.000000 -0.099936 124.000000 0.045687 135.000000 0.023931
223507.000000 1.169085 279.000000 277.000000 185.000000 -0.008833 227.000000 0.161087 240.000000 -0.025669 260.000000 -0.037487 12.000000 -0.102183 123.000000 0.022069 135.000000 0.005596
224047.000000 1.208204 263.000000 283.000000 175.000000 -0.026692 228.000000 0.145067 246.000000 -0.042269 266.000000 -0.159228 12.000000 -0.106858 117.000000 0.056332 138.000000 -0.007932
225195.000000 1.222795 279.000000 278.000000 184.000000 -0.004565 228.000000 0.171434 240.000000 0.010306 263.000000 -0.150618 10.000000 -0.087504 115.000000 0.043729 127.000000 0.018745
225743.000000 1.321889 270.000000 281.000000 182.000000 -0.010582 229.000000 0.180356 245.000000 -0.008217 269.000000 -0.167121 13.000000 -0.100259 120.000000 0.031728 131.000000 0.016289
226024.000000 1.221735 281.000000 272.000000 172.000000 -0.012761 218.000000 0.158583 236.000000 -0.022137 258.000000 -0.129221 11.000000 -0.087997 131.000000 0.046598 172.000000 -0.012761
226296.000000 1.135199 272.000000 278.000000 181.000000 -0.031251 226.000000 0.150883 244.000000 -0.035464 262.000000 -0.128377 13.000000 -0.103029 118.000000 0.045363 140.000000 -0.006880
226863.000000 1.218236 289.000000 282.000000 190.000000 -0.017793 230.000000 0.154052 247.000000 -0.023016 264.000000 -0.062075 15.000000 -0.106511 122.000000 0.035601 130.000000 0.006681
227702.000000 1.138482 274.000000 274.000000 183.000000 0.005376 226.000000 0.144172 243.000000 -0.018712 258.000000 -0.066519 14.000000 -0.070576 134.000000 0.039701 150.000000 -0.002492
228808.000000 1.172706 291.000000 287.000000 199.000000 0.002059 235.000000 0.133707 256.000000 -0.041921 270.000000 -0.045558 14.000000 -0.099850 126.000000 0.043668 130.000000 0.019891
229660.000000 1.167351 283.000000 276.000000 189.000000 -0.033952 227.000000 0.127300 242.000000 -0.008482 262.000000 -0.144816 10.000000 -0.098841 108.000000 0.038371 150.000000 0.001945
229936.000000 1.177566 276.000000 278.000000 196.000000 0.008545 228.000000 0.158124 252.000000 -0.023411 262.000000 -0.050324 12.000000 -0.079581 113.000000 0.034948 126.000000 0.024557
230214.000000 1.185509 278.000000 271.000000 173.000000 0.005828 217.000000 0.163412 232.000000 -0.012072 256.000000 -0.082667 13.000000 -0.091762 142.000000 0.044702 153.000000 -0.003574
230485.000000 1.144293 271.000000 276.000000 186.000000 0.004203 225.000000 0.172750 240.000000 -0.023646 260.000000 -0.036701 11.000000 -0.094718 116.000000 0.031772 134.000000 0.004294
230761.000000 1.114772 276.000000 297.000000 210.000000 -0.037319 237.000000 0.126600 239.000000 0.107071 282.000000 -0.094320 11.000000 -0.087110 128.000000 0.050141 156.000000 -0.015111
231058.000000 1.170539 297.000000 300.000000 209.000000 0.030529 245.000000 0.152692 275.000000 -0.029689 281.000000 -0.131915 13.000000 -0.094400 133.000000 0.050142 150.000000 0.008997
232190.000000 1.180455 276.000000 270.000000 172.000000 0.019054 206.000000 0.141906 218.000000 0.106390 251.000000 -0.039989 12.000000 -0.114577 128.000000 0.045874 140.000000 0.039604
232732.000000 1.176317 272.000000 284.000000 194.000000 0.008036 229.000000 0.167803 247.000000 -0.010379 268.000000 -0.117934 14.000000 -0.096613 138.000000 0.035829 153.000000 -0.020033
233016.000000 1.145137 284.000000 286.000000 194.000000 -0.026583 235.000000 0.154588 249.000000 -0.010851 269.000000 -0.027008 12.000000 -0.095018 124.000000 0.038546 132.000000 0.024799
233875.000000 1.113877 286.000000 276.000000 188.000000 -0.015011 226.000000 0.138624 242.000000 -0.040247 260.000000 -0.060263 11.000000 -0.101328 112.000000 0.034433 119.000000 0.002585
234151.000000 1.154236 276.000000 264.000000 174.000000 0.006248 214.000000 0.168759 231.000000 -0.016304 249.000000 -0.047825 12.000000 -0.114888 124.000000 0.037724 137.000000 0.017362
234415.000000 1.149103 264.000000 270.000000 182.000000 0.010500 219.000000 0.151937 229.000000 -0.025884 254.000000 -0.068046 13.000000 -0.117840 136.000000 0.044158 143.000000 0.024612
234959.000000 1.136882 274.000000 291.000000 200.000000 0.008723 236.000000 0.130637 251.000000 -0.009538 275.000000 -0.060997 16.000000 -0.094046 120.000000 0.052409 156.000000 -0.002538
235547.000000 1.158857 297.000000 281.000000 193.000000 -0.004671 229.000000 0.156368 246.000000 -0.006734 266.000000 -0.085449 14.000000 -0.081846 120.000000 0.056079 151.000000 -0.003500
235828.000000 1.151852 281.000000 281.000000 189.000000 -0.019764 228.000000 0.148289 240.000000 -0.020331 263.000000 -0.135314 13.000000 -0.074230 121.000000 0.059205 146.000000 0.010614
236390.000000 1.187147 281.000000 275.000000 189.000000 0.006318 224.000000 0.159797 240.000000 -0.025406 258.000000 -0.163837 14.000000 -0.103840 124.000000 0.024495 148.000000 -0.005724
238610.000000 1.292245 266.000000 274.000000 188.000000 0.017944 224.000000 0.181090 237.000000 -0.009366 261.000000 -0.121842 14.000000 -0.103319 160.000000 0.034719 169.000000 0.006880
238884.000000 1.170712 274.000000 274.000000 186.000000 -0.011319 223.000000 0.155260 247.000000 -0.029880 252.000000 -0.025898 15.000000 -0.093362 125.000000 0.030960 136.000000 0.007353
240541.000000 1.161402 273.000000 269.000000 186.000000 -0.004357 221.000000 0.141712 246.000000 -0.043651 252.000000 -0.077351 14.000000 -0.110449 143.000000 0.031158 158.000000 -0.048136
242632.000000 1.329109 258.000000 248.000000 155.000000 -0.022696 198.000000 0.208050 207.000000 0.023348 228.000000 -0.028580 13.000000 -0.086425 121.000000 0.049644 155.000000 -0.022696
243132.000000 1.185251 252.000000 257.000000 172.000000 -0.011037 208.000000 0.142051 221.000000 -0.028829 237.000000 -0.069832 12.000000 -0.078716 131.000000 0.059277 160.000000 -0.012870
243643.000000 1.305470 254.000000 266.000000 174.000000 0.004032 210.000000 0.184459 226.000000 -0.002612 248.000000 -0.040325 15.000000 -0.088167 125.000000 0.049327 149.000000 0.030362
244729.000000 1.376680 267.000000 256.000000 172.000000 -0.000531 208.000000 0.179232 219.000000 -0.006160 237.000000 -0.029281 11.000000 -0.084369 125.000000 0.049267 145.000000 -0.006439
246352.000000 1.236725 286.000000 296.000000 192.000000 -0.024275 243.000000 0.142874 258.000000 -0.019492 282.000000 -0.102111 13.000000 -0.089544 128.000000 0.072145 158.000000 -0.000865
246935.000000 1.318691 287.000000 267.000000 179.000000 -0.018344 214.000000 0.143596 232.000000 -0.048772 252.000000 -0.166686 12.000000 -0.096620 121.000000 0.050611 157.000000 -0.008859
247469.000000 1.208010 267.000000 273.000000 179.000000 -0.004385 222.000000 0.165159 240.000000 -0.030170 261.000000 -0.161001 12.000000 -0.082838 122.000000 0.047678 134.000000 0.012665
247742.000000 1.194409 273.000000 276.000000 188.000000 0.011616 224.000000 0.172153 240.000000 -0.010511 263.000000 -0.164507 12.000000 -0.094117 124.000000 0.047291 135.000000 0.013495
248300.000000 1.284337 282.000000 287.000000 200.000000 -0.014476 237.000000 0.167968 250.000000 -0.008911 268.000000 -0.012186 11.000000 -0.058268 124.000000 0.052914 152.000000 -0.007965
248878.000000 1.207003 291.000000 280.000000 196.000000 -0.005917 230.000000 0.155463 246.000000 -0.030242 265.000000 -0.138516 11.000000 -0.103484 117.000000 0.056140 120.000000 0.018460
249158.000000 1.434807 280.000000 276.000000 177.000000 -0.004822 227.000000 0.167216 244.000000 -0.018035 262.000000 -0.113196 13.000000 -0.109819 114.000000 0.029604 127.000000 0.004653
249706.000000 1.130312 272.000000 283.000000 185.000000 -0.016270 223.000000 0.125333 229.000000 0.116148 271.000000 -0.183274 12.000000 -0.080626 116.000000 0.051614 148.000000 0.008993
250558.000000 1.318707 284.000000 301.000000 200.000000 -0.007066 247.000000 0.163152 265.000000 -0.004497 282.000000 -0.047067 17.000000 -0.113376 136.000000 0.056382 147.000000 0.017072
251160.000000 1.216204 301.000000 282.000000 193.000000 0.013702 234.000000 0.166994 245.000000 0.004533 264.000000 -0.017334 12.000000 -0.084925 115.000000 0.053367 144.000000 0.007477
251994.000000 1.178206 282.000000 292.000000 196.000000 -0.026598 241.000000 0.132648 254.000000 -0.004560 274.000000 -0.044453 6.000000 -0.185429 126.000000 0.057121 155.000000 -0.018242
252868.000000 1.246544 283.000000 292.000000 205.000000 -0.010390 239.000000 0.146965 268.000000 -0.024476 272.000000 -0.020667 15.000000 -0.072315 128.000000 0.055901 144.000000 -0.007749
253456.000000 1.229002 296.000000 286.000000 205.000000 0.038749 229.000000 0.151573 235.000000 0.114395 269.000000 -0.048065 15.000000 -0.099699 123.000000 0.048120 149.000000 -0.003623
254010.000000 1.283579 268.000000 273.000000 178.000000 -0.017478 223.000000 0.179402 250.000000 -0.056240 253.000000 -0.037322 11.000000 -0.099807 115.000000 0.046338 133.000000 0.010786
254585.000000 1.179286 302.000000 307.000000 211.000000 -0.000909 252.000000 0.136587 265.000000 -0.007692 290.000000 -0.116531 14.000000 -0.064037 128.000000 0.055864 132.000000 0.026789
255453.000000 1.257893 282.000000 286.000000 195.000000 -0.002138 239.000000 0.141511 250.000000 -0.010730 269.000000 -0.028409 12.000000 -0.080024 123.000000 0.061204 134.000000 0.002068
256027.000000 1.246161 288.000000 269.000000 181.000000 0.018303 218.000000 0.184052 237.000000 -0.005855 255.000000 -0.111827 12.000000 -0.064392 134.000000 0.039874 156.000000 0.018807
257710.000000 1.132963 270.000000 256.000000 154.000000 -0.015881 210.000000 0.144556 233.000000 -0.030147 238.000000 -0.031415 12.000000 -0.068872 118.000000 0.021035 154.000000 -0.015881
257966.000000 1.344119 256.000000 260.000000 173.000000 0.020989 209.000000 0.176007 231.000000 -0.013366 245.000000 -0.048460 13.000000 -0.082087 120.000000 0.034635 127.000000 0.014966
258226.000000 1.300961 260.000000 253.000000 149.000000 -0.013841 202.000000 0.173268 229.000000 -0.041259 236.000000 -0.073547 14.000000 -0.078475 135.000000 0.032088 151.000000 -0.024939
259005.000000 1.397523 267.000000 275.000000 179.000000 0.012543 221.000000 0.184188 236.000000 -0.018338 261.000000 -0.126143 11.000000 -0.217039 161.000000 0.035584 179.000000 0.012543
259280.000000 1.321848 275.000000 261.000000 171.000000 -0.006874 210.000000 0.167438 225.000000 -0.028395 245.000000 -0.051546 13.000000 -0.079486 137.000000 0.029690 156.000000 -0.000575
259541.000000 1.236980 261.000000 271.000000 175.000000 0.010471 220.000000 0.158692 236.000000 -0.000291 257.000000 -0.121511 11.000000 -0.094308 123.000000 0.026329 132.000000 -0.007965
260334.000000 1.394240 257.000000 252.000000 168.000000 0.002648 201.000000 0.156805 217.000000 -0.014746 234.000000 -0.021359 14.000000 -0.085934 128.000000 0.044807 143.000000 -0.019877
261968.000000 1.276998 277.000000 274.000000 189.000000 -0.009840 215.000000 0.141049 237.000000 -0.038105 256.000000 -0.042274 12.000000 -0.077659 126.000000 0.024293 139.000000 -0.015673
262516.000000 1.330142 274.000000 273.000000 177.000000 0.000294 220.000000 0.153179 235.000000 -0.021727 254.000000 -0.062337 13.000000 -0.089025 118.000000 0.037761 129.000000 0.025565
262789.000000 1.223261 273.000000 274.000000 186.000000 0.016271 222.000000 0.153431 234.000000 0.003492 258.000000 -0.130787 13.000000 -0.068825 126.000000 0.043339 134.000000 0.006208
263350.000000 1.273115 287.000000 291.000000 190.000000 0.009781 237.000000 0.174487 248.000000 -0.016501 276.000000 -0.150451 12.000000 -0.117434 124.000000 0.053694 153.000000 0.012929
263641.000000 1.336949 291.000000 290.000000 187.000000 0.004009 235.000000 0.160774 255.000000 -0.027454 270.000000 -0.038614 13.000000 -0.079632 127.000000 0.053767 136.000000 0.010663
263931.000000 1.209067 290.000000 287.000000 194.000000 0.002639 226.000000 0.176449 254.000000 -0.031624 269.000000 -0.031046 15.000000 -0.086511 119.000000 0.050315 131.000000 0.014046
264499.000000 1.273066 281.000000 274.000000 189.000000 0.003906 224.000000 0.152747 253.000000 -0.025198 258.000000 -0.093034 12.000000 -0.096699 108.000000 0.029650 133.000000 0.007948
265062.000000 1.163049 289.000000 292.000000 196.000000 0.001589 237.000000 0.149805 254.000000 -0.018080 278.000000 -0.144460 14.000000 -0.074917 121.000000 0.047000 158.000000 -0.011037
265354.000000 1.131933 292.000000 298.000000 199.000000 -0.021091 244.000000 0.142170 255.000000 -0.005306 276.000000 -0.048005 11.000000 -0.081831 129.000000 0.055448 143.000000 0.016078
265947.000000 1.256464 295.000000 292.000000 208.000000 0.022127 239.000000 0.166008 264.000000 -0.020934 272.000000 -0.052156 12.000000 -0.083989 125.000000 0.047512 155.000000 -0.005815
266815.000000 1.238750 286.000000 284.000000 191.000000 0.015876 234.000000 0.163898 245.000000 -0.017372 268.000000 -0.190788 14.000000 -0.076924 123.000000 0.043512 130.000000 0.021240
267099.000000 1.213117 284.000000 277.000000 185.000000 0.021063 223.000000 0.154963 249.000000 -0.042700 264.000000 -0.178859 12.000000 -0.076162 131.000000 0.052054 148.000000 0.001161
267679.000000 1.171434 303.000000 300.000000 208.000000 -0.022516 246.000000 0.133551 258.000000 -0.031480 285.000000 -0.135497 15.000000 -0.076123 129.000000 0.050105 144.000000 0.007035
268260.000000 1.198647 281.000000 285.000000 196.000000 -0.010380 232.000000 0.159744 251.000000 -0.049488 269.000000 -0.167528 12.000000 -0.090317 122.000000 0.053326 159.000000 0.005563
268823.000000 1.172217 278.000000 279.000000 193.000000 0.024352 228.000000 0.151028 238.000000 0.000918 267.000000 -0.158034 18.000000 -0.094573 118.000000 0.029376 137.000000 0.009594
269102.000000 1.193988 279.000000 282.000000 178.000000 -0.019472 233.000000 0.149426 246.000000 -0.014775 264.000000 -0.035871 12.000000 -0.077344 120.000000 0.033841 132.000000 0.027054
269384.000000 1.254054 282.000000 286.000000 182.000000 -0.000062 235.000000 0.160906 249.000000 -0.022306 273.000000 -0.181366 14.000000 -0.103640 120.000000 0.047169 156.000000 -0.007836
270257.000000 1.096312 296.000000 294.000000 196.000000 0.022291 239.000000 0.148345 255.000000 -0.012845 279.000000 -0.148814 13.000000 -0.096774 129.000000 0.053295 166.000000 0.031190
271370.000000 1.127432 275.000000 286.000000 185.000000 0.007707 237.000000 0.152090 255.000000 -0.045275 267.000000 -0.048096 13.000000 -0.086755 120.000000 0.047556 121.000000 0.042618
271656.000000 1.216358 286.000000 298.000000 174.000000 0.000000 245.000000 0.143385 265.000000 -0.036112 281.000000 -0.139734 14.000000 -0.083266 128.000000 0.033416 159.000000 0.010642
272533.000000 1.144144 288.000000 306.000000 206.000000 0.005719 254.000000 0.148022 273.000000 -0.026523 289.000000 -0.092021 15.000000 -0.083070 140.000000 0.052270 162.000000 0.014201
272839.000000 1.213247 306.000000 284.000000 188.000000 0.023700 234.000000 0.160712 254.000000 -0.011576 270.000000 -0.084632 13.000000 -0.086378 122.000000 0.052989 142.000000 0.007694
273123.000000 1.234759 284.000000 271.000000 167.000000 0.014344 221.000000 0.160081 246.000000 -0.026157 257.000000 -0.071408 12.000000 -0.070020 121.000000 0.040220 128.000000 0.021207
273394.000000 1.245787 271.000000 281.000000 180.000000 0.013559 231.000000 0.169540 254.000000 -0.039472 268.000000 -0.138892 13.000000 -0.098523 113.000000 0.053991 116.000000 0.030448
273675.000000 1.175717 281.000000 292.000000 229.000000 0.116031 246.000000 0.136986 265.000000 -0.020411 278.000000 -0.078218 13.000000 -0.063797 126.000000 0.053689 130.000000 0.040163
273967.000000 1.191703 292.000000 297.000000 207.000000 0.022571 243.000000 0.167094 255.000000 -0.010414 283.000000 -0.149507 12.000000 -0.082747 134.000000 0.054628 154.000000 -0.000373
274264.000000 1.245838 297.000000 297.000000 209.000000 0.007916 244.000000 0.158680 260.000000 -0.040112 280.000000 -0.049110 12.000000 -0.097954 125.000000 0.055677 157.000000 0.009297
275403.000000 1.318793 271.000000 269.000000 181.000000 0.002866 218.000000 0.156313 233.000000 -0.003874 252.000000 -0.040612 14.000000 -0.093571 127.000000 0.029675 129.000000 -0.004981
275949.000000 1.208990 277.000000 287.000000 177.000000 -0.027117 234.000000 0.168303 246.000000 0.008569 273.000000 -0.141448 15.000000 -0.088330 120.000000 0.052544 155.000000 -0.012115
276516.000000 1.326746 280.000000 289.000000 187.000000 -0.014072 236.000000 0.135380 253.000000 -0.036562 274.000000 -0.217815 12.000000 -0.087421 118.000000 0.061164 142.000000 0.005301
277649.000000 1.389475 260.000000 274.000000 180.000000 -0.022235 224.000000 0.152488 236.000000 -0.016509 260.000000 -0.121150 11.000000 -0.066061 112.000000 0.030480 125.000000 0.015059
277923.000000 1.417518 274.000000 289.000000 193.000000 -0.001516 241.000000 0.166686 251.000000 0.003910 272.000000 -0.021424 13.000000 -0.075338 127.000000 0.050604 147.000000 -0.008139
278518.000000 1.264768 306.000000 296.000000 209.000000 0.010410 245.000000 0.184162 261.000000 -0.036009 282.000000 -0.122669 14.000000 -0.091626 132.000000 0.058352 157.000000 -0.000583
278814.000000 1.481893 296.000000 285.000000 199.000000 -0.008633 233.000000 0.160023 249.000000 -0.016716 269.000000 -0.094786 13.000000 -0.077167 165.000000 0.020329 174.000000 -0.019843
279382.000000 1.304696 283.000000 194.000000 90.000000 -0.111968 120.000000 0.204555 159.000000 -0.051387 181.000000 -0.068853 11.000000 -0.081402 114.000000 0.167830 159.000000 -0.051387
279576.000000 1.248433 194.000000 342.000000 252.000000 -0.040267 281.000000 0.103625 290.000000 0.064001 328.000000 -0.085204 12.000000 -0.064264 160.000000 0.029632 170.000000 -0.003691
279918.000000 1.394890 342.000000 291.000000 208.000000 -0.010767 244.000000 0.134575 255.000000 -0.027008 272.000000 -0.046727 12.000000 -0.063040 124.000000 0.075871 159.000000 -0.002063
280209.000000 1.481598 291.000000 302.000000 215.000000 -0.017231 235.000000 0.128102 244.000000 0.068118 285.000000 -0.048997 14.000000 -0.064545 122.000000 0.041475 156.000000 -0.031696
280511.000000 1.256630 302.000000 304.000000 204.000000 -0.012287 239.000000 0.143354 247.000000 0.096551 283.000000 -0.042092 14.000000 -0.067522 132.000000 0.050951 135.000000 0.037848
281110.000000 1.382010 295.000000 292.000000 194.000000 -0.012807 228.000000 0.137364 237.000000 0.085327 277.000000 -0.053325 12.000000 -0.050013 126.000000 0.060992 143.000000 0.014721
281402.000000 1.451252 292.000000 280.000000 193.000000 0.002255 231.000000 0.137473 258.000000 -0.055241 263.000000 -0.061871 13.000000 -0.052900 115.000000 0.050379 140.000000 0.012713
281682.000000 1.328976 280.000000 273.000000 175.000000 -0.012727 214.000000 0.140910 217.000000 0.085878 258.000000 -0.114983 12.000000 -0.069518 111.000000 0.054672 122.000000 0.033309
281955.000000 1.266478 273.000000 279.000000 182.000000 -0.037838 213.000000 0.126334 222.000000 0.067557 260.000000 -0.116926 12.000000 -0.075418 115.000000 0.034436 130.000000 -0.046020
283389.000000 1.304079 292.000000 283.000000 197.000000 -0.004061 235.000000 0.159721 245.000000 -0.011799 268.000000 -0.058446 14.000000 -0.092443 122.000000 0.027570 133.000000 0.008745
283672.000000 1.413576 283.000000 272.000000 180.000000 -0.007212 225.000000 0.125982 236.000000 -0.019707 252.000000 -0.033860 12.000000 -0.066847 121.000000 0.037860 131.000000 0.018640
283944.000000 1.462238 272.000000 273.000000 188.000000 -0.029472 222.000000 0.126437 239.000000 -0.024769 256.000000 -0.045882 14.000000 -0.070237 132.000000 0.027664 154.000000 -0.016162
284778.000000 1.341557 286.000000 295.000000 223.000000 0.082383 245.000000 0.152307 256.000000 -0.017612 279.000000 -0.045605 12.000000 -0.084790 130.000000 0.053753 153.000000 -0.008353
285073.000000 1.439976 295.000000 291.000000 202.000000 -0.016806 239.000000 0.140075 255.000000 -0.032040 273.000000 -0.049799 14.000000 -0.078957 119.000000 0.033118 186.000000 -0.021178
285653.000000 1.357566 289.000000 283.000000 198.000000 0.004089 223.000000 0.131458 236.000000 0.064907 264.000000 -0.038572 10.000000 -0.066758 120.000000 0.038185 126.000000 0.028295
285936.000000 1.271084 283.000000 275.000000 191.000000 0.037270 210.000000 0.146046 219.000000 0.118427 257.000000 -0.020885 14.000000 -0.087050 113.000000 0.024736 120.000000 -0.005123
286486.000000 1.394341 275.000000 277.000000 182.000000 -0.006721 229.000000 0.159538 245.000000 -0.022138 259.000000 -0.027968 13.000000 -0.069188 110.000000 0.033586 124.000000 -0.009721
286763.000000 1.396546 277.000000 289.000000 200.000000 -0.020488 222.000000 0.125968 233.000000 0.085327 275.000000 -0.120578 16.000000 -0.076263 120.000000 0.052447 134.000000 0.009329
289373.000000 1.293262 296.000000 294.000000 191.000000 -0.020136 241.000000 0.121262 257.000000 -0.039694 276.000000 -0.035480 15.000000 -0.076971 127.000000 0.040999 148.000000 -0.006349
289667.000000 1.293907 294.000000 304.000000 214.000000 -0.005377 254.000000 0.156187 266.000000 -0.021446 288.000000 -0.070006 15.000000 -0.085765 139.000000 0.060760 157.000000 0.011228
289971.000000 1.398834 304.000000 287.000000 190.000000 0.000503 238.000000 0.146472 255.000000 -0.003405 273.000000 -0.090426 12.000000 -0.081213 124.000000 0.056773 153.000000 0.006775
290538.000000 1.248811 280.000000 276.000000 194.000000 0.010833 215.000000 0.125379 223.000000 0.080850 258.000000 -0.037094 12.000000 -0.056644 121.000000 0.047069 154.000000 -0.024675
291696.000000 1.291278 288.000000 294.000000 190.000000 -0.024878 228.000000 0.125963 239.000000 0.081370 276.000000 -0.029601 14.000000 -0.065447 127.000000 0.043847 143.000000 -0.012890
291990.000000 1.294084 294.000000 292.000000 203.000000 -0.002192 241.000000 0.147137 253.000000 -0.002454 271.000000 -0.020573 10.000000 -0.076386 125.000000 0.054268 153.000000 -0.002069
293123.000000 1.257574 278.000000 289.000000 199.000000 0.028797 241.000000 0.147768 263.000000 -0.034707 275.000000 -0.127622 14.000000 -0.076468 122.000000 0.066328 150.000000 -0.015724
294011.000000 1.206778 298.000000 285.000000 197.000000 -0.016174 236.000000 0.124802 252.000000 -0.027597 272.000000 -0.137912 14.000000 -0.076388 122.000000 0.041536 148.000000 -0.014077
294296.000000 1.254547 285.000000 286.000000 200.000000 0.017251 221.000000 0.134130 231.000000 0.092374 268.000000 -0.027987 12.000000 -0.101033 125.000000 0.058511 153.000000 0.006896
294857.000000 1.415372 275.000000 286.000000 188.000000 -0.002962 238.000000 0.124809 247.000000 -0.017682 270.000000 -0.138386 12.000000 -0.091978 122.000000 0.047639 134.000000 0.017247
295421.000000 1.233691 278.000000 297.000000 195.000000 0.009997 230.000000 0.142829 238.000000 0.096700 283.000000 -0.154189 16.000000 -0.070071 128.000000 0.044929 144.000000 -0.014682
296889.000000 1.269122 277.000000 281.000000 194.000000 0.006223 233.000000 0.163743 249.000000 -0.028827 264.000000 -0.054783 14.000000 -0.081442 118.000000 0.046666 129.000000 0.002277
298920.000000 1.308889 292.000000 286.000000 202.000000 -0.003517 236.000000 0.130261 247.000000 -0.034079 268.000000 -0.036676 14.000000 -0.092038 121.000000 0.059827 153.000000 -0.015111
299206.000000 1.273578 286.000000 278.000000 184.000000 0.032354 215.000000 0.135024 231.000000 0.125745 258.000000 -0.037985 12.000000 -0.090919 130.000000 0.047223 154.000000 0.004810
299756.000000 1.401043 272.000000 296.000000 184.000000 -0.028135 243.000000 0.152074 257.000000 -0.001186 282.000000 -0.141717 16.000000 -0.098094 127.000000 0.054158 154.000000 -0.013872
300360.000000 1.253395 308.000000 303.000000 218.000000 -0.009790 251.000000 0.121553 267.000000 -0.010594 286.000000 -0.045405 10.000000 -0.083925 135.000000 0.068562 155.000000 -0.016077
300940.000000 1.425046 277.000000 271.000000 185.000000 -0.004868 220.000000 0.171263 232.000000 -0.009646 257.000000 -0.112641 15.000000 -0.092669 125.000000 0.024823 152.000000 -0.034326
303503.000000 1.486578 262.000000 270.000000 152.000000 -0.036507 222.000000 0.139745 238.000000 -0.026557 250.000000 -0.040835 13.000000 -0.100333 112.000000 0.020313 152.000000 -0.036507
303773.000000 1.392363 270.000000 293.000000 176.000000 -0.026454 238.000000 0.157055 253.000000 -0.023727 278.000000 -0.233852 16.000000 -0.088873 130.000000 0.055304 152.000000 -0.024572
304639.000000 1.374352 277.000000 285.000000 195.000000 0.001932 232.000000 0.150824 258.000000 -0.049645 268.000000 -0.048470 12.000000 -0.090526 123.000000 0.054445 154.000000 0.006236
305211.000000 1.315857 287.000000 287.000000 202.000000 -0.023570 228.000000 0.126746 241.000000 0.102890 269.000000 -0.034839 13.000000 -0.084286 121.000000 0.048780 158.000000 -0.008809
305709.000000 1.397881 211.000000 327.000000 245.000000 -0.011476 277.000000 0.152113 290.000000 -0.026052 310.000000 -0.057427 13.000000 -0.038074 109.000000 0.033681 119.000000 0.023948
306337.000000 1.232754 301.000000 304.000000 211.000000 -0.015909 237.000000 0.121849 245.000000 0.083887 288.000000 -0.098900 14.000000 -0.067574 135.000000 0.054109 154.000000 0.011287
306641.000000 1.216868 304.000000 303.000000 200.000000 -0.038779 251.000000 0.121090 262.000000 -0.014129 284.000000 -0.094477 13.000000 -0.077300 137.000000 0.042041 152.000000 -0.039636
307234.000000 1.327988 290.000000 280.000000 196.000000 -0.009264 229.000000 0.163542 241.000000 -0.014420 266.000000 -0.100783 16.000000 -0.083467 115.000000 0.043969 137.000000 0.010065
307514.000000 1.280159 280.000000 231.000000 153.000000 0.011539 177.000000 0.159251 191.000000 -0.004133 213.000000 -0.004257 11.000000 -0.104747 128.000000 0.048606 153.000000 0.011539
307745.000000 1.273515 231.000000 318.000000 228.000000 0.002251 269.000000 0.132955 277.000000 0.003410 301.000000 -0.132085 12.000000 -0.027771 126.000000 0.038270 153.000000 -0.029250
308625.000000 1.297626 275.000000 287.000000 198.000000 0.009003 235.000000 0.158630 265.000000 -0.028708 269.000000 -0.054273 13.000000 -0.070138 121.000000 0.053068 156.000000 -0.012241
308912.000000 1.232651 287.000000 305.000000 211.000000 -0.003076 250.000000 0.135464 265.000000 -0.022295 290.000000 -0.117011 11.000000 -0.070110 131.000000 0.040942 134.000000 0.037604
309780.000000 1.345212 264.000000 273.000000 174.000000 -0.003569 222.000000 0.151186 232.000000 -0.012121 254.000000 -0.074317 15.000000 -0.087283 117.000000 0.036127 128.000000 0.009638
311199.000000 1.314788 284.000000 290.000000 191.000000 -0.030138 240.000000 0.123782 250.000000 -0.033382 271.000000 -0.063572 15.000000 -0.082973 126.000000 0.058509 138.000000 0.011158
311783.000000 1.302778 294.000000 279.000000 194.000000 0.024385 228.000000 0.171731 242.000000 -0.012016 262.000000 -0.035761 14.000000 -0.095264 131.000000 0.051367 142.000000 0.033811
312062.000000 1.359791 279.000000 266.000000 181.000000 -0.009610 219.000000 0.167831 234.000000 -0.037498 250.000000 -0.052922 11.000000 -0.078984 117.000000 0.042011 156.000000 -0.040391
312605.000000 1.242193 277.000000 222.000000 77.000000 -0.119784 160.000000 0.139675 179.000000 -0.023335 204.000000 -0.071536 12.000000 -0.077667 132.000000 0.035286 179.000000 -0.023335
313808.000000 1.318244 299.000000 283.000000 197.000000 -0.017423 219.000000 0.126009 227.000000 0.102419 264.000000 -0.085861 15.000000 -0.062601 129.000000 0.043648 155.000000 -0.022069
314373.000000 1.300146 282.000000 292.000000 206.000000 0.013884 242.000000 0.134209 255.000000 -0.004023 278.000000 -0.124164 13.000000 -0.081233 129.000000 0.052655 154.000000 0.000020
314952.000000 1.270089 287.000000 293.000000 201.000000 -0.026609 242.000000 0.112075 252.000000 -0.027063 280.000000 -0.130093 11.000000 -0.066773 126.000000 0.055387 155.000000 0.015874
315245.000000 1.213479 293.000000 297.000000 203.000000 -0.002222 247.000000 0.126698 264.000000 -0.022720 281.000000 -0.063960 12.000000 -0.072763 127.000000 0.064952 147.000000 -0.008355
316136.000000 1.320549 292.000000 279.000000 197.000000 0.008057 228.000000 0.149597 236.000000 0.042529 261.000000 -0.025024 12.000000 -0.082991 118.000000 0.046884 157.000000 -0.015658
316415.000000 1.211560 279.000000 278.000000 175.000000 0.000565 216.000000 0.112981 224.000000 0.093154 262.000000 -0.043227 13.000000 -0.080009 116.000000 0.060387 154.000000 -0.020236
316693.000000 1.300035 278.000000 289.000000 192.000000 -0.019420 235.000000 0.157978 260.000000 -0.055626 268.000000 -0.073762 16.000000 -0.088866 123.000000 0.060382 152.000000 -0.024905
317266.000000 1.318378 284.000000 295.000000 185.000000 -0.013649 243.000000 0.164317 255.000000 0.002796 281.000000 -0.146575 14.000000 -0.080069 128.000000 0.067120 154.000000 -0.009103
317785.000000 1.222204 224.000000 360.000000 276.000000 -0.007737 310.000000 0.124458 322.000000 -0.009774 344.000000 -0.043805 15.000000 -0.048451 127.000000 0.066389 158.000000 -0.021965
318145.000000 1.356491 360.000000 293.000000 208.000000 -0.002134 245.000000 0.131083 256.000000 -0.025421 280.000000 -0.159888 13.000000 -0.096457 125.000000 0.075516 157.000000 -0.000522
318438.000000 1.361869 293.000000 291.000000 181.000000 -0.022869 240.000000 0.146460 255.000000 -0.028336 275.000000 -0.050856 11.000000 -0.070936 127.000000 0.055518 156.000000 -0.019547
318729.000000 1.297231 291.000000 282.000000 196.000000 0.015193 225.000000 0.128420 244.000000 -0.007586 270.000000 -0.160724 12.000000 -0.095121 116.000000 0.053006 129.000000 0.027741
319011.000000 1.179543 282.000000 212.000000 92.000000 -0.148491 143.000000 0.240933 175.000000 -0.025651 195.000000 -0.017519 11.000000 -0.082558 126.000000 0.062187 175.000000 -0.025651
319223.000000 1.336521 212.000000 364.000000 266.000000 -0.024493 311.000000 0.136499 325.000000 -0.006183 350.000000 -0.139757 13.000000 -0.067949 122.000000 0.049492 124.000000 0.018709
320205.000000 1.235502 300.000000 289.000000 204.000000 -0.005651 226.000000 0.102120 238.000000 0.078390 270.000000 -0.069742 12.000000 -0.116440 124.000000 0.060727 142.000000 -0.008365
320786.000000 1.445705 292.000000 286.000000 217.000000 0.061423 238.000000 0.135125 251.000000 -0.025283 271.000000 -0.065063 12.000000 -0.058164 119.000000 0.057920 137.000000 0.001805
321072.000000 1.380971 286.000000 300.000000 197.000000 0.004641 248.000000 0.146883 259.000000 -0.021393 282.000000 -0.037395 14.000000 -0.077852 132.000000 0.050113 147.000000 -0.003885
321968.000000 1.445996 304.000000 307.000000 223.000000 -0.010625 245.000000 0.123625 254.000000 0.057606 293.000000 -0.128003 11.000000 -0.068581 131.000000 0.059996 154.000000 0.011427
322275.000000 1.392201 307.000000 298.000000 210.000000 -0.000487 248.000000 0.145239 265.000000 -0.045105 286.000000 -0.150966 13.000000 -0.066981 137.000000 0.048337 150.000000 -0.000488
322573.000000 1.326746 298.000000 284.000000 199.000000 -0.011198 222.000000 0.131310 247.000000 -0.015165 271.000000 -0.090178 11.000000 -0.065717 122.000000 0.045266 135.000000 0.001081
324641.000000 1.407208 300.000000 289.000000 204.000000 -0.015158 241.000000 0.156861 255.000000 -0.015364 272.000000 -0.045004 12.000000 -0.078261 122.000000 0.057827 150.000000 -0.014965
325495.000000 1.340136 279.000000 288.000000 203.000000 -0.019113 237.000000 0.120649 247.000000 -0.007784 274.000000 -0.143239 15.000000 -0.079690 126.000000 0.041349 156.000000 -0.019322
326698.000000 1.227363 301.000000 289.000000 208.000000 0.020824 227.000000 0.115978 250.000000 -0.024524 275.000000 -0.085905 13.000000 -0.095064 123.000000 0.052431 155.000000 -0.017221
327566.000000 1.357993 289.000000 294.000000 208.000000 -0.022724 241.000000 0.134833 256.000000 -0.041390 277.000000 -0.139150 14.000000 -0.073446 121.000000 0.046005 154.000000 -0.059640
328452.000000 1.339896 302.000000 302.000000 214.000000 0.007319 237.000000 0.132275 248.000000 0.082041 288.000000 -0.166596 14.000000 -0.072251 128.000000 0.060788 153.000000 0.010189
329339.000000 1.195886 282.000000 281.000000 201.000000 -0.000957 220.000000 0.129939 233.000000 0.071568 259.000000 -0.044277 12.000000 -0.072110 119.000000 0.055687 131.000000 0.030045
330524.000000 1.207360 307.000000 296.000000 195.000000 -0.027631 230.000000 0.109440 255.000000 -0.004745 279.000000 -0.053507 12.000000 -0.079633 127.000000 0.051295 142.000000 -0.018390
331124.000000 1.378479 304.000000 288.000000 206.000000 -0.001616 229.000000 0.110566 234.000000 0.075424 273.000000 -0.097598 10.000000 -0.061097 116.000000 0.051239 152.000000 -0.005379
331989.000000 1.204887 284.000000 291.000000 197.000000 -0.001691 229.000000 0.120413 239.000000 0.084363 275.000000 -0.080638 11.000000 -0.072200 129.000000 0.055465 158.000000 -0.010345
333479.000000 1.315867 279.000000 289.000000 205.000000 0.018916 231.000000 0.126500 238.000000 0.093961 272.000000 -0.037466 13.000000 -0.077063 125.000000 0.049331 155.000000 -0.023459
333768.000000 1.452960 289.000000 288.000000 201.000000 0.005891 224.000000 0.132990 230.000000 0.068179 272.000000 -0.056226 14.000000 -0.059906 124.000000 0.038843 152.000000 -0.022649
334056.000000 1.270531 288.000000 292.000000 207.000000 -0.007930 225.000000 0.120663 240.000000 0.059566 278.000000 -0.137251 12.000000 -0.082211 129.000000 0.057522 153.000000 -0.001698
334348.000000 1.195915 292.000000 296.000000 203.000000 -0.021536 228.000000 0.092337 253.000000 -0.026110 282.000000 -0.134152 14.000000 -0.070153 127.000000 0.046705 142.000000 -0.008168
335543.000000 1.216351 294.000000 280.000000 196.000000 -0.008426 222.000000 0.135790 230.000000 0.071119 264.000000 -0.032046 14.000000 -0.069338 119.000000 0.036736 132.000000 0.025688
335823.000000 1.217514 280.000000 277.000000 195.000000 0.017531 232.000000 0.140494 244.000000 -0.012829 262.000000 -0.042014 14.000000 -0.070935 115.000000 0.038420 125.000000 0.002541
336100.000000 1.353567 277.000000 286.000000 200.000000 -0.004078 236.000000 0.132174 251.000000 -0.027623 268.000000 -0.056728 12.000000 -0.047624 120.000000 0.060444 156.000000 0.014140
338432.000000 1.345760 286.000000 290.000000 188.000000 -0.020552 226.000000 0.112626 233.000000 0.077327 272.000000 -0.135540 14.000000 -0.066057 118.000000 0.058355 139.000000 -0.002631
339025.000000 1.231047 303.000000 302.000000 204.000000 -0.007774 250.000000 0.135988 265.000000 -0.040061 285.000000 -0.047177 12.000000 -0.062054 136.000000 0.054297 150.000000 -0.006143
339327.000000 1.223684 302.000000 309.000000 219.000000 -0.002684 242.000000 0.120056 252.000000 0.068268 291.000000 -0.118615 12.000000 -0.090892 134.000000 0.042322 154.000000 -0.018556
339926.000000 1.325180 290.000000 279.000000 197.000000 -0.006370 219.000000 0.134239 234.000000 0.092077 260.000000 -0.045538 15.000000 -0.057278 117.000000 0.054203 132.000000 -0.015671
340205.000000 1.411315 279.000000 288.000000 200.000000 -0.001547 222.000000 0.121494 229.000000 0.079487 270.000000 -0.092896 17.000000 -0.079057 120.000000 0.052600 135.000000 -0.023389
340780.000000 1.321641 287.000000 295.000000 220.000000 0.051105 246.000000 0.126406 255.000000 0.001625 280.000000 -0.087202 13.000000 -0.056933 128.000000 0.060592 160.000000 0.015846
341075.000000 1.400964 295.000000 304.000000 212.000000 -0.005377 252.000000 0.131164 262.000000 -0.031799 287.000000 -0.052315 11.000000 -0.049412 137.000000 0.058301 154.000000 -0.013563
341379.000000 1.313063 304.000000 306.000000 215.000000 -0.007220 237.000000 0.127560 248.000000 0.100192 288.000000 -0.188844 14.000000 -0.061450 135.000000 0.069072 154.000000 0.003291
341974.000000 1.258599 289.000000 292.000000 203.000000 0.001175 248.000000 0.145915 267.000000 -0.019901 271.000000 -0.032314 14.000000 -0.091513 128.000000 0.049057 150.000000 0.010170
342266.000000 1.418362 292.000000 282.000000 202.000000 0.018988 219.000000 0.120355 258.000000 -0.061275 266.000000 -0.137482 15.000000 -0.067061 117.000000 0.060716 128.000000 0.007318
342822.000000 1.265690 274.000000 295.000000 192.000000 -0.017210 240.000000 0.110846 269.000000 -0.063650 275.000000 -0.147599 12.000000 -0.082008 132.000000 0.059219 154.000000 -0.029213
343995.000000 1.308532 289.000000 285.000000 199.000000 -0.038786 237.000000 0.126400 247.000000 -0.056517 270.000000 -0.157228 4.000000 0.159048 123.000000 0.042114 152.000000 -0.013447
345129.000000 1.297909 285.000000 287.000000 199.000000 -0.011724 236.000000 0.135631 254.000000 -0.029698 270.000000 -0.078553 12.000000 -0.063278 117.000000 0.057904 156.000000 -0.020314
346804.000000 1.161976 207.000000 344.000000 254.000000 -0.012215 284.000000 0.096706 290.000000 0.078838 329.000000 -0.161174 11.000000 -0.032756 117.000000 0.042548 133.000000 0.005913
348063.000000 1.186907 303.000000 305.000000 209.000000 -0.024546 239.000000 0.104807 263.000000 -0.018047 289.000000 -0.126286 12.000000 -0.055586 136.000000 0.049113 149.000000 -0.044085
350112.000000 1.391438 307.000000 298.000000 212.000000 -0.003435 246.000000 0.133243 260.000000 -0.026961 279.000000 -0.030974 14.000000 -0.066977 133.000000 0.056664 151.000000 0.006677
350410.000000 1.295656 298.000000 283.000000 197.000000 0.008199 220.000000 0.147464 226.000000 0.123937 266.000000 -0.046780 14.000000 -0.082901 117.000000 0.054359 135.000000 0.023433
350980.000000 1.285834 287.000000 285.000000 203.000000 0.015858 236.000000 0.133346 246.000000 -0.018569 267.000000 -0.027785 13.000000 -0.099243 124.000000 0.052940 140.000000 0.003894
351265.000000 1.416355 285.000000 216.000000 141.000000 0.031877 161.000000 0.149101 194.000000 -0.041667 200.000000 -0.033171 12.000000 -0.071371 120.000000 0.057712 124.000000 0.033479
351481.000000 1.393619 216.000000 340.000000 257.000000 0.002195 277.000000 0.140382 289.000000 0.113188 322.000000 -0.033613 13.000000 -0.043024 120.000000 0.053535 162.000000 0.011163
351821.000000 1.276857 340.000000 294.000000 205.000000 0.000653 244.000000 0.127425 256.000000 -0.032496 276.000000 -0.072605 15.000000 -0.071232 134.000000 0.066586 145.000000 0.016288
352115.000000 1.213445 294.000000 301.000000 211.000000 -0.012293 250.000000 0.124566 266.000000 -0.022847 283.000000 -0.065335 13.000000 -0.073953 134.000000 0.074205 155.000000 -0.005152
352416.000000 1.397834 301.000000 295.000000 206.000000 0.011368 235.000000 0.138799 241.000000 0.092875 276.000000 -0.040341 14.000000 -0.062778 128.000000 0.064182 149.000000 0.005609
352711.000000 1.351394 295.000000 276.000000 181.000000 -0.012679 229.000000 0.130342 244.000000 -0.017749 261.000000 -0.050694 11.000000 -0.061257 115.000000 0.038531 131.000000 0.017983
353257.000000 1.248728 270.000000 292.000000 191.000000 -0.005521 222.000000 0.119292 231.000000 0.082898 274.000000 -0.174767 13.000000 -0.088356 127.000000 0.038040 143.000000 -0.006241
354426.000000 1.242033 297.000000 292.000000 198.000000 -0.011168 230.000000 0.118362 243.000000 0.088033 273.000000 -0.028456 12.000000 -0.075003 128.000000 0.047542 153.000000 -0.014197
355858.000000 1.304431 278.000000 307.000000 210.000000 -0.005061 253.000000 0.136560 265.000000 -0.024333 293.000000 -0.122624 13.000000 -0.095961 130.000000 0.062549 139.000000 0.028176
356165.000000 1.415402 307.000000 299.000000 208.000000 -0.003117 244.000000 0.140978 256.000000 -0.021828 284.000000 -0.168628 14.000000 -0.060350 130.000000 0.058380 147.000000 0.022144
356758.000000 1.243800 294.000000 288.000000 202.000000 0.008997 226.000000 0.125375 232.000000 0.102208 273.000000 -0.068779 12.000000 -0.064634 125.000000 0.045609 135.000000 -0.006067
358186.000000 1.301274 285.000000 298.000000 203.000000 0.002163 228.000000 0.107082 236.000000 0.084810 285.000000 -0.159388 12.000000 -0.091142 129.000000 0.068133 157.000000 -0.030220
359365.000000 1.301919 278.000000 269.000000 186.000000 -0.019178 221.000000 0.137329 236.000000 -0.012482 255.000000 -0.104145 12.000000 -0.078083 134.000000 0.043825 155.000000 -0.015796
359634.000000 1.222608 269.000000 269.000000 181.000000 -0.005670 207.000000 0.128250 216.000000 0.092199 250.000000 -0.035040 12.000000 -0.091298 130.000000 0.029513 137.000000 0.014671
359903.000000 1.214053 269.000000 279.000000 190.000000 -0.000328 219.000000 0.149724 225.000000 0.119661 263.000000 -0.066199 11.000000 -0.070791 116.000000 0.032064 133.000000 -0.013923
360182.000000 1.276717 279.000000 289.000000 201.000000 -0.038201 238.000000 0.104412 252.000000 -0.028316 273.000000 -0.062325 13.000000 -0.077625 127.000000 0.051536 139.000000 0.016237
360471.000000 1.352487 289.000000 293.000000 200.000000 0.003546 223.000000 0.145381 237.000000 0.088439 276.000000 -0.032814 11.000000 -0.065052 132.000000 0.054382 153.000000 -0.020694
