ekg
0
0.00666618
0.000999928
-0.00285721
0.00611162
-0.00681782
-0.00999975
-0.0186667
0.00176477
0.00210524
-0.0133333
-0.0208693
-0.00339985
-0.0227776
-0.0170689
-0.0275803
-0.0221214
-0.0271435
-0.0402703
-0.0382051
-0.0257316
-0.0136046
-0.0106664
-0.0227661
0.00102043
0.0091176
0.0230188
0.0220904
0.0214911
0.045763
0.0506558
0.0402379
0.0451541
0.0603728
0.0605793
0.0358448
0.0360279
0.0414009
0.0363641
0.041646
0.0317283
0.0521688
0.0470586
0.0321264
0.041461
0.0409889
0.0397849
0.0235262
0.0170622
0.0355558
0.0385652
0.0266023
0.00452375
0.00794411
0.0110555
0.00405407
-0.00707912
0.00265265
0.00290632
-0.00646973
-0.0205374
-0.00967407
0.00624037
0.00208759
-0.0220933
-0.016336
-0.0203767
-0.00870419
-0.0208392
-0.0227699
-0.003901
-0.00912619
-0.0491724
-0.0537758
-0.0406046
-0.0285435
-0.0269279
-0.0402579
-0.0336943
-0.0269814
-0.02528
-0.038682
-0.0373034
-0.0109282
-0.0144682
-0.0128956
-0.0216193
0.00491381
0.0313272
0.0127649
0.0139775
0.0503268
0.0515399
0.0627265
0.0537562
0.0699997
0.0760098
0.0820251
0.0780702
0.10422
0.115248
0.11628
0.112243
0.123356
0.129593
0.110948
0.102347
0.128721
0.129954
0.141005
0.141831
0.116967
0.0771484
0.0572844
0.0422626
0.0272174
0.0120583
0.00192261
-0.00830364
-0.0285077
-0.0186887
-0.0189371
-0.0242772
-0.0295711
-0.0248652
-0.0251369
-0.0254307
-0.0357256
-0.0159974
-0.0163136
-0.0315399
-0.0367665
-0.0418797
-0.0619473
-0.116993
-0.15197
-0.196925
-0.231789
-0.156585
-0.0164728
0.208776
0.554003
0.944274
1.16455
1.07484
0.645134
0.120383
-0.164391
-0.209187
-0.124006
-0.09378
-0.0735765
-0.083282
-0.0880103
-0.0827618
-0.0774446
-0.082128
-0.0868344
-0.101608
-0.0913815
-0.10111
-0.0959067
-0.0856805
-0.0704994
-0.0803633
-0.0802279
-0.075069
-0.0799561
-0.0947976
-0.109662
-0.0895724
-0.0744586
-0.0793457
-0.104187
-0.099051
-0.0939837
-0.0939384
-0.103984
-0.0940514
-0.079165
-0.0843463
-0.104549
-0.0897307
-0.0850477
-0.0904098
-0.0908165
-0.0862231
-0.0766521
-0.0771499
-0.102715
-0.0982361
-0.0888019
-0.0743904
-0.0799103
-0.0903854
-0.0908833
-0.0913582
-0.101878
-0.107399
-0.0979199
-0.0934172
-0.0937114
-0.103778
-0.0938687
-0.093823
-0.103732
-0.118552
-0.128303
-0.122896
-0.127443
-0.1519
-0.161357
-0.130746
-0.140067
-0.149411
-0.13871
-0.123167
-0.117601
-0.1069
-0.101243
-0.0755644
-0.0448179
-0.0442524
-0.0438905
-0.0185962
-0.00816584
0.00239944
-0.00703526
0.00368881
0.0195937
0.0150232
0.0147066
0.0284395
0.035769
0.0164027
0.0159049
0.00981951
0.013598
0.00307846
-0.000880718
-0.0193424
-0.00461388
-0.0139132
-0.0182571
-0.0331211
-0.0234151
-0.0188446
-0.0244555
-0.0402699
-0.0207443
-0.0254726
-0.0141606
-0.0314002
-0.0218306
-0.00626516
-0.00103951
-0.0128493
-0.00703526
0.00253439
0.00192404
-0.00334787
-0.00852823
-0.00857306
-0.00864077
-0.0187545
-0.0238676
-0.0239582
-0.0190492
-0.0191851
-0.0244336
-0.0145917
0.00522709
-0.0099535
-0.020134
-0.0052247
-0.000338078
-0.0104728
-0.0105853
-0.0107436
-0.00597
-0.0061965
-0.0263772
-0.0165353
-0.011694
-0.0119429
-0.0221915
-0.0124173
0.00240088
0.0172195
0.0120382
0.0218797
0.0467215
0.0464954
0.0513372
0.0611787
0.0810657
0.0909748
0.0959063
0.0958838
0.115839
0.110725
0.120634
0.110567
0.0955667
0.11059
0.110544
0.105408
0.105205
0.129889
0.154505
0.129076
0.0835552
0.0680346
0.0724459
0.051857
0.0312228
0.0255227
0.0147529
-0.0161076
-0.0319667
-0.0278716
-0.0188665
-0.0348849
-0.0558343
-0.0418525
-0.0478921
-0.0338426
-0.0497251
-0.0556297
-0.0464668
-0.0422139
-0.0579605
-0.0435266
-0.0390477
-0.044591
-0.090066
-0.13554
-0.150925
-0.196332
-0.246671
-0.161942
0.0127182
0.222491
0.527355
0.897219
1.15211
1.28206
1.31197
1.14688
0.821764
0.71172
-0.00837135
-0.228462
-0.223598
-0.12871
-0.0888462
-0.0940042
-0.099185
-0.0892982
-0.0894566
-0.114547
-0.119683
-0.0947285
-0.104864
-0.104999
-0.120112
-0.100294
-0.100452
-0.110633
-0.115815
-0.106064
-0.0963364
-0.106698
-0.112105
-0.107557
-0.103099
-0.103687
-0.109298
-0.104977
-0.095633
-0.106357
-0.112104
-0.10776
-0.0984845
-0.104141
-0.109819
-0.105544
-0.10629
-0.102037
-0.102898
-0.118779
-0.109413
-0.100001
-0.105454
-0.110883
-0.106177
-0.10638
-0.116516
-0.12663
-0.116652
-0.106653
-0.111609
-0.116495
-0.116404
-0.111223
-0.125975
-0.13068
-0.130341
-0.129957
-0.124549
-0.134097
-0.133689
-0.12817
-0.127672
-0.137288
-0.131813
-0.111269
-0.0955229
-0.0796185
-0.0684872
-0.047039
-0.020546
-0.0197997
-0.0150266
-0.0063386
0.000584602
0.000789165
-0.00461864
0.000879288
0.00354862
0.00836849
0.00411415
-0.000274181
0.0149293
0.0199299
0.0149527
0.00492954
0.00499773
0.0150661
0.0100436
-0.00500202
0.0199981
0.0100203
0.000111103
0.00515604
0.0152469
0.0251565
0.0148396
0.00938749
0.00370836
0.00287151
0.0124192
-0.0122414
-0.0159745
-0.00328207
-0.0189161
-0.0234637
-0.00746822
0.00868511
0.0141382
0.00309753
0.001513
0.0166717
0.0159025
0.00511074
-0.00529671
0.00952291
0.0193639
-0.000816822
-0.00599718
-0.00122356
0.00352764
-0.00681114
-0.00705957
-0.00237656
0.00235224
0.0170126
-0.00328112
0.00635719
0.0160174
0.0307012
0.030407
0.0451126
0.0548182
0.0645924
0.0743661
0.0791397
0.0839362
0.103733
0.0985518
0.108393
0.123122
0.122896
0.122692
0.0973759
0.117014
0.131561
0.126041
0.125475
0.149888
0.159322
0.103689
0.0730324
0.0523996
0.051744
0.0210881
-0.00961351
-0.0153379
-0.00608444
-0.0118542
-0.0226002
-0.0233693
-0.0141392
-0.00979519
-0.0254736
-0.0311751
-0.021944
-0.0227132
-0.0285044
-0.0343184
-0.0251102
-0.0208797
-0.0366488
-0.0423951
-0.0330958
-0.0388198
-0.0545435
-0.105199
-0.14081
-0.166308
-0.211715
-0.247055
-0.127326
0.0724473
0.317311
0.687243
1.04715
1.17713
0.967151
0.457196
-0.0327821
-0.232692
-0.192579
-0.117534
-0.0924659
-0.0823979
-0.0772843
-0.0822387
-0.0971937
-0.0821252
-0.0670576
-0.0720577
-0.0919676
-0.0919003
-0.0769005
-0.0918097
-0.0966964
-0.0916505
-0.0766954
-0.0717854
-0.0869884
-0.0873051
-0.0875988
-0.0828924
-0.0932775
-0.0936623
-0.0791607
-0.0696812
-0.0752921
-0.0859485
-0.0815368
-0.072103
-0.072691
-0.0883017
-0.0788903
-0.0695696
-0.0803165
-0.0908141
-0.0910859
-0.0813799
-0.0716057
-0.0917416
-0.0768547
-0.0719905
-0.0670581
-0.077126
-0.0771718
-0.0671039
-0.0521269
-0.0671272
-0.0770817
-0.0719457
-0.0617423
-0.0714703
-0.0911531
-0.0857687
-0.0803614
-0.0848866
-0.0894337
-0.0888448
-0.0830302
-0.0670128
-0.0808363
-0.0794568
-0.0431895
-0.0377374
-0.0231218
-0.00484133
0.00162888
0.00699043
-0.00262451
-0.00549793
0.00884628
0.0147505
0.0159278
0.0120811
0.0275121
0.0328288
0.028101
0.0233264
0.028553
0.043757
0.0389605
0.00920916
0.0144801
0.0246611
0.0248871
0.0201359
0.0253401
0.0305657
0.0308151
0.0161319
0.0164256
0.0166292
0.00687885
0.00217247
0.00739908
0.0125804
0.0175805
0.00737715
-0.00291777
0.00151682
0.0108843
0.000770569
-0.0135283
-0.0167408
0.00178862
-0.00305367
-0.00730753
0.00253439
0.0151362
0.0055213
-0.00506687
0.00450325
0.0144806
0.0195708
0.00461626
0.00963879
0.00963879
0.0146613
0.00968361
0.00966072
0.0146608
0.00968313
0.0147281
-0.000135899
0.00499964
0.0301123
0.0402026
0.0453162
0.0654292
0.0905652
0.095746
0.0709038
0.0860629
0.0962443
0.101425
0.0966053
0.126809
0.147013
0.132149
0.112149
0.112013
0.13181
0.126606
0.136402
0.14113
0.100836
0.0605183
0.0450659
0.0246363
0.00925255
0.00882292
0.00346088
-0.0119457
-0.00730705
-0.00769186
-0.0180764
-0.0184841
-0.0138235
-0.0141172
-0.0194349
-0.0347295
-0.0350232
-0.0353184
-0.040658
-0.0360208
-0.046361
-0.0366774
-0.0469942
-0.102379
-0.137741
-0.158012
-0.203262
-0.178578
-0.0237594
0.18106
0.491014
0.886105
1.13117
1.15138
0.776581
0.23183
-0.142921
-0.222672
-0.217446
-0.0872197
-0.0919027
-0.0865636
-0.0662694
-0.0710435
-0.0757942
-0.0754771
-0.0751829
-0.0749335
-0.0696855
-0.084414
-0.0791426
-0.0689168
-0.0786905
-0.088419
-0.0931702
-0.0829439
-0.0776725
-0.0924463
-0.0922651
-0.0820842
-0.0869708
-0.0969253
-0.0868797
-0.0919242
-0.0770822
-0.0972853
-0.0925107
-0.0727596
-0.0681219
-0.0835972
-0.0840278
-0.0844803
-0.0948877
-0.110272
-0.110703
-0.096199
-0.0916977
-0.107172
-0.107625
-0.0880775
-0.07862
-0.0789819
-0.0992985
-0.0845022
-0.0595922
-0.069593
-0.09448
-0.0993891
-0.10423
-0.11914
-0.119027
-0.108824
-0.0985069
-0.0930996
-0.112647
-0.122126
-0.11656
-0.111041
-0.125497
-0.12491
-0.109276
-0.103597
-0.107647
-0.101561
-0.0653167
-0.0238223
-0.00717115
-0.0208139
-0.010181
0.0147066
0.00823545
-0.000203609
0.0248418
0.0247517
0.0211544
0.0100226
0.0105648
0.0265155
0.0221267
0.0174656
0.0177598
0.0330539
0.0333481
0.00859737
0.00380135
0.00402784
0.0142541
0.00443506
-0.00540686
0.00472927
0.00488758
-0.00499964
-0.00986433
0.00522661
0.00513649
-0.000135422
-0.0205655
-0.00624418
-0.00174141
0.00346184
-0.0104294
-0.017941
0.00137997
-0.0131216
-0.0126019
-0.0188007
-0.00242043
0.00226307
0.00651646
0.000770092
-0.00436592
-0.00443363
0.000475883
0.0104527
0.010385
0.0103621
0.0102715
-0.00984144
-0.00495481
0
-8.96454e-05
0.00479698
0.00966072
0.00452518
0.0093894
-0.000792027
-0.0109282
-0.00101852
-0.00110912
-0.00624418
0.0136652
0.033597
0.0385752
0.0485749
0.0635753
0.0786886
0.0937114
0.0886884
0.0987568
0.118848
0.123939
0.118938
0.0988474
0.0986662
0.118394
0.12301
0.112579
0.117082
0.121516
0.125905
0.130271
0.0946612
0.0840497
0.0633712
0.0326471
0.0120587
-0.00859785
-0.00929928
-0.0200682
-0.0209064
-0.0217886
-0.0176477
-0.0334172
-0.0491638
-0.0398874
-0.0306787
-0.0364704
-0.0523076
-0.0431447
-0.043982
-0.0497966
-0.0655651
-0.0962896
-0.107013
-0.157737
-0.233347
-0.2688
-0.18414
-0.0294785
0.145138
0.449843
0.844549
1.13932
1.15426
0.804143
0.244075
-0.12597
-0.221038
-0.161061
-0.0961056
-0.0861506
-0.0961728
-0.0961733
-0.0811729
-0.0712399
-0.0813084
-0.0964894
-0.0866251
-0.0817614
-0.0819197
-0.0820556
-0.0822592
-0.0774632
-0.0776443
-0.0928254
-0.0880518
-0.0733237
-0.0636854
-0.0790253
-0.079433
-0.0748401
-0.0703154
-0.080904
-0.0964475
-0.0821266
-0.0778055
-0.0885973
-0.0893431
-0.0750666
-0.0707903
-0.0766048
-0.0974183
-0.0882101
-0.0839562
-0.0796571
-0.0953588
-0.0811281
-0.0769887
-0.0777354
-0.0882559
-0.0937767
-0.0842071
-0.069478
-0.0796824
-0.0898404
-0.084909
-0.0849767
-0.0901804
-0.105384
-0.0955195
-0.0955873
-0.10561
-0.125566
-0.120453
-0.125227
-0.134955
-0.134639
-0.119277
-0.118848
-0.11835
-0.132739
-0.111834
-0.0907927
-0.0796604
-0.0733032
-0.0471711
-0.0216508
-0.00203514
-0.0037322
0.0029192
0.0233712
0.0236659
0.0200911
0.0121045
0.0378056
0.0340271
0.0398417
0.0251813
0.0353394
0.0455203
0.0407472
0.0359049
0.0261092
0.0312223
0.0313129
0.0264034
0.0165167
0.0316753
0.0367875
0.0219235
0.0169916
0.0220819
0.0171723
0.012105
0.016901
0.026494
0.0308151
0.0199099
0.00436687
0.0245028
0.0304756
0.0278287
0.0119238
0.0123081
0.0328507
0.0267878
0.0131903
0.0178967
0.0222173
0.0218329
0.0166969
0.0115843
0.0214481
0.0213804
0.0113358
0.00624514
0.0311775
0.0310869
0.0209966
0.0158606
0.0207472
0.0357246
0.0256119
0.0154986
0.0304084
0.0403175
0.0452724
0.0451818
0.0552044
0.0751595
0.080091
0.0800457
0.095047
0.1
0.109956
0.104957
0.119911
0.124888
0.124911
0.129979
0.144979
0.139956
0.134889
0.129821
0.129731
0.12964
0.144526
0.164391
0.119232
0.074029
0.0787792
0.0584626
0.0281239
0.0177617
0.0024004
-0.0130067
-0.023459
-0.00393391
0.00561428
-0.00990582
-0.0304265
-0.0209465
-0.0165119
-0.0271006
-0.0427566
-0.0384579
-0.0341597
-0.0297933
-0.0503812
-0.0559926
-0.0615802
-0.122169
-0.157712
-0.198164
-0.248526
-0.178843
-0.0390687
0.150796
0.445728
0.815706
1.08577
1.12591
0.841067
0.701293
-0.133481
-0.278187
-0.207916
-0.122577
-0.0822606
-0.0969439
-0.106583
-0.0912437
-0.0958819
-0.09061
-0.100339
-0.0900683
-0.0847063
-0.099412
-0.104073
-0.0987105
-0.0833707
-0.0930319
-0.107737
-0.102488
-0.0821261
-0.0867419
-0.101425
-0.0861311
-0.0808144
-0.0755658
-0.0852714
-0.0849996
-0.0747962
-0.064682
-0.0846596
-0.0796366
-0.0796814
-0.074749
-0.0848618
-0.0899978
-0.080133
-0.0753374
-0.0806308
-0.0959263
-0.0863109
-0.0667181
-0.0821257
-0.0923977
-0.0827141
-0.0680084
-0.0733709
-0.0937786
-0.0741405
-0.0694118
-0.0745015
-0.089479
-0.0944109
-0.0691838
-0.0838213
-0.0833917
-0.0778718
-0.0772834
-0.0816493
-0.0809712
-0.0952926
-0.0895238
-0.073709
-0.0879169
-0.0971479
-0.0914021
-0.0705194
-0.069592
-0.0786414
-0.0677142
-0.056787
-0.0508585
-0.0599771
-0.0390491
-0.0278268
-0.0166059
-0.0154066
-0.00418472
0.0122175
0.0335746
0.0243444
0.0242538
0.0380321
0.0401812
0.0258145
0.020792
0.0265841
0.0246611
0.025001
0.0108376
0.0317426
0.0373764
0.0278969
0.0133715
0.0188241
0.0242319
0.0196161
0.00495625
0.0150018
0.0149341
0.00470781
-0.000767231
0.00400686
0.00943708
0.015749
0.00837326
0.00264931
0.0181699
0.0238948
0.0132837
0.0120616
0.0221291
0.0215855
0.0113134
0.00140381
0.0116529
0.0118108
0.0120144
0.00219536
0.0123315
0.0174904
0.0176263
-0.00717068
-0.00196648
0.00323629
0.00343943
-0.00635719
-0.0111537
0.0040493
0.00925303
-0.0206118
-0.0204077
0.00472832
0.0148425
4.62532e-05
0.000272751
0.0105214
0.0207481
0.0309062
0.0311093
0.0463352
0.0614939
0.0666747
0.0567875
0.0719686
0.0821948
0.0824428
0.092669
0.107895
0.118188
0.138414
0.133663
0.129002
0.124364
0.134657
0.119929
0.130223
0.14545
0.150609
0.120767
0.0709028
0.0609031
0.0608811
0.030745
0.000677586
-0.00448179
-0.00459576
-0.0146861
-0.0248442
-0.0200033
-0.015161
-0.0253649
-0.0406137
-0.0207949
-0.0109758
-0.00624752
-0.0315871
-0.0269032
-0.0371299
-0.0373559
-0.0425367
-0.0426493
-0.0327401
-0.0277624
-0.072763
-0.117763
-0.157672
-0.157537
-0.217423
-0.237265
-0.117061
0.0581651
0.293437
0.643776
0.999161
1.15452
0.959885
0.435269
-0.0544143
-0.159052
-0.183712
-0.138283
-0.107831
-0.0923786
-0.0819712
-0.0915866
-0.0912476
-0.0858626
-0.08041
-0.0899577
-0.0945277
-0.0891428
-0.0737128
-0.0783052
-0.0828981
-0.0774913
-0.0720835
-0.0767446
-0.0814047
-0.0709972
-0.0756125
-0.0902505
-0.0998883
-0.0895491
-0.0842552
-0.0789833
-0.0736666
-0.0933495
-0.0729871
-0.0676479
-0.0673537
-0.0721049
-0.0769238
-0.0718336
-0.0867653
-0.0916977
-0.0866752
-0.0716748
-0.0817208
-0.0967436
-0.0768342
-0.0720153
-0.062264
-0.072535
-0.0778284
-0.0781221
-0.0783482
-0.0835066
-0.068687
-0.0688229
-0.0639815
-0.0690947
-0.0691166
-0.0539589
-0.0636649
-0.0833254
-0.0928955
-0.0773301
-0.0716052
-0.0908136
-0.0899539
-0.0840259
-0.0830302
-0.102035
-0.0961075
-0.0801563
-0.0691161
-0.0580077
-0.0618997
-0.0408139
-0.0297966
-0.00398207
-0.0132804
0.00735378
0.0178738
0.0233045
0.0136895
0.0140748
0.029459
0.0249557
0.0256119
0.021358
0.0371952
0.0382819
0.0245485
0.0353184
0.0552726
0.0690732
0.0461316
0.0325565
0.0273986
0.0180326
0.0160637
-0.00886822
0.00721741
0.0181684
0.00864363
-0.0013113
0.0137339
0.0185986
0.0283499
0.0135765
0.00454903
0.00660753
0.00529528
0.0055213
0.0114036
0.0214043
0.0391183
0.0295715
0.019526
0.0194125
0.019526
0.00977468
0.00506926
0.0153632
0.0306802
0.015996
-0.0137091
-0.0033927
0.00196934
0.00228596
-0.0124421
-0.00212526
0.00321341
0.00857592
-0.0010848
0.00427723
0.0145936
-4.3869e-05
-0.00970411
-0.00945568
0.000770569
0.00604153
0.00631332
0.00153923
0.00183344
0.00219536
-0.00760126
-0.0123291
0.0079422
0.0232587
0.0385528
0.0337791
0.0440273
0.0492768
0.059526
0.0547743
0.0600691
0.0703626
0.0906115
0.0809283
0.0962901
0.126719
0.142218
0.127716
0.113213
0.108734
0.1243
0.124888
0.130385
0.135883
0.131358
0.0967197
0.0570812
0.0622849
0.0523291
0.0222397
-0.00289583
-0.00307703
-0.0083251
-0.00357437
-0.0239139
-0.0293217
-0.019774
-0.0151587
-0.0505204
-0.0559053
-0.0411539
-0.0313802
-0.0465388
-0.0517879
-0.0369015
-0.0220146
-0.0270376
-0.0370378
-0.0320148
-0.0319915
-0.0419693
-0.076879
-0.106879
-0.121812
-0.151766
-0.221676
-0.241586
-0.121518
0.0635953
0.293753
0.683957
0.814137
1.16436
0.984499
0.454567
0.0146575
-0.205275
-0.220184
-0.160071
-0.105002
-0.104935
-0.124799
-0.119686
-0.10455
-0.0944147
-0.0992789
-0.109166
-0.0941434
-0.0841203
-0.0841203
-0.104143
-0.0940752
-0.0889845
-0.0989847
-0.104053
-0.10412
-0.0991893
-0.0892563
-0.104301
-0.10437
-0.0945735
-0.0948682
-0.11523
-0.110659
-0.0961118
-0.0915861
-0.102084
-0.112672
-0.103261
-0.103827
-0.0994835
-0.115117
-0.100864
-0.0866103
-0.0972886
-0.117945
-0.10851
-0.0940986
-0.104709
-0.115388
-0.101089
-0.0967455
-0.0925374
-0.103284
-0.103827
-0.0940981
-0.0943017
-0.109461
-0.114552
-0.109484
-0.10428
-0.114121
-0.11894
-0.113668
-0.118352
-0.12299
-0.147515
-0.151949
-0.151406
-0.155886
-0.170455
-0.159889
-0.139324
-0.13369
-0.133101
-0.107559
-0.0920386
-0.0665178
-0.0508852
-0.0301843
-0.00439167
0.0115585
0.00730467
0.00723648
0.0314445
0.0444083
0.0305395
0.0153136
0.0197487
0.0301557
0.00823307
-0.00273991
0.00307512
0.0335503
0.0286856
0.0186858
0.0187316
0.0238214
0.0238438
0.0137987
0.0137534
0.0136857
0.0285048
0.0131888
0.0127821
0.0172839
0.0165143
0.00558615
0.00515652
0.0155869
0.0220799
0.0103388
-0.00581455
0.0195694
0.0341625
0.0314016
0.0116506
0.0208807
0.0250435
0.0245004
0.0141158
0.0137086
0.0232339
0.0278268
0.0123968
0.00201273
0.00665045
0.0212884
0.0159712
0.0206552
0.030406
0.0250893
0.00974989
0.0193653
0.0339808
0.033596
0.0231662
0.0176682
0.0222836
0.0418992
0.0565591
0.046288
0.070971
0.0905862
0.0952249
0.0848632
0.0995693
0.124275
0.128957
0.113595
0.138211
0.142917
0.152555
0.142216
0.126989
0.131741
0.116356
0.121017
0.120632
0.13518
0.139681
0.119161
0.143572
0.152961
0.122305
0.076581
0.0558796
0.0551329
0.0443177
0.0184584
-0.017446
-0.00335073
0.00074482
-0.000159264
-0.0210643
-0.0169916
-0.0129194
-0.0189152
-0.0299335
-0.0409746
-0.0270157
-0.0430794
-0.0441432
-0.0551391
-0.0410891
-0.0369945
-0.0678086
-0.1086
-0.129234
-0.154799
-0.205319
-0.265772
-0.221088
-0.0464282
0.118255
0.372984
0.772826
1.08269
1.16255
0.912417
0.317373
0.122236
-0.262921
-0.203103
-0.133193
-0.0882163
-0.0832605
-0.0983739
-0.0934863
-0.0735545
-0.0736442
-0.0787802
-0.0889392
-0.0890069
-0.0840745
-0.0941195
-0.104187
-0.0892777
-0.0794129
-0.0845942
-0.0897975
-0.0899782
-0.0902719
-0.0806561
-0.0861082
-0.0965376
-0.0969901
-0.0925789
-0.0932126
-0.0988464
-0.0794806
-0.0751367
-0.080883
-0.0916524
-0.0723543
-0.0730782
-0.0838022
-0.0945492
-0.0902052
-0.0809064
-0.0965853
-0.102218
-0.0879874
-0.0738463
-0.084548
-0.0900455
-0.0804529
-0.0608373
-0.0761075
-0.0913115
-0.101357
-0.106244
-0.0961981
-0.101063
-0.100883
-0.085588
-0.0953169
-0.104977
-0.10957
-0.0891395
-0.0837326
-0.0982122
-0.0977592
-0.0871935
-0.0966282
-0.10113
-0.0905876
-0.0899992
-0.0641398
-0.0581446
-0.0571713
-0.0360408
-0.0146599
-0.00291872
-0.00133562
0.0148416
0.0202718
0.0299335
0.0285759
0.0305209
0.0408378
0.0404749
0.0257692
0.0183263
0.023303
0.0240498
0.0196381
0.00981998
0.0098877
0.0150013
0.0100241
7.00951e-05
0.00997972
0.0149331
0.00988913
-0.000179768
0.00477552
0.0146389
0.00436783
0.0039382
0.0133495
0.0226259
0.00663042
0.00581646
0.000771046
0.0164943
0.0083952
-0.00291681
-0.00784874
0.00760317
0.00694799
0.00855398
0.00425482
0.0131912
0.02249
0.00210571
-0.00309801
0.0116754
0.0164042
0.00620079
0.000997066
0.0107932
0.0156345
0.0104761
-0.00474977
-0.0099988
-0.000247478
0.00448132
0.00421047
0.013938
0.0286212
0.0283723
0.0380783
0.0377388
0.0725121
0.0772862
0.0770154
0.0866981
0.106449
0.111223
0.110997
0.105839
0.125681
0.140522
0.130319
0.120161
0.109956
0.119708
0.114459
0.119142
0.118825
0.118441
0.143011
0.147535
0.122083
0.0915623
0.0710421
0.0554543
0.0248208
0.0141649
-0.00158215
-0.0223513
-0.0181885
-0.0140033
-0.00475073
-0.0254965
-0.0311975
-0.0319667
-0.0227361
-0.0234823
-0.0341835
-0.0349531
-0.0157218
-0.0314007
-0.0420566
-0.0427575
-0.048481
-0.0741148
-0.129838
-0.160449
-0.141015
-0.171535
-0.246965
-0.302349
-0.25762
-0.197846
-0.0780048
0.0717468
0.296656
0.661634
0.996656
1.1117
0.981747
0.486836
-0.0480504
-0.23805
-0.19805
-0.103028
-0.0830288
-0.103096
-0.0931187
-0.0831642
-0.0682087
-0.0782313
-0.0882764
-0.0682993
-0.0683217
-0.0783901
-0.0884352
-0.0735483
-0.0636392
-0.0836611
-0.0837064
-0.0787969
-0.0738873
-0.0790911
-0.08425
-0.0795445
-0.0749063
-0.0803142
-0.0857668
-0.0763555
-0.071876
-0.06742
-0.0879855
-0.0885744
-0.0842752
-0.0749764
-0.0806108
-0.0912218
-0.0718555
-0.0725121
-0.0881906
-0.098959
-0.0847731
-0.0753851
-0.0859051
-0.0913568
-0.0766735
-0.0668316
-0.0618315
-0.0817637
-0.0717421
-0.0616512
-0.0765834
-0.0813794
-0.0811081
-0.0707693
-0.0803394
-0.084887
-0.0894346
-0.0839591
-0.0784612
-0.0828958
-0.0823083
-0.0716972
-0.0611086
-0.0605659
-0.0699325
-0.0490718
-0.0380087
-0.0367641
-0.0303154
-0.00391293
0.00687981
0.011631
0.00590706
0.0273089
0.052444
0.0372415
0.0380554
0.0311327
0.0410414
0.046833
0.0276027
0.0281458
0.03335
0.0385766
0.0287795
0.018961
0.0290966
0.0492096
0.0342779
0.0144591
0.019527
0.0196176
0.019731
0.00979853
0.0297308
0.0293908
0.0239382
0.0135536
0.013011
0.0221963
0.00620079
-0.00468159
-0.0053153
0.019639
-0.00470448
-0.0180979
-0.0198627
-0.00506687
0.00529575
-0.00990772
-0.0173512
0.0127845
0.0120831
0.00147247
-0.00373077
0.0112691
0.00613308
0.00597429
-0.00418377
0.000747681
0.0106802
0.000566959
-0.00943279
0.00549936
0.0104089
0.0153418
0.010273
0.00522804
0.0201826
0.0151606
0.0150471
0.0349798
0.0399113
0.0599108
0.0599566
0.0599794
0.0800705
0.105137
0.0902967
0.0904326
0.105613
0.120795
0.12602
0.121089
0.121247
0.12136
0.116451
0.116609
0.131586
0.156473
0.161269
0.100997
0.0757031
0.0703855
0.0450912
0.00979662
-0.0155196
-0.0157909
-0.00610733
-0.011447
-0.00674009
-0.00210285
-0.012464
-0.0278482
-0.0382104
-0.0236406
-0.0190477
-0.0244327
-0.0348849
-0.0302467
-0.0206089
-0.0359259
-0.0412207
-0.0414691
-0.0516958
-0.106946
-0.147127
-0.187263
-0.232286
-0.197218
-0.057128
0.147962
0.223075
0.838188
1.1035
1.14889
0.914274
0.399682
-0.025002
-0.214572
-0.204097
-0.143644
-0.0882597
-0.0979657
-0.0926037
-0.0772419
-0.0668802
-0.0714951
-0.0610204
-0.0655456
-0.0551605
-0.0698214
-0.0744367
-0.0690289
-0.063622
-0.0582376
-0.0628986
-0.0576043
-0.0522428
-0.0668802
-0.0815415
-0.0612702
-0.0559759
-0.0657043
-0.0704331
-0.0553198
-0.0502291
-0.0602522
-0.0703197
-0.0754099
-0.0755906
-0.0757942
-0.0809073
-0.0612011
-0.0564952
-0.0818119
-0.0721064
-0.0574231
-0.0475588
-0.0526719
-0.062921
-0.0631928
-0.0684185
-0.0536451
-0.0588713
-0.0740972
-0.0591655
-0.0541201
-0.0739841
-0.0787582
-0.0534191
-0.0579662
-0.0624008
-0.081903
-0.0862699
-0.0755677
-0.094821
-0.0940065
-0.103124
-0.0922871
-0.0964046
-0.115522
-0.124594
-0.0835528
-0.092535
-0.0865397
-0.0905437
-0.0845032
-0.0431685
-0.0366297
-0.0248413
0.00719357
0.0237098
0.0193205
0.00895834
0.022171
0.0335965
0.0236864
0.00852823
0.0199542
0.0189586
0.0197501
0.0158591
0.0218091
0.0274649
0.0330081
0.0235734
0.0140715
0.034637
0.0201349
0.0156317
0.00613022
0.0116048
0.0121026
0.0075779
0.002985
0.00821161
0.00832462
-0.0168567
-0.0322642
-0.0124907
-0.002038
-0.000702858
-0.0040741
-0.01964
0.00106144
-0.00303364
0.00176287
0.0192065
0.00477219
-0.000498772
-0.01577
-0.000815392
0.0244112
0.0146379
0.00479603
-0.00499916
0.00031662
0.000633717
-0.0140266
-0.0137773
0.0015173
-0.00825596
-0.0130754
-0.0228944
0.00235558
0.0126948
0.0179667
-0.00676203
-0.00646782
0.00880289
0.00893831
-0.00581264
-0.000608444
0.0245948
0.0348887
0.0251832
0.0455441
0.0659285
0.0763354
0.0766973
0.0720363
0.0824661
0.122964
0.113484
0.11405
0.124548
0.125068
0.0856338
0.0712218
0.106675
0.122059
0.102285
0.0923758
0.107467
0.112512
0.0824213
0.0523534
0.0271726
0.0219231
-0.00832605
-0.0335302
-0.0387564
-0.0190053
-0.0293226
-0.0447073
-0.0550914
-0.0505438
-0.0409279
-0.0464034
-0.0569005
-0.0423975
-0.0379405
-0.0585513
-0.0590272
-0.0545239
-0.0549088
-0.0703387
-0.135814
-0.166063
-0.196244
-0.246357
-0.191358
-0.0163355
0.19371
0.4838
0.843846
1.11398
1.16916
0.829299
0.254435
-0.135452
-0.200272
-0.175067
-0.124931
-0.109773
-0.0995703
-0.0793891
-0.0992756
-0.0941172
-0.0889816
-0.0787778
-0.0886645
-0.0985746
-0.0934615
-0.088325
-0.103212
-0.118054
-0.0929632
-0.0879855
-0.0930309
-0.103144
-0.0932336
-0.0833235
-0.0884595
-0.103798
-0.104115
-0.0944996
-0.0898619
-0.100202
-0.105632
-0.0961075
-0.0866504
-0.0922389
-0.102805
-0.0834389
-0.0790267
-0.0946603
-0.100294
-0.0959725
-0.0816751
-0.0823312
-0.0829186
-0.0787101
-0.0742979
-0.0847273
-0.100089
-0.0903149
-0.0853829
-0.0854511
-0.0955644
-0.0806322
-0.0857239
-0.0707688
-0.0808139
-0.105746
-0.0905881
-0.100384
-0.115157
-0.129886
-0.124524
-0.119117
-0.138754
-0.158347
-0.142782
-0.147193
-0.156424
-0.150519
-0.144365
-0.138121
-0.111898
-0.106174
-0.0713329
-0.0477591
-0.0359497
-0.0354748
-0.0253396
-0.0188012
0.0104074
0.00622177
0.00215006
0.0175571
0.0177155
0.0178061
0.0129418
0.0229869
0.03301
0.0280099
0.0129652
0.0229654
0.0380101
0.0330324
0.023078
0.0281458
0.038146
0.0331683
0.0131683
0.018146
0.0331006
0.0227609
0.012218
0.00651646
0.0106111
0.0200005
0.0101581
-0.00873327
0.018733
0.0178051
0.00814533
0.0136428
0.0326018
0.0389819
0.0235977
0.0128956
0.0322847
0.0319676
0.0267191
0.021471
0.0262895
0.035996
0.0257463
0.00547504
0.015203
0.0249538
0.0196152
0.00932074
0.00900412
0.00364208
0.018281
0.0180092
0.00773716
0.042398
0.0471268
0.0469003
0.0516295
0.0764031
0.0861316
0.090838
0.0855207
0.0952272
0.0999322
0.104661
0.104367
0.129141
0.148915
0.153689
0.133418
0.133146
0.137807
0.147399
0.136901
0.126448
0.12595
0.160429
0.109842
0.0642085
0.0735292
0.0528293
0.0221052
-0.00364113
0.00563478
0.0098877
0.0142097
-0.01156
-0.00723839
-0.0078721
-0.0185962
-0.0392747
-0.0250659
-0.0158577
-0.0266719
-0.0375314
-0.0333686
-0.0342507
-0.0301552
-0.046061
-0.0870109
-0.107984
-0.163911
-0.224816
-0.235721
-0.0915356
0.117741
0.377175
0.7567
1.06632
1.146
0.805749
0.185524
-0.194613
-0.224725
-0.139816
-0.10984
-0.0999303
-0.0899758
-0.0799985
-0.0899997
-0.0950222
-0.0800214
-0.0800214
-0.0950665
-0.100044
-0.0900211
-0.0899305
-0.0949306
-0.0999532
-0.0900431
-0.0851784
-0.0953598
-0.0956092
-0.080925
-0.0762873
-0.0817399
-0.0922608
-0.0877366
-0.0882573
-0.0989137
-0.094502
-0.10518
-0.0858593
-0.0865154
-0.0920587
-0.0926018
-0.0882125
-0.083869
-0.0995698
-0.100271
-0.0907912
-0.0861535
-0.0814924
-0.0867405
-0.076921
-0.0670571
-0.0821257
-0.0722384
-0.077374
-0.0674872
-0.0725551
-0.0877142
-0.0827594
-0.0778046
-0.0678501
-0.0927601
-0.0926247
-0.0724435
-0.0871944
-0.0919003
-0.086607
-0.0712442
-0.070837
-0.0804296
-0.0899773
-0.0742307
-0.078258
-0.0821047
-0.0906329
-0.0591631
-0.05337
-0.0534611
-0.0447507
-0.0226688
-0.0218549
-0.0163116
-0.014276
0.00554276
0.0218558
0.0230546
0.0141859
0.0296836
0.04
0.0352712
0.030498
0.0307016
0.0459728
0.0411992
0.0213799
0.0165606
0.0216966
0.0368094
0.0219679
0.012104
0.0272627
0.0273986
0.0175567
0.00267076
0.0178065
0.0229421
0.0178742
0.0126257
0.0121508
0.0163813
0.0205669
0.00536346
0.00615597
0.0131016
0.0118346
0.00692511
0.0123549
0.0212917
0.0324235
0.0218124
0.0110435
0.0106587
0.0254555
0.0153193
0.00520658
0.0100713
0.0248899
0.0146632
-0.000540257
0.0192556
0.0190525
0.0138259
-0.0114222
0.0134187
0.0282607
0.0380573
0.0278764
0.0426722
0.0725141
0.0774007
0.0772882
0.0921745
0.11204
0.111949
0.111858
0.121699
0.131518
0.146428
0.131202
0.126043
0.115907
0.120726
0.1205
0.120183
0.149843
0.149459
0.104119
0.0636892
0.0632377
0.0528073
0.0274229
-0.00293875
-0.0083456
0.011157
0.0106826
-0.00483799
-0.0152907
-0.000720501
-0.0112414
-0.0117388
-0.0222368
-0.0176897
-0.0232096
-0.03373
-0.0442276
-0.029748
-0.0201554
-0.0306072
-0.0459919
-0.0363989
-0.0417838
-0.102213
-0.152643
-0.168051
-0.21848
-0.213888
-0.0841818
0.110524
0.380208
0.749981
1.01987
1.06978
0.7398
0.159912
-0.219906
-0.239726
-0.214523
-0.0943198
-0.0840263
-0.0987554
-0.0785069
-0.0682578
-0.0780087
-0.0927372
-0.0774202
-0.0771489
-0.0769
-0.0917187
-0.0864706
-0.0712438
-0.0860629
-0.0908141
-0.0905194
-0.0802712
-0.0801129
-0.0949321
-0.0897512
-0.0695701
-0.074367
-0.0693212
-0.0692978
-0.059298
-0.0693431
-0.0645013
-0.0796819
-0.0699077
-0.0651793
-0.0754957
-0.075881
-0.0712886
-0.0667419
-0.0672174
-0.0777154
-0.0830545
-0.0784168
-0.0638013
-0.0641856
-0.0595708
-0.0500226
-0.0505204
-0.0657916
-0.0659494
-0.0510397
-0.0711308
-0.0760851
-0.0709276
-0.0656328
-0.0553608
-0.0750217
-0.0845923
-0.0690947
-0.0635066
-0.0628495
-0.0821481
-0.0764241
-0.0606318
-0.064795
-0.0789804
-0.0580983
-0.052238
-0.0564466
-0.0506773
-0.0398626
-0.0138679
-0.00266838
-0.00633335
-0.0149083
0.0167198
0.0284395
0.0299554
0.0159731
0.0214028
0.0412674
0.0453634
0.0482588
0.049571
0.0397978
0.0247526
0.0261326
0.0247974
0.0301819
0.0310645
0.021811
0.0222635
0.0376034
0.0279431
-0.00167274
0.0135994
0.0138488
0.019074
0.00432348
0.00452709
0.0194817
0.00930071
0.00902891
-0.0064683
-0.00192118
0.00321531
0.00918818
0.00129175
0.0051384
0.0102515
0.000590801
-0.0106082
-0.00447702
0.0100021
0.00439119
-0.00610638
-0.0110612
0.00409651
0.00421
-0.000631809
-0.0004282
0.00970745
-0.00520182
-0.0151119
-0.0150447
0.00504589
0.00518179
-0.00474977
-0.00463724
-0.00463724
-0.0146599
-0.0147052
-0.00972795
0.000294685
0.00536203
0.000407219
-0.00947952
0.0255885
0.0357246
0.0458827
0.0410414
0.0661545
0.0763583
0.0815387
0.0817432
0.0919023
0.112105
0.127422
0.127761
0.123123
0.128507
0.108846
0.104163
0.0994782
0.104908
0.12036
0.125723
0.121017
0.0912209
0.0663571
0.0464249
0.0214252
0.0162902
0.00615406
-0.0140271
-0.0192313
-0.0193672
-0.00961637
-0.019865
-0.0400691
-0.0403628
-0.0306563
-0.035996
-0.0513344
-0.0516729
-0.0369897
-0.037396
-0.04778
-0.038188
-0.04355
-0.048821
-0.0890245
-0.134115
-0.134251
-0.154296
-0.244432
-0.304387
-0.25932
-0.159297
-0.0543652
0.040544
0.205612
0.490816
0.841087
1.06634
1.11649
0.816652
0.301878
-0.0779195
-0.197716
-0.16249
-0.102241
-0.0870371
-0.0967889
-0.0915399
-0.0563588
-0.0611324
-0.0709281
-0.0657015
-0.0604305
-0.065249
-0.0850224
-0.0798645
-0.079639
-0.0844803
-0.0843444
-0.0742083
-0.0540051
-0.0688014
-0.0786428
-0.0785298
-0.068439
-0.0583487
-0.0733032
-0.0732579
-0.0731897
-0.0730772
-0.0880318
-0.0929637
-0.0828958
-0.0828729
-0.0779185
-0.082963
-0.0681438
-0.0633698
-0.0686636
-0.093935
-0.0742517
-0.0696359
-0.0600662
-0.0605865
-0.0561752
-0.0517187
-0.0621939
-0.0876465
-0.0780764
-0.0734611
-0.068891
-0.0792537
-0.0845695
-0.0747957
-0.0749769
-0.0901356
-0.100294
-0.0954528
-0.0805888
-0.100521
-0.12534
-0.125
-0.124525
-0.128891
-0.128281
-0.127715
-0.122105
-0.131516
-0.135928
-0.110318
-0.0845938
-0.06387
-0.0633039
-0.0479198
-0.0176029
-0.00730944
-0.0121055
0.00296259
0.0129852
0.00800753
0.0130525
0.00312042
0.00830078
0.0335946
0.0340471
0.0246129
0.0304046
0.0461068
0.0361972
0.0406313
0.0541382
0.0611978
0.041831
0.0215816
0.0108571
0.00542736
0.0218759
-0.00590706
0.00400209
-0.00613356
-0.00176716
0.00741959
0.012012
0.0221028
0.00766802
-0.0161328
-0.0236664
-0.00959349
0.010519
0.00583553
-0.000250816
0.00633287
0.0113106
0.00565434
-0.00986576
-0.000137806
0.00472689
-0.00547695
-0.0207028
-0.0157709
-0.0107932
-0.010838
-0.0359063
-0.0159287
-0.0109968
-0.00613165
-0.0212908
-0.0215173
-0.011766
-0.00692463
-0.017128
-0.0272183
-0.0173998
-0.00758076
-0.0177617
-0.03301
-0.0181918
-0.00341797
-0.0136662
-0.0338926
-0.0241642
-0.0144129
-0.0146847
-0.00995636
0.00479507
0.0146136
0.0294099
0.0292516
0.0440702
0.0589118
0.068686
0.073482
0.0833006
0.10321
0.108211
0.0981879
0.0881429
0.0931206
0.0930758
0.0780754
0.0780754
0.0980759
0.0981212
0.0881667
0.0731668
0.0930996
0.102941
0.107692
0.102352
0.0669904
0.061492
0.0408359
0.0101347
-0.0307031
-0.0215616
-0.0324216
-0.0483942
-0.049367
-0.0453396
-0.0363126
-0.0572181
-0.0630555
-0.0587339
-0.0443892
-0.0499997
-0.0705433
-0.056109
-0.0365849
-0.0470362
-0.0524669
-0.0579419
-0.0533948
-0.0888014
-0.134299
-0.169639
-0.185
-0.240317
-0.235635
-0.100883
0.058845
0.263664
0.573529
0.898348
1.08814
1.18792
1.08265
0.622329
0.452126
-0.163168
-0.243417
-0.193779
-0.109096
-0.0993452
-0.104548
-0.114752
-0.0900464
-0.0853405
-0.0906343
-0.0959744
-0.0912457
-0.0814939
-0.0818334
-0.107195
-0.0875578
-0.0829201
-0.0783272
-0.0937343
-0.0891643
-0.0796399
-0.0801835
-0.095839
-0.101518
-0.0921969
-0.0979667
-0.0937352
-0.0995722
-0.0903187
-0.076201
-0.0771737
-0.0981688
-0.0791416
-0.0851374
-0.0811324
-0.0920825
-0.0929651
-0.0688701
-0.0748649
-0.0808153
-0.0767422
-0.082829
-0.0738921
-0.0946841
-0.0954075
-0.0860863
-0.0916295
-0.102015
-0.102308
-0.0974669
-0.0875568
-0.0975795
-0.107557
-0.0924892
-0.092308
-0.102127
-0.121855
-0.111515
-0.101222
-0.115995
-0.135768
-0.135565
-0.130452
-0.125225
-0.144954
-0.149727
-0.129478
-0.11414
-0.108484
-0.0976925
-0.0716748
-0.0503626
-0.0395474
-0.0295029
-0.0204082
0.00730705
0.00294018
-0.00262499
0.0164022
0.0164022
0.00352859
-0.00246668
0.00766897
0.0183253
0.00422955
4.43459e-05
0.00556421
0.0207238
0.0356774
0.0106549
0.0207229
0.0257239
0.0307226
0.0307002
0.010632
0.0354519
0.0251575
0.0296369
0.00900316
0.0130987
0.0122838
0.00708055
-0.00748968
-0.00113153
0.0216961
0.016017
0.0111532
0.021718
0.0368543
0.0349307
0.0322385
0.0317402
0.0458817
0.0402708
0.0350213
0.0297494
0.0395012
0.0442071
0.0190258
0.00879908
0.0285726
0.0283914
0.0132332
0.0230975
0.0329614
0.0377808
0.0326447
0.0275087
0.0373731
0.0471473
0.0469437
0.0467849
0.0766263
0.0863552
0.086061
0.0807667
0.100472
0.120224
0.104997
0.119793
0.139612
0.154476
0.154273
0.14916
0.138979
0.138889
0.133776
0.12864
0.133572
0.138482
0.148437
0.173391
0.14821
0.0980749
0.0927811
0.0824428
0.0570583
0.0365834
0.0261307
0.0106559
-0.0048871
-0.00538445
-0.000927925
-0.00151587
-0.0220585
-0.0126472
-0.0132585
-0.0239153
-0.0245485
-0.0202045
-0.0158834
-0.0115843
-0.00730896
-0.0330553
-0.0237789
-0.0145702
-0.0302949
-0.0660186
-0.116607
-0.137082
-0.182557
-0.252964
-0.178326
-0.0135751
0.17629
0.451199
0.871199
1.14622
1.22627
0.996426
0.526516
0.116629
-0.12319
-0.257964
-0.317647
-0.29242
-0.21215
-0.1369
-0.111583
-0.10113
-0.100746
-0.0953393
-0.0999994
-0.0996375
-0.0842533
-0.0939364
-0.11353
-0.0981898
-0.0877604
-0.0823531
-0.0971041
-0.0969677
-0.0768089
-0.0767412
-0.091651
-0.0964699
-0.0863791
-0.0814023
-0.0916057
-0.0968323
-0.0970135
-0.0921493
-0.0923758
-0.0975571
-0.0927153
-0.0778513
-0.0880322
-0.0882134
-0.0884395
-0.0737553
-0.078959
-0.0939589
-0.0938907
-0.0888
-0.088573
-0.103279
-0.0929613
-0.0876217
-0.0823054
-0.0769658
-0.0765581
-0.0761065
-0.0755863
-0.0649529
-0.0643425
-0.0536642
-0.0579634
-0.0622168
-0.0714021
-0.0655651
-0.0545921
-0.0636191
-0.0676465
-0.0665832
-0.0552487
-0.0687323
-0.0721941
-0.0654511
-0.0539126
-0.0530081
-0.0680304
-0.0642972
-0.0421252
-0.046401
-0.036243
-0.0299759
-0.011085
0.00470686
-0.00902557
-0.00294018
0.0178299
0.018486
0.0190744
0.0196171
0.0251374
0.0355902
0.0310879
0.0215402
0.0269475
0.0424008
0.0329432
0.0184412
0.0239158
0.0344362
0.0348434
0.0302958
0.0108843
0.0313821
0.016767
-0.00311947
0.00692558
0.0168123
0.0264511
0.0113378
-0.00305128
-0.0015583
0.0112247
0.0109315
0.0118585
0.0181031
0.0434198
0.0315871
0.0128765
0.0130801
0.00271749
0.0071063
-0.00850439
0.00124693
0.00140524
-0.0133009
-0.023097
-0.0179391
0.00228691
0.00258112
-0.0021472
-0.00687551
-0.00153637
0.003757
-0.010994
-0.0257449
0.0145268
0.0397983
0.0301151
0.0355449
0.0360651
0.0366082
0.0471501
0.0626926
0.108236
0.123824
0.109366
0.094841
0.115271
0.120723
0.111175
0.101605
0.106922
0.117058
0.132171
0.127262
0.0923071
0.067307
0.0522389
0.0320807
0.0118322
0.00653744
0.00619841
-0.00411797
-0.00443411
0.000226498
-0.00499868
-0.0152931
-0.0306549
-0.0259714
-0.0112433
-0.026515
-0.0367417
-0.0270352
-0.0222845
-0.0424881
-0.0577145
-0.0379181
-0.0231667
-0.0433931
-0.108664
-0.158913
-0.164184
-0.214365
-0.174591
-0.0298176
0.179956
0.464753
0.834572
1.12953
1.20446
0.954482
0.36455
-0.0803142
-0.205088
-0.174884
-0.119613
-0.109274
-0.0940256
-0.0787325
-0.0733933
-0.0780773
-0.0777378
-0.0673981
-0.0671043
-0.0767875
-0.0915384
-0.0763125
-0.0661306
-0.0710621
-0.0709944
-0.0709267
-0.0909038
-0.0860395
-0.0961304
-0.0863338
-0.0916061
-0.101878
-0.11724
-0.0976243
-0.0929861
-0.0984154
-0.108845
-0.114252
-0.109569
-0.0999985
-0.125473
-0.120903
-0.116333
-0.116876
-0.127464
-0.133165
-0.10855
-0.108822
-0.124025
-0.129184
-0.0992746
-0.0892749
-0.0994105
-0.119501
-0.114592
-0.0996137
-0.124637
-0.134658
-0.109659
-0.0996809
-0.0997272
-0.114614
-0.124433
-0.129321
-0.149162
-0.169027
-0.173732
-0.163122
-0.157262
-0.176177
-0.169887
-0.154162
-0.13948
-0.145973
-0.154073
-0.148778
-0.114186
-0.0886421
-0.0854526
-0.0797286
-0.0532355
-0.0472174
-0.0466743
-0.0263124
-0.000996113
0.00925255
0.00445557
0.00968218
0.0148635
0.0250893
0.0053153
0.0204744
0.0357003
0.0258584
0.0260172
0.0261521
0.026288
0.0364695
0.0216279
0.00178576
0.0118079
0.0168533
0.0170116
0.00716972
0.0171933
0.0220346
0.0116496
-0.0138254
0.0004282
0.00990725
0.0100427
-0.0089159
-0.0065856
-0.00746775
0.00300789
0.00375414
0.00830173
0.0152245
0.0101566
-0.000498772
-0.0111103
-0.00647259
0.0133009
0.00305271
-0.0071969
0.00264502
0.00757647
0.00250912
0.00239563
0.00235081
0.0322375
0.0271015
0.0220337
0.0520568
0.0621023
0.0621934
0.0671926
0.0821257
0.0921254
0.102103
0.0970349
0.106967
0.136854
0.151696
0.131628
0.131424
0.131175
0.135881
0.110428
0.12984
0.139276
0.148573
0.132804
0.136945
0.146062
0.160135
0.0941172
0.0531664
0.0471931
0.0362196
0.00520134
-0.0257268
0.00834608
0.0174403
0.0164671
-0.00455093
-0.0105243
-0.00658655
-0.0076499
-0.0186
-0.0295277
-0.0254774
-0.016428
-0.0124006
-0.0184417
-0.0145726
-0.0507488
-0.11197
-0.153169
-0.159346
-0.190568
-0.0817666
0.132057
0.41097
0.769953
1.11391
1.25789
1.05203
0.476356
-0.0692544
-0.244865
-0.175408
-0.09586
-0.0712671
-0.081583
-0.0869002
-0.0821719
-0.0874209
-0.0876245
-0.0978732
-0.0931225
-0.0834384
-0.108711
-0.109005
-0.104412
-0.0848188
-0.100271
-0.120769
-0.106312
-0.101923
-0.0926461
-0.113393
-0.119139
-0.10475
-0.0953374
-0.121017
-0.121718
-0.107488
-0.0983934
-0.109298
-0.11
-0.10052
-0.101017
-0.126471
-0.131923
-0.117218
-0.102421
-0.112692
-0.117964
-0.113281
-0.0935526
-0.0938468
-0.114163
-0.0943894
-0.0796599
-0.0949316
-0.120203
-0.120452
-0.100723
-0.115949
-0.111243
-0.121334
-0.121266
-0.130949
-0.140406
-0.149636
-0.128777
-0.133505
-0.144229
-0.151197
-0.134953
-0.145225
-0.150677
-0.159433
-0.160112
-0.124003
-0.117826
-0.117148
-0.0866275
-0.0511079
-0.045475
-0.0398631
-0.0192523
0.00635815
0.0119696
0.0126033
0.0282817
0.038712
0.0440063
0.0292549
0.0343909
0.044414
0.0543456
0.0394135
0.0345268
0.0496621
0.0548201
0.0499101
0.0399547
0.0399995
0.0450449
0.0500221
0.034977
0.0299544
0.0400214
0.0401115
0.0301342
0.034977
0.0395918
0.0390487
0.028461
0.0276918
0.0374651
0.033257
0.0152698
0.0188675
0.0290256
0.0398626
0.0347505
0.0269227
0.0316968
0.0407243
0.0250463
0.0147076
0.0144815
0.0392556
0.0390511
0.0288248
0.0235538
0.0383272
0.0481234
0.0429649
0.047761
0.0674891
0.0822167
0.0819449
0.0916963
0.101492
0.121198
0.120971
0.125587
0.140225
0.14475
0.114139
0.0985055
0.127873
0.137148
0.141425
0.145746
0.160022
0.124343
0.083642
0.0578499
0.0470805
0.0412211
0.0103607
-0.0154533
-0.00122356
0.00305223
0.00732851
-0.0134406
-0.0191655
-0.00986671
-0.0105906
-0.0112243
-0.0218353
-0.0124688
-0.0132151
-0.0139384
-0.0246854
-0.0104771
-0.0261788
-0.0669475
-0.127739
-0.148509
-0.189232
-0.209956
-0.0756798
0.158574
0.442827
0.847081
1.17645
1.22572
0.880023
0.214322
-0.201379
-0.216899
-0.107351
-0.0677357
-0.0930076
-0.0983014
-0.0835056
-0.0735507
-0.0885506
-0.083528
-0.0784826
-0.0733929
-0.0832572
-0.0931668
-0.0881438
-0.0731449
-0.0781217
-0.0881438
-0.0831895
-0.083303
-0.0884604
-0.113687
-0.103913
-0.0890708
-0.0891833
-0.0992966
-0.0944777
-0.0846128
-0.079793
-0.0950193
-0.105404
-0.0855856
-0.0805864
-0.0904956
-0.0954051
-0.090179
-0.0799308
-0.0896363
-0.0993204
-0.0889354
-0.078506
-0.0780768
-0.0826697
-0.0772629
-0.0519004
-0.0664701
-0.0761528
-0.0708365
-0.0654292
-0.065022
-0.0746613
-0.0842538
-0.073801
-0.0683031
-0.0777831
-0.0921049
-0.0961318
-0.0751362
-0.0841408
-0.0828509
-0.0762892
-0.0602036
-0.085113
-0.0862889
-0.0891623
-0.0535512
-0.0533028
-0.0517416
-0.0274205
-0.00624371
0.00545263
0.00196838
0.00323534
0.00947952
0.0307918
0.0121269
0.0182357
0.049232
0.0451374
0.0409741
0.0366988
0.0423322
0.0479889
0.0286674
0.0242777
0.0398884
0.0504546
0.04602
0.0316081
0.0321965
0.0428753
0.033577
0.0343461
0.0300932
0.0557947
0.0514274
0.0371065
0.0426717
0.0481019
0.0333056
0.0134416
0.00335121
0.0232377
0.0238037
0.0154328
0.0133505
0.0131021
0.0342331
0.035614
0.0354333
0.0372882
0.0321975
0.022017
0.00731039
0.0128083
0.0533056
0.0387812
0.00921011
0.019753
0.0402508
0.0407486
0.0312686
0.0369248
0.0575352
0.0782595
0.0689607
0.0696383
0.0903625
0.106109
0.1069
0.112669
0.14337
0.148958
0.129569
0.110135
0.110678
0.131108
0.126425
0.121629
0.126854
0.172013
0.127104
0.0771713
0.0621266
0.0671043
0.0371494
0.0221262
0.0120597
0.0169239
-0.0032115
-0.03337
-0.0334601
-0.0234375
-0.0185056
-0.0185962
-0.043663
-0.0137086
-0.00373125
-0.0387096
-0.048686
-0.0386181
-0.0235953
-0.033618
-0.0536633
-0.063663
-0.0836864
-0.138777
-0.148935
-0.144003
-0.189094
-0.234071
-0.129004
0.101087
0.391041
0.785995
1.1209
1.20602
0.931266
0.326582
-0.11301
-0.242581
-0.17206
-0.10654
-0.0960422
-0.105613
-0.0950251
-0.0794826
-0.0939393
-0.0982604
-0.092627
-0.0720158
-0.0814052
-0.110862
-0.100341
-0.0799332
-0.0745721
-0.084209
-0.0888243
-0.0835066
-0.0832577
-0.103054
-0.117896
-0.122828
-0.117761
-0.107739
-0.102671
-0.0976028
-0.0875812
-0.0975127
-0.107491
-0.112536
-0.102649
-0.117876
-0.13317
-0.133418
-0.13344
-0.133349
-0.108236
-0.112987
-0.112647
-0.122262
-0.106878
-0.101539
-0.0962448
-0.100996
-0.125771
-0.125385
-0.100047
-0.114753
-0.11939
-0.114073
-0.113711
-0.138305
-0.137942
-0.17249
-0.161857
-0.141268
-0.155702
-0.170001
-0.173983
-0.167806
-0.156471
-0.154932
-0.148801
-0.123665
-0.119796
-0.107601
-0.0819683
-0.0521255
-0.0571027
-0.0602484
-0.0554976
-0.0292749
0.00208282
-0.0116053
-0.0307231
-0.01018
0.0102954
0.0157714
0.00620127
0.0215402
0.0167885
-0.00796223
0.00728703
0.0175581
0.0378752
0.0181236
0.00346375
-0.00117493
0.00402927
-0.00576735
-0.00558615
-0.00536013
0.00984383
0.00502443
0.000114918
2.43187e-05
0.00970793
0.00936842
0.00407457
-0.0215139
-0.0272608
-0.017487
-0.0116496
-0.00956774
0.00434542
0.00484371
-0.0142741
-0.019659
-0.0129166
0.0019021
-0.00877666
-0.0142064
-0.00938797
0.0105672
-0.00447845
-0.0145235
-0.00954628
-0.00961447
-0.00465965
-0.00472784
-0.00970507
0.0103168
0.0202489
0.025249
0.0302715
0.045362
0.0504303
0.0605206
0.0605659
0.0706568
0.0907245
0.100679
0.100566
0.105499
0.120521
0.115521
0.110454
0.105386
0.120272
0.120091
0.114797
0.129434
0.163937
0.153371
0.0926476
0.06181
0.0509501
0.0351815
0.0094347
-0.00651503
-0.0075345
-0.00348473
-0.00445747
-0.0104756
-0.00147057
0.00246572
-0.00364256
-0.0246601
-0.0307012
-0.00174189
-0.0127602
-0.0338454
-0.0200453
-0.0211763
-0.0424662
-0.0437112
-0.0399103
-0.0511322
-0.107421
-0.143824
-0.175249
-0.191583
-0.0978727
0.100883
0.359775
0.728734
1.09281
1.26201
1.21634
0.815656
0.220046
-0.150544
-0.23111
-0.236495
-0.136924
-0.0923991
-0.0927835
-0.103055
-0.0883031
-0.0885744
-0.0988235
-0.0991631
-0.0896382
-0.0900221
-0.100452
-0.110882
-0.101379
-0.0969448
-0.097578
-0.108325
-0.0941396
-0.089931
-0.0957904
-0.111627
-0.102488
-0.0831885
-0.0889354
-0.0947046
-0.10052
-0.0813117
-0.0922389
-0.103348
-0.109388
-0.0951123
-0.105678
-0.121243
-0.121787
-0.117352
-0.087873
-0.103349
-0.123755
-0.109095
-0.0994563
-0.119796
-0.130157
-0.120543
-0.110859
-0.116175
-0.126537
-0.116809
-0.117012
-0.127216
-0.137419
-0.1426
-0.12769
-0.137691
-0.142667
-0.152645
-0.137306
-0.14674
-0.161061
-0.150135
-0.139026
-0.14337
-0.153619
-0.144479
-0.126221
-0.119525
-0.123394
-0.124095
-0.109706
-0.0885749
-0.0745702
-0.0736203
-0.0373759
-0.0116301
-0.00629044
-0.00106382
-0.0108833
0.0342069
0.0392294
0.0391841
0.0491843
0.0642748
0.0543647
0.0444784
0.0545683
0.0596814
0.0497274
0.044682
0.0447955
0.059886
0.0599313
0.0450897
0.0451579
0.0451803
0.0552254
0.0452709
0.0451584
0.0648637
0.0744338
0.0638685
0.0532346
0.0480089
0.043756
0.0356784
0.0292306
0.0344119
0.0504069
0.0562897
0.045249
0.0465379
0.0661764
0.0554523
0.0496373
0.0392528
0.0390716
0.033936
0.0337548
0.0286188
0.0384827
0.0533471
0.0581889
0.053031
0.0728722
0.0927591
0.0876236
0.0875106
0.0974197
0.127375
0.132307
0.127285
0.142262
0.152285
0.152308
0.112353
0.122443
0.137511
0.147557
0.137579
0.142624
0.177602
0.172579
0.107557
0.0724206
0.082171
0.0718322
0.0514026
0.0308814
0.0254292
0.0248866
-0.000814915
-0.00149441
-0.00215054
0.0221028
0.0113339
-0.0144134
-0.01016
-0.000884056
-0.0166082
-0.0323548
-0.0381246
-0.0188713
-0.0146403
-0.0304317
-0.0462236
-0.0370159
-0.0327849
-0.0935998
-0.144436
-0.160296
-0.196178
-0.227015
-0.127852
0.076333
0.225564
0.414817
0.754093
0.873437
1.29285
1.27231
0.881831
0.261446
-0.13378
-0.208983
-0.159028
-0.0990052
-0.0838923
-0.0887113
-0.0935979
-0.0933261
-0.0779867
-0.082602
-0.102149
-0.106765
-0.101426
-0.0911317
-0.100905
-0.105702
-0.0905213
-0.0952945
-0.100137
-0.110023
-0.119979
-0.100002
-0.110048
-0.115206
-0.110342
-0.0854316
-0.100454
-0.105454
-0.105432
-0.105431
-0.100453
-0.115566
-0.11586
-0.106244
-0.101425
-0.111494
-0.131449
-0.106336
-0.111155
-0.115905
-0.115588
-0.100249
-0.0949101
-0.0946388
-0.104412
-0.104231
-0.0990047
-0.0987554
-0.108506
-0.10319
-0.0927596
-0.0923071
-0.111876
-0.116357
-0.110791
-0.11018
-0.119592
-0.123913
-0.118144
-0.112329
-0.126425
-0.140181
-0.133823
-0.122421
-0.12086
-0.119798
-0.119662
-0.105589
-0.103078
-0.117129
-0.127038
-0.091857
-0.0795493
-0.0745263
-0.0533047
-0.0272188
-0.0116086
-0.00615597
0.00931931
0.0197496
0.0252018
0.0255861
0.0211072
0.0265822
0.0370116
0.0274644
0.0178714
0.0332112
0.0385275
0.0238447
0.0191836
0.019568
0.0349302
0.025269
0.0156093
0.0159707
0.036016
0.03088
0.0206308
0.0201783
0.0296583
0.0196128
0.000449657
0.00691986
0.0242958
0.0232325
0.012712
0.0140467
0.0253592
0.0349293
0.0166941
0.0116034
0.0112419
0.021174
0.0063324
-0.00348711
0.00167179
0.0118299
0.00198889
-0.00778532
-0.0126276
0.0174851
0.0175304
0.0175757
0.0426893
0.0527568
0.0478926
0.0330505
0.0481415
0.073277
0.0884132
0.0884814
0.0935717
0.118684
0.12382
0.103956
0.0891142
0.104182
0.10925
0.104249
0.0991359
0.114001
0.14882
0.158616
0.10339
0.0780964
0.0628028
0.0473733
0.0169888
0.001513
0.00603771
-0.00941467
-0.0148215
-0.010252
-0.000659466
0.00388765
-0.0066328
-0.0171304
-0.00765038
-0.00817108
-0.0286236
-0.0391216
-0.0145965
-0.0151396
-0.0307055
-0.0413394
-0.0269275
-0.0175157
-0.0330815
-0.0486469
-0.0541897
-0.119756
-0.145344
-0.195931
-0.221474
-0.0969501
0.117553
0.34201
0.691557
1.07113
1.25574
1.17031
0.665019
0.0748148
-0.200298
-0.190275
-0.105185
-0.0750713
-0.0798674
-0.094573
-0.099256
-0.0839396
-0.0885549
-0.0881925
-0.102921
-0.102695
-0.0824685
-0.0823107
-0.0921974
-0.0970845
-0.0820394
-0.0870175
-0.0970626
-0.107018
-0.0970178
-0.0971084
-0.0873351
-0.0975609
-0.0877638
-0.0779223
-0.0930123
-0.0980811
-0.0882401
-0.0784202
-0.0886245
-0.0939178
-0.0943251
-0.0845747
-0.0996199
-0.104643
-0.10462
-0.0895066
-0.104393
-0.119211
-0.10894
-0.0986905
-0.0984879
-0.103352
-0.103102
-0.102876
-0.0926051
-0.102356
-0.0919719
-0.0865197
-0.0910673
-0.0904789
-0.109981
-0.0994387
-0.0888948
-0.103352
-0.112718
-0.106904
-0.0909982
-0.104889
-0.1136
-0.107198
-0.0855908
-0.0787807
-0.0821519
-0.0662012
-0.0411558
-0.0322876
-0.0400701
-0.0390291
-0.0283499
-0.0119467
-0.0231681
-0.0122399
0.00438833
0.0206099
0.0166054
0.0122843
0.0178947
0.0285287
0.0241847
0.0248408
0.0405431
0.0412664
0.046967
0.0376687
0.0284152
0.049139
0.0448174
0.0405865
0.041378
0.0621467
0.0528698
0.0436172
0.0344315
0.0402007
0.0409245
0.031558
0.0218525
0.0270567
0.0271697
0.0121922
0.0177126
0.0291839
0.0266724
0.030767
0.0166044
0.0282106
0.0445681
0.0436406
0.0299983
0.0201564
0.0302916
0.0408802
0.026536
0.0222378
0.027894
0.0334821
0.0191154
0.0196586
0.0452471
0.065835
0.0564232
0.0621023
0.0878263
0.0935273
0.0942287
0.0949984
0.110768
0.106559
0.107374
0.118166
0.14889
0.169705
0.160588
0.141448
0.127285
0.133054
0.143846
0.129614
0.140452
0.176198
0.196831
0.147352
0.0978041
0.098165
0.0935044
0.0537305
0.0489798
0.0341382
0.0242295
0.0143881
0.0145917
0.0347509
0.019887
0.0149994
-0.005023
-0.0049777
-0.005023
-0.0200229
-0.0200229
-0.0249777
0.00518084
-0.00968361
-0.0246382
-0.00966072
-0.00468349
-0.0296383
-0.0496607
-0.0896153
-0.104593
-0.124593
-0.189592
-0.249547
-0.194389
-0.039185
0.156109
0.411448
0.79181
1.08708
1.17735
0.962692
0.413258
-0.0760632
-0.245317
-0.18457
-0.148778
-0.0730085
-0.0723071
-0.0815153
-0.0806103
-0.0697284
-0.0738916
-0.0880766
-0.0922852
-0.0814028
-0.0905433
-0.104728
-0.103913
-0.0980992
-0.102329
-0.111583
-0.110837
-0.100158
-0.104548
-0.108914
-0.113214
-0.0975795
-0.0870361
-0.0916748
-0.121426
-0.126222
-0.110973
-0.105634
-0.105385
-0.110249
-0.115023
-0.0997739
-0.12957
-0.129457
-0.119411
-0.129366
-0.114456
-0.129614
-0.114637
-0.129388
-0.134072
-0.123597
-0.118053
-0.102578
-0.112058
-0.126401
-0.125678
-0.124908
-0.134115
-0.138233
-0.142351
-0.141446
-0.145541
-0.159591
-0.173663
-0.15769
-0.141605
-0.150406
-0.174139
-0.157874
-0.141652
-0.140385
-0.148914
-0.13224
-0.135452
-0.123551
-0.101696
-0.0753622
-0.0500674
-0.0458145
-0.0476017
-0.0257463
-0.0202036
-0.0203609
-0.0261297
-0.0366282
-0.040339
-0.0312443
-0.030272
-0.0239592
0.00714874
0.00289488
0.0135522
0.0141625
0.0196829
0.00529385
-0.0191631
-0.0334611
-0.00280571
0.0227599
0.00839376
-0.0159726
0.00466061
0.00522661
-0.00447893
-0.00927591
-0.00411797
0.00583696
-0.0144796
-0.0296149
-0.0341172
-0.0176697
-0.0100679
0.00925303
0.0198641
0.02595
0.00108576
-0.0313807
-0.0360408
-0.0214033
-0.0164933
-0.0163803
-0.00601816
-0.0205879
-0.0351577
-0.0347052
-0.0242982
-0.00393629
0.00135851
-0.0133471
-0.0180306
-0.0177364
0.00253487
-0.00217104
0.0031004
0.00837231
0.0286441
0.0339603
0.0392776
0.0245719
0.0149107
0.0302963
0.0407481
0.0712466
0.101766
0.112173
0.087512
0.0729189
0.103326
0.123756
0.104141
0.0793004
0.0944133
0.124322
0.134119
0.118779
0.138304
0.162874
0.142354
0.0668106
0.0461092
0.0154076
0.00477457
0.00409508
-0.00649309
-0.0121717
-0.00789642
-0.0286651
-0.0294566
-0.0252485
-0.0210404
-0.0269003
-0.0278049
-0.0237327
-0.0246601
-0.0356784
-0.0516958
-0.0476456
-0.0435963
-0.0545917
-0.0655189
-0.0913796
-0.132171
-0.168009
-0.2088
-0.224705
-0.180451
-0.0460849
0.133349
0.312874
0.542422
0.837059
1.08677
1.23649
1.35629
1.28618
0.880997
0.260792
-0.134343
-0.224456
-0.184546
-0.124569
-0.10466
-0.0946598
-0.0896602
-0.109728
-0.0999322
-0.105272
-0.110679
-0.105996
-0.106289
-0.10165
-0.127148
-0.132601
-0.113099
-0.108686
-0.119298
-0.139932
-0.140565
-0.126266
-0.111991
-0.127692
-0.128416
-0.12914
-0.119774
-0.135407
-0.141222
-0.116946
-0.12267
-0.138348
-0.138913
-0.149411
-0.129818
-0.145068
-0.155407
-0.160837
-0.141245
-0.136539
-0.136834
-0.14206
-0.137309
-0.142512
-0.152829
-0.158078
-0.148327
-0.153485
-0.163644
-0.173735
-0.163757
-0.163486
-0.178192
-0.192784
-0.192083
-0.191088
-0.200115
-0.204549
-0.194594
-0.195363
-0.191834
-0.199345
-0.198417
-0.158848
-0.139821
-0.129912
-0.107128
-0.066608
-0.0454082
-0.0396395
-0.0340281
-0.0135074
0.00676394
0.00192213
-0.00312328
0.0118546
0.00692272
0.0169678
0.0119004
0.0218554
0.0266967
0.0166063
0.0114479
0.0213571
0.0312667
0.0311761
0.0161304
0.0210404
0.0359273
0.0357685
0.0255656
0.0103168
0.0101128
0.00986385
-0.00552177
-0.0061779
-0.00194693
0.0171027
-0.00887012
-0.0146389
-0.00486517
0.000768661
0.00226212
-0.0152717
-0.00151634
0.00839281
0.0039587
-0.0100007
0.00574636
0.0147057
0.0108371
0.00515795
0.00411797
0.0182357
0.027669
0.0171494
0.0166745
0.0362673
0.0508151
0.0553851
0.0548878
0.0644574
0.084096
0.0836887
0.0882812
0.0977612
0.107241
0.116788
0.116244
0.125679
0.135001
0.129231
0.118439
0.107603
0.126653
0.130681
0.12464
0.128599
0.167469
0.116337
0.0802507
0.0641193
0.0528746
0.0416975
0.0204539
-0.00574493
-0.00198984
0.00174332
-0.00459146
-0.0208364
-0.00203466
-0.0132337
-0.0244551
-0.0406542
-0.0168533
-0.0130525
-0.0192742
-0.035428
-0.0315819
-0.0277801
-0.0389795
-0.100178
-0.121423
-0.15769
-0.20898
-0.265315
-0.231649
-0.112984
0.030704
0.164415
0.303081
0.561859
0.925659
1.20444
1.29837
1.11749
0.511768
-0.0838428
-0.249409
-0.134929
-0.0754042
-0.0759697
-0.0965586
-0.0920787
-0.0776453
-0.0932555
-0.113867
-0.119591
-0.100247
-0.100858
-0.0964689
-0.112012
-0.0926003
-0.103189
-0.108709
-0.109321
-0.115044
-0.105633
-0.111017
-0.116289
-0.101446
-0.0864906
-0.106536
-0.106627
-0.101739
-0.0818753
-0.091989
-0.0921021
-0.102148
-0.102193
-0.0872164
-0.0972166
-0.107171
-0.0921483
-0.0821934
-0.0872841
-0.0823975
-0.0674882
-0.0725784
-0.0826459
-0.0777373
-0.072669
-0.082397
-0.0770135
-0.0864244
-0.0757232
-0.0757232
-0.0860167
-0.098392
-0.0975318
-0.0927806
-0.118007
-0.13131
-0.121582
-0.115293
-0.114139
-0.11846
-0.112918
-0.0872388
-0.0915151
-0.085814
-0.0650215
-0.0442295
-0.0184603
-0.00769043
-0.00189877
0.0138931
0.0248427
0.0307708
0.026834
0.0426488
0.0483279
0.0589161
0.0444589
0.0499339
0.0604315
0.0558157
0.0511327
0.0614266
0.061811
0.0571952
0.0576472
0.0579863
0.0583253
0.0536194
0.044004
0.0444336
0.0398626
0.035315
0.0357895
0.0261745
0.0364909
0.0465817
0.0366268
0.0264688
0.0361514
0.0355864
0.0252013
0.0153146
0.0210834
0.0325089
0.0145679
0.00778055
0.0226226
0.0387993
0.0304055
0.0161982
0.0193429
0.0498405
0.0596595
0.0549092
0.0804067
0.10595
0.111448
0.116968
0.122511
0.137896
0.158189
0.153258
0.138371
0.148597
0.138868
0.139049
0.134162
0.129253
0.159321
0.184231
0.13905
0.0988688
0.088778
0.0636206
0.028461
0.0133705
0.0232344
0.0281668
0.0180993
0.0130534
0.0179176
0.0228729
-0.00224018
-0.0123987
-0.0074892
-0.0125799
-0.00764751
-0.0127153
0.00723934
0.017262
0.00235319
-0.0175109
-0.012466
-0.00239801
-0.0422616
-0.0921035
-0.117013
-0.146877
-0.161719
-0.0165377
0.0486212
0.528688
0.933847
1.18398
1.17919
0.764391
0.114571
-0.230226
-0.195023
-0.079864
-0.0397058
-0.0596151
-0.0695248
-0.0544338
-0.0643206
-0.0690708
-0.073935
-0.0837321
-0.0684385
-0.06319
-0.102986
-0.0927157
-0.0823984
-0.077127
-0.0817652
-0.0764031
-0.0759511
-0.0706344
-0.0953622
-0.0950899
-0.0749087
-0.0645695
-0.0890031
-0.103347
-0.0976906
-0.0818992
-0.0910387
-0.0951786
-0.089251
-0.0933242
-0.0973511
-0.116515
-0.115655
-0.0897732
-0.083868
-0.0929408
-0.102013
-0.0911312
-0.105248
-0.104365
-0.108483
-0.0975785
-0.0966277
-0.105542
-0.104252
-0.0979848
-0.0914683
-0.104976
-0.104207
-0.104614
-0.126334
-0.139772
-0.159501
-0.144794
-0.144636
-0.159002
-0.168686
-0.166921
-0.155043
-0.133392
-0.131944
-0.0854735
-0.0738893
-0.097374
-0.100858
-0.0944552
-0.0579839
-0.0615363
-0.0600662
-0.0235052
-0.00680876
0.00475311
-0.0188894
-0.00762177
0.00853205
0.00957251
0.000545025
-0.0134363
-0.00746393
0.00853157
0.0195498
0.000545025
0.00651741
0.0173779
0.0182371
0.00905132
-0.00508881
0.0108838
0.0168118
-0.0022378
-0.0112424
-0.00531483
0.0105224
-0.00366354
-0.012804
-0.0120578
-0.00649214
-0.0111303
-0.0259266
-0.0207682
-0.0149088
-0.00375509
-0.0304971
-0.0153837
-0.0140491
-0.0277143
-0.0283022
-0.0217867
-0.0167642
-0.00651598
-0.0108147
0.0100894
0.0359721
0.0318546
0.0327597
0.0235972
0.0694566
0.0803161
0.071063
0.0867643
0.112466
0.107942
0.103326
0.108688
0.104004
0.109299
0.0995255
0.114706
0.129818
0.139863
0.154909
0.114841
0.0747738
0.0545473
0.0492306
0.018868
0.00355196
0.00323534
-0.0171037
-0.0274882
-0.0379186
-0.013371
-0.0238013
-0.0293665
-0.0447974
-0.040204
-0.0305886
-0.0310187
-0.0414486
-0.0319233
-0.0323539
-0.0477839
-0.0681911
-0.0936441
-0.129119
-0.144594
-0.210092
-0.195499
-0.0259519
0.218596
0.488098
0.867532
1.18199
1.31642
1.21088
1.13036
0.119817
-0.195704
-0.216291
-0.16188
-0.102378
-0.0877619
-0.118056
-0.118304
-0.108689
-0.0941191
-0.109594
-0.110024
-0.120522
-0.111042
-0.116404
-0.131743
-0.127128
-0.117625
-0.118101
-0.128531
-0.129051
-0.129527
-0.115002
-0.130454
-0.140883
-0.131336
-0.121879
-0.122422
-0.132965
-0.118576
-0.134164
-0.154639
-0.149956
-0.135182
-0.135386
-0.135499
-0.135658
-0.125725
-0.125815
-0.140928
-0.151019
-0.131087
-0.1262
-0.131313
-0.141471
-0.141562
-0.126584
-0.131742
-0.151901
-0.157082
-0.147307
-0.157375
-0.172217
-0.1869
-0.171312
-0.175724
-0.190769
-0.201697
-0.193439
-0.191153
-0.20561
-0.216266
-0.207443
-0.187646
-0.18715
-0.176628
-0.145521
-0.129818
-0.114321
-0.113868
-0.0933485
-0.0828052
-0.0621719
-0.0715165
-0.0708385
-0.0250692
-0.0144358
-0.00405121
0.00126553
0.0166044
0.0218763
0.0120802
0.0122161
0.0272617
0.0322838
0.0322618
0.00732946
0.0374203
0.0325336
0.0326014
0.0176015
0.0176702
0.0277834
0.0228739
0.0129418
0.00798607
0.0129862
0.0229411
0.0177603
0.0173755
0.0269456
0.0113115
0.00565529
0.00574589
0.0169673
0.0144334
0.00359678
-0.00083828
0.0203609
0.0261078
0.0264921
0.0122609
0.0266271
0.0359707
0.0356088
0.0105186
0.0354505
0.0352468
0.0400662
0.0449305
0.059885
0.0848169
0.0947952
0.0997043
0.0995684
0.109456
0.129252
0.129025
0.133754
0.138437
0.158051
0.137599
0.122034
0.121423
0.1307
0.144908
0.144071
0.148256
0.157464
0.171649
0.155744
0.114771
0.0937304
0.0777349
0.0517163
0.0206981
0.0346804
0.0286851
0.0177121
0.0117178
0.00567627
0.00465822
0.00870848
-0.00721979
0.0068078
-0.00414228
-0.0100932
-0.0110431
-0.00199318
-0.00303411
-0.0140977
-0.0550928
-0.101111
-0.132129
-0.183192
-0.189278
-0.0303407
0.188573
0.362465
0.576424
0.950406
1.25937
1.38332
1.15731
1.0164
-0.0694361
-0.205204
-0.120861
-0.0714722
-0.0670147
-0.0775576
-0.0930786
-0.0986443
-0.0891199
-0.08464
-0.090138
-0.100567
-0.0859518
-0.0913138
-0.101676
-0.117014
-0.117376
-0.10276
-0.10319
-0.108644
-0.109005
-0.104277
-0.11973
-0.130069
-0.135477
-0.115907
-0.121427
-0.13197
-0.137287
-0.122423
-0.117513
-0.122694
-0.13283
-0.12783
-0.117739
-0.122603
-0.142513
-0.12249
-0.117422
-0.122308
-0.127263
-0.122218
-0.117195
-0.122218
-0.127194
-0.127171
-0.117103
-0.122149
-0.137148
-0.14708
-0.146967
-0.136944
-0.136831
-0.14165
-0.14122
-0.145541
-0.154658
-0.163663
-0.158256
-0.138753
-0.150541
-0.148911
-0.143776
-0.129387
-0.125089
-0.12312
-0.108346
-0.0822835
-0.0561976
-0.0454512
-0.0398178
-0.0190477
-0.0132108
-0.0174184
-0.0216265
0.0142789
0.0151839
0.0108404
0.00638342
0.0269041
0.0273566
0.0276728
0.0230117
0.028306
0.0336447
0.0289388
0.014142
0.0193691
0.0197082
0.0250025
0.0102515
0.0104327
0.0256357
0.0208616
0.0210881
0.0213146
0.0164957
0.0115409
-0.00361824
-0.00897884
0.0104775
-6.62804e-05
-0.00988579
-0.0137768
-0.016809
-0.0138226
-0.0141616
-0.0131216
0.00346279
0.00909567
0.00409555
-0.000903606
0.00350761
0.00830412
0.0083499
0.0083499
0.0233054
0.0432377
0.0431924
0.0431924
0.0381694
0.0681906
0.0681906
0.073236
0.078259
0.0882359
0.0982137
0.093123
0.103033
0.122942
0.107874
0.0877609
0.102603
0.107286
0.116925
0.121428
0.125907
0.130296
0.0896626
0.0440288
0.0232825
0.0375142
0.0317678
0.0109982
-0.0148158
-0.0256534
-0.00649071
-0.00735092
-0.0231647
-0.0340466
-0.00986195
-0.0156989
-0.0265818
-0.0274639
-0.0233464
-0.0241838
-0.0400434
-0.0308805
-0.0267401
-0.0326223
-0.0435271
-0.0494318
-0.0453143
-0.0611739
-0.112034
-0.16294
-0.193889
-0.19484
-0.055768
0.148282
0.432377
0.791517
1.14072
1.30496
1.32923
0.743553
0.142987
-0.162511
-0.182941
-0.108235
-0.0734167
-0.0885754
-0.103734
-0.0888247
-0.0789371
-0.0891409
-0.104299
-0.0895019
-0.0846825
-0.0949082
-0.105179
-0.105451
-0.0957446
-0.0911069
-0.111515
-0.106922
-0.0923753
-0.097805
-0.118235
-0.123664
-0.0990262
-0.0944338
-0.104908
-0.110384
-0.10086
-0.10138
-0.102013
-0.112669
-0.113099
-0.0984159
-0.108732
-0.113981
-0.114184
-0.0993204
-0.114434
-0.124525
-0.119571
-0.114615
-0.109661
-0.124707
-0.124752
-0.10482
-0.109842
-0.109865
-0.114933
-0.100001
-0.100024
-0.110001
-0.119956
-0.119865
-0.109684
-0.124527
-0.129074
-0.123395
-0.122559
-0.121472
-0.135364
-0.119708
-0.104866
-0.105228
-0.117445
-0.111382
-0.101428
-0.086586
-0.0904551
-0.0667214
-0.0408626
-0.0244598
-0.0282831
-0.0326266
0.00768995
0.0179157
0.00823259
0.00348234
0.0186858
0.0337763
0.0288668
0.0139804
0.0240936
0.0442071
0.0243201
0.0244784
0.0395689
0.0447059
0.0398412
0.0249319
0.0299993
0.0350218
0.03509
0.0251579
0.0201578
0.0201807
0.0251584
0.0201578
0.0150223
0.0247517
0.0293212
0.0187111
0.00307798
0.0131001
0.0240965
0.0063138
9.20296e-05
0.0104542
0.0266533
0.0329423
0.016562
0.0174899
0.0270829
0.0216303
0.006495
0.00651741
0.0264497
0.016314
0.0161781
0.0311332
0.0561552
0.0661097
0.0560188
0.0609283
0.0907702
0.0906572
0.0955439
0.105453
0.120408
0.125362
0.130318
0.110296
0.115251
0.115115
0.104979
0.0999107
0.114889
0.129934
0.124979
0.134979
0.159933
0.15991
0.104819
0.0646162
0.059413
0.0640507
0.0436654
0.0181217
0.00760126
-0.00296497
-0.0135083
-0.0190516
-0.0245943
-0.0151153
-0.0156579
-0.0212684
-0.0368338
-0.0323997
-0.0178061
-0.0183039
-0.028779
-0.0243216
-0.00979662
-0.0202713
-0.0408378
-0.0414257
-0.0770812
-0.127714
-0.158348
-0.208982
-0.204502
-0.0949769
0.0795932
0.134186
0.563756
0.928371
1.15299
1.19258
0.912399
0.347399
-0.117533
-0.232488
-0.177352
-0.102126
-0.0718536
-0.0714464
-0.0760393
-0.0656319
-0.0752468
-0.0749526
-0.0845461
-0.069025
-0.0685506
-0.0831208
-0.0926914
-0.0773525
-0.0668993
-0.0864921
-0.0861754
-0.0708814
-0.0656552
-0.0705643
-0.0704513
-0.0653157
-0.0551801
-0.0700898
-0.0650673
-0.0650673
-0.0500445
-0.0700221
-0.0849991
-0.0750442
-0.0701346
-0.0752478
-0.0850897
-0.0697956
-0.0544796
-0.0541406
-0.0737329
-0.0682125
-0.0626459
-0.0671492
-0.0766511
-0.0861759
-0.0806108
-0.0799999
-0.0745029
-0.0739379
-0.058372
-0.0678291
-0.0922184
-0.091517
-0.0657706
-0.0600691
-0.0542994
-0.0734839
-0.0726476
-0.0666752
-0.0705886
-0.0894117
-0.0830998
-0.0716057
-0.0699768
-0.0681663
-0.0716281
-0.0609488
-0.0663338
-0.0930533
-0.101402
-0.0859499
-0.0804744
-0.0882578
-0.0833931
-0.0570583
-0.0403614
-0.0139136
-0.0126915
0.023304
0.034255
0.03016
0.0159969
0.0217886
0.0276709
0.0285535
0.0193682
0.0350914
0.0458384
0.0415401
0.00728607
0.0230784
0.033915
0.0497522
0.0255895
0.0163813
0.037241
0.0531454
0.05405
0.0447292
0.0501361
0.0504308
0.025476
0.000498295
0.006042
0.017489
0.0241628
0.00771475
0.022851
0.0490727
0.0255213
-0.00929785
0.00330353
0.0337787
0.028801
0.00402689
-0.0104303
0.000338554
0.0111303
0.00187683
0.00257778
0.0382342
0.0290027
-0.00031805
-0.0045495
0.0162196
0.0370111
0.0377803
0.0135727
0.0393648
0.0651569
0.0659943
0.0668082
0.102668
0.103573
0.099524
0.0904741
0.0965157
0.112534
0.123642
0.114683
0.110701
0.121651
0.142443
0.143212
0.133868
0.0844569
0.0649319
0.040339
0.0256782
0.0159717
0.00117493
-0.00859928
-0.013485
-0.0134392
0.00153875
-0.0235295
-0.0487108
-0.0238919
-0.0190048
-0.0290732
-0.0241637
-0.0243216
-0.0196157
-0.0198874
-0.0200458
-0.0302043
-0.0102949
-0.0154071
-0.0405207
-0.0556788
-0.0608149
-0.0859728
-0.121131
-0.171289
-0.206403
-0.146515
0.0333714
0.263213
0.573009
0.947806
1.2076
1.21247
0.8524
0.267355
-0.112646
-0.232623
-0.182555
-0.127329
-0.0970578
-0.111628
-0.11122
-0.105813
-0.105451
-0.130112
-0.134818
-0.10957
-0.0893211
-0.0990491
-0.103846
-0.10871
-0.103733
-0.113688
-0.123711
-0.118732
-0.093801
-0.118936
-0.149095
-0.149276
-0.134388
-0.124524
-0.12966
-0.124795
-0.115022
-0.120406
-0.145836
-0.141266
-0.126787
-0.112262
-0.127488
-0.137534
-0.137602
-0.132737
-0.127828
-0.142736
-0.132601
-0.127556
-0.147579
-0.152579
-0.147556
-0.127511
-0.127465
-0.152307
-0.142193
-0.147148
-0.147103
-0.167012
-0.171854
-0.161627
-0.15138
-0.170927
-0.180203
-0.15932
-0.163144
-0.176696
-0.185633
-0.180271
-0.190792
-0.202307
-0.220316
-0.209954
-0.195543
-0.205769
-0.188801
-0.173846
-0.142398
-0.131085
-0.115407
-0.0849771
-0.0545697
-0.0441856
-0.0439143
-0.0437555
-0.0135975
-0.0034399
0.001719
0.0019002
0.0320134
0.0320811
0.0222392
0.0123754
0.0324655
0.0376234
0.0427818
0.0378947
0.0379853
0.0431213
0.0331888
0.0183244
0.0183921
0.0333695
0.0232787
0.00812006
0.0128493
0.0224872
0.0119438
0.0111976
0.00569963
0.0260615
0.0324869
0.0103374
0.0098629
0.0205865
0.0213556
0.0154738
0.0118985
0.0316501
0.0359259
0.0253367
0.0149755
0.0147491
0.0294776
0.0242286
0.0189571
0.0286403
0.0432777
0.0530066
0.0428033
0.0526223
0.0775099
0.0873961
0.0872149
0.0870118
0.111809
0.126605
0.111356
0.116152
0.140858
0.160405
0.144817
0.139206
0.143595
0.14294
0.137194
0.146356
0.160473
0.169523
0.193527
0.162487
0.116513
0.0954952
0.069386
0.0432553
0.0421019
0.0310392
0.0149302
0.00875378
0.00755453
0.0113335
0.0151114
-0.00108767
-0.00217342
0.00667286
0.00547361
-0.0107484
-0.0170379
-0.00826025
-0.00452662
-0.0208158
-0.0521283
-0.07335
-0.109572
-0.145863
-0.212107
-0.238373
-0.154641
-0.00595331
0.177691
0.401332
0.744974
1.11357
1.31219
1.22588
0.749611
0.108479
-0.222629
-0.203624
-0.114574
-0.0804791
-0.101361
-0.11213
-0.0978761
-0.0885768
-0.0993686
-0.105137
-0.105885
-0.0965862
-0.107333
-0.123012
-0.118713
-0.109346
-0.109981
-0.120614
-0.121247
-0.106812
-0.102401
-0.113193
-0.108894
-0.104414
-0.0948219
-0.100228
-0.1005
-0.0907497
-0.0909305
-0.106112
-0.116338
-0.106587
-0.101746
-0.111949
-0.117085
-0.122152
-0.117243
-0.122401
-0.127583
-0.122718
-0.112899
-0.123125
-0.138306
-0.118487
-0.113668
-0.113872
-0.119076
-0.124007
-0.113758
-0.103441
-0.118079
-0.142378
-0.131676
-0.116789
-0.142943
-0.150363
-0.144436
-0.139708
-0.15507
-0.168735
-0.154482
-0.138486
-0.142376
-0.136652
-0.106019
-0.0854082
-0.0747747
-0.0691633
-0.0435748
-0.0129185
-0.00719452
-0.0164704
-0.000679016
0.0252938
0.0261536
0.0217638
0.0322161
0.037601
0.0479403
0.0332122
0.0283704
0.0534844
0.0636201
0.0487108
0.0438018
0.0439601
0.0390954
0.0541859
0.0392761
0.05439
0.0644574
0.0495477
0.0396829
0.0397959
0.0548644
0.0448413
0.0246377
0.0292306
0.0387559
0.0379639
0.0220819
0.0215163
0.0366745
0.0277147
0.0197287
0.0182581
0.033484
0.0446372
0.0354071
0.0289817
0.0397058
0.0439806
0.0433245
0.0480309
0.0728951
0.0776916
0.0824871
0.0722837
0.0921483
0.117012
0.121875
0.116717
0.126559
0.141333
0.146039
0.120699
0.110338
0.129976
0.134569
0.124071
0.123505
0.167939
0.152373
0.101762
0.0610828
0.0603819
0.0447483
0.0290475
-0.00165415
0.0026679
0.0218987
0.0161071
-0.00468445
-0.000498772
0.00373173
-0.00703716
-0.0278745
-0.0186443
-0.00945854
-0.0252056
-0.0259523
-0.0217223
-0.0124907
-0.00826073
-0.0189629
-0.0247092
-0.0254555
-0.0711794
-0.116904
-0.137628
-0.138238
-0.198917
-0.189687
-0.020411
0.218887
0.523118
0.897371
1.16165
1.18097
0.830291
0.199612
-0.201067
-0.221723
-0.112401
-0.0730805
-0.0837126
-0.0943012
-0.0848207
-0.0803189
-0.100793
-0.106177
-0.0915613
-0.0969687
-0.112353
-0.117738
-0.108169
-0.0935755
-0.103961
-0.119368
-0.104708
-0.0900011
-0.0952725
-0.10559
-0.0959067
-0.0912685
-0.101699
-0.112264
-0.102626
-0.0927167
-0.097806
-0.102761
-0.11258
-0.11233
-0.102059
-0.106878
-0.116698
-0.0965395
-0.0864272
-0.106291
-0.101133
-0.105952
-0.0907478
-0.100522
-0.11034
-0.100205
-0.0900688
-0.094933
-0.0997977
-0.0996618
-0.0893903
-0.0990958
-0.108553
-0.102784
-0.0917883
-0.0911093
-0.0961776
-0.10724
-0.0946836
-0.103824
-0.118959
-0.129322
-0.129096
-0.121925
-0.117309
-0.116111
-0.0994592
-0.0829892
-0.081903
-0.0810885
-0.0603409
-0.0295491
-0.0236893
-0.0327392
-0.0168338
0.00389099
0.0194798
0
0.0154977
0.02595
0.0212669
0.0264931
0.0218549
0.032217
0.042511
0.0227828
0.0179858
0.0281892
0.0184603
0.0237536
0.00404835
0.00929737
0.024591
0.0149069
0.000178337
0.00556326
0.0209475
0.0213094
0.0115809
0.00671673
0.0166259
0.00149012
0.00128603
-0.00423384
-0.00461864
0.0057888
-0.00278664
-0.0100031
-0.00041008
0.00535917
0.00115061
-0.00473118
0.0115585
0.0210609
0.0204959
0.025383
0.0454736
0.055655
0.0508122
0.0509257
0.0710831
0.081151
0.0861282
0.0811281
0.0911288
0.116197
0.126287
0.116401
0.121514
0.131603
0.126626
0.101648
0.0916491
0.126626
0.136491
0.131356
0.141131
0.170836
0.12043
0.0750217
0.0595684
0.044138
0.0237536
-0.00669813
-0.0222197
-0.00264931
0.0119438
0.00653696
-0.00387049
-0.00430012
0.00022459
-0.00518274
-0.0255899
-0.0309744
-0.00638199
-0.00678873
-0.0171728
-0.0225124
-0.0127835
-0.00805521
-0.0533037
-0.0685525
-0.113847
-0.159141
-0.209434
-0.134774
0.0548868
0.279615
0.589389
0.954185
1.19401
1.2688
1.1436
0.708327
0.178077
-0.157081
-0.252194
-0.237216
-0.162217
-0.0822392
-0.0621486
-0.0820351
-0.0968771
-0.0717182
-0.0766053
-0.0864925
-0.0964246
-0.0813341
-0.0913124
-0.096312
-0.096334
-0.0713339
-0.0813332
-0.0863333
-0.0912199
-0.081039
-0.0609937
-0.070971
-0.105948
-0.101084
-0.0912423
-0.0965137
-0.106446
-0.106174
-0.0858808
-0.105609
-0.115293
-0.114841
-0.0942302
-0.108619
-0.103076
-0.112578
-0.0970354
-0.0864706
-0.105972
-0.110565
-0.0950665
-0.0896368
-0.114251
-0.108912
-0.0936174
-0.0733004
-0.0779166
-0.0823517
-0.0865374
-0.0755639
-0.0795236
-0.108301
-0.111808
-0.0906315
-0.0953379
-0.0961299
-0.0833249
-0.0771255
-0.0869222
-0.121718
-0.134343
-0.128958
-0.112238
-0.115497
-0.114095
-0.0978951
-0.0768094
-0.0757008
-0.0594563
-0.0481677
-0.0218778
-0.0155196
0.000905037
0.0120816
0.0331225
0.0240951
0.00997734
0.0157242
0.0313349
0.021946
0.0126467
0.00337124
0.0241632
0.0399776
0.0308146
0.0216064
0.0174212
0.0281682
0.0238466
0.0145025
0.0202265
0.0209503
0.00171947
-0.00253344
-0.00680971
0.00371075
0.00420856
-0.00554276
-0.000497341
0.0193219
0.0195026
0.000543594
-0.0174427
-0.00398064
-0.00882196
-0.0075326
-0.00597143
0.0200472
0.0290966
0.0157709
0.00588417
0.000635147
0.0104766
0.0156803
-0.00879955
0.00687981
0.0275583
0.0332136
0.0339146
0.049593
0.0802717
0.0909052
0.086606
0.107195
0.122761
0.113305
0.118803
0.114142
0.0994134
0.0945258
0.104526
0.104504
0.114391
0.13912
0.148802
0.153395
0.0829415
0.0524216
0.0369687
0.026494
0.021019
0.005476
-0.0300221
-0.0405192
-0.0311298
-0.0117188
-0.0373073
-0.0428948
-0.0334597
-0.0140476
-0.0246367
-0.0201573
-0.0207005
-0.00628853
0.00316858
-0.012352
-0.0377588
-0.0631433
-0.108528
-0.14398
-0.154478
-0.174953
-0.225542
-0.161107
0.0333958
0.292875
0.6124
0.972016
1.18661
1.1962
0.740704
0.0851836
-0.22036
-0.220812
-0.136242
-0.0966945
-0.0971017
-0.112532
-0.107962
-0.108347
-0.113708
-0.119049
-0.104388
-0.0996809
-0.114952
-0.115246
-0.110631
-0.101084
-0.101582
-0.117125
-0.117668
-0.108166
-0.128709
-0.144139
-0.149613
-0.135089
-0.145609
-0.151311
-0.142057
-0.11251
-0.127894
-0.138188
-0.15346
-0.138664
-0.128755
-0.128891
-0.139027
-0.129095
-0.129117
-0.12914
-0.134118
-0.134049
-0.124049
-0.13414
-0.144275
-0.154411
-0.139524
-0.14466
-0.144683
-0.14957
-0.139231
-0.153824
-0.158394
-0.162647
-0.151697
-0.165837
-0.185588
-0.196085
-0.182489
-0.185136
-0.19957
-0.205272
-0.211154
-0.200045
-0.200701
-0.194683
-0.158733
-0.133122
-0.122646
-0.0922613
-0.0568767
-0.0314474
-0.0209489
-0.0203838
-0.00479507
0.0259066
0.0317211
0.0371504
0.0224223
0.0476255
0.0278068
0.0329657
0.0230107
0.0429654
0.0528297
0.0527616
0.0426936
0.0575347
0.0623765
0.0472631
0.042263
0.0421953
0.0521955
0.0371499
0.0321727
0.0422626
0.0373077
0.0272846
0.0220356
0.0316515
0.0511312
0.0405192
0.0347953
0.0237999
0.0281439
0.0283923
0.0197721
0.0175548
0.0370121
0.0375094
0.0330067
0.0314231
0.0419436
0.0361295
0.0252929
0.0297952
0.034523
0.0592966
0.0589342
0.0635724
0.0682559
0.0878711
0.0924869
0.0970573
0.10165
0.126175
0.135609
0.134975
0.149251
0.173527
0.16269
0.141739
0.140812
0.134704
0.158573
0.147328
0.146084
0.179907
0.198709
0.127509
0.101401
0.0853152
0.0791836
0.0429397
0.0117173
0.0155416
0.0244107
0.00825596
-0.0128975
-0.00907373
-0.000227451
-0.0113583
-0.0175576
-0.0186439
0.000225067
-0.0109286
-0.02215
-0.0233493
-0.02948
-0.0555654
-0.121697
-0.147783
-0.158982
-0.220113
-0.261267
-0.267421
-0.118619
0.0651588
0.268892
0.542648
0.951449
1.2602
1.30894
0.862648
0.166449
-0.189773
-0.185926
-0.107013
-0.0830307
-0.078959
-0.0847735
-0.0855656
-0.10129
-0.106992
-0.0877166
-0.103486
-0.12412
-0.109776
-0.10541
-0.106089
-0.111699
-0.112355
-0.102899
-0.118532
-0.109165
-0.114731
-0.0952959
-0.100997
-0.106653
-0.107015
-0.112263
-0.107535
-0.117738
-0.107829
-0.107873
-0.112896
-0.117942
-0.128055
-0.103145
-0.118236
-0.123214
-0.113145
-0.1081
-0.0980549
-0.108055
-0.1131
-0.1031
-0.0930996
-0.103145
-0.118122
-0.107895
-0.102466
-0.116878
-0.12604
-0.120338
-0.11027
-0.12079
-0.131785
-0.118165
-0.115292
-0.127689
-0.122531
-0.133187
-0.113843
-0.118006
-0.11925
-0.0983906
-0.0771685
-0.0462871
-0.0456543
-0.0349302
-0.00918341
-0.00345993
0.0171957
0.00778437
0.0285311
0.0443006
0.0200472
0.0208621
0.031744
0.0423541
0.0228748
0.0233045
0.0336895
0.0439606
0.0441413
0.0343227
0.0295262
0.0396843
0.0447974
0.0399108
0.0300012
0.0450692
0.0301147
0.03016
0.0252047
0.0302277
0.0402727
0.020318
0.0102954
0.015182
0.0148654
0.0244808
0.00398254
0.00321388
0.0123091
0.00640392
-0.00888968
-0.00836897
0.00307846
-0.00420666
0.000318527
0.0112238
0.0223546
0.0215182
0.0274901
0.0168123
0.0362239
0.0460658
0.0359983
0.0409303
0.0708394
0.0807943
0.085659
0.0904331
0.115274
0.115093
0.124777
0.124437
0.119075
0.128667
0.118237
0.0976944
0.107084
0.126428
0.120841
0.120162
0.139461
0.143736
0.0830579
0.0423336
0.0415645
0.025773
0.00998116
-0.015811
-0.0266709
-0.0125079
-0.00334549
-0.0192046
-0.0250425
-0.0409703
-0.0318756
-0.0376897
-0.0435495
-0.0443645
-0.0301561
-0.0409026
-0.0517173
-0.0474191
-0.0481205
-0.0988674
-0.154614
-0.195315
-0.241062
-0.216808
-0.0875554
0.0467439
0.155997
0.265273
0.429594
0.493939
1.03828
1.23769
1.24211
0.916563
0.276134
-0.164273
-0.23459
-0.159838
-0.0899734
-0.0850415
-0.10002
-0.114975
-0.0999293
-0.0897937
-0.0996799
-0.114499
-0.109318
-0.0892963
-0.0842738
-0.0942278
-0.0992503
-0.094409
-0.0895228
-0.0996585
-0.10984
-0.104999
-0.100248
-0.105566
-0.115904
-0.111221
-0.0964928
-0.101787
-0.102013
-0.102375
-0.0826921
-0.0880537
-0.103573
-0.104094
-0.0944796
-0.0998187
-0.119999
-0.130067
-0.114999
-0.114908
-0.124817
-0.129659
-0.114524
-0.109434
-0.109321
-0.114207
-0.10414
-0.0989594
-0.0987787
-0.108643
-0.0985084
-0.088304
-0.103146
-0.117942
-0.112671
-0.107421
-0.10715
-0.116788
-0.111336
-0.0958381
-0.0902724
-0.0993209
-0.0882807
-0.0670137
-0.0554514
-0.0439806
-0.0431662
-0.0181432
0.00574827
-0.00196648
-0.0110846
-0.000880718
0.0200009
0.0181909
0.0038023
0.0151372
0.0212231
0.0319705
0.0223999
0.0327845
0.0481243
0.0384183
0.0337124
0.0290971
0.0494585
0.054821
0.0451159
0.0354095
0.0506811
0.0509753
0.0362244
0.0214958
0.0467677
0.0320168
0.0222659
0.0175152
0.0275826
0.02247
0.0171757
0.00658751
0.0110898
0.0112257
0.0119724
-0.00182819
0.00486851
0.0073123
9.48906e-05
0.000320435
0.00147486
0.0226512
0.00233412
-0.000833035
-0.00101376
0.00346613
0.00828505
-0.00660181
-0.0164886
0.00357914
0.00862455
0.00873804
0.00385046
0.00894165
0.0240321
0.0341458
0.0343041
0.0394173
0.064621
0.07478
0.0649381
0.0801196
0.100255
0.0954361
0.105549
0.115663
0.130844
0.131002
0.116115
0.111273
0.111454
0.126635
0.116793
0.121974
0.161974
0.171906
0.12177
0.101543
0.0712485
0.045886
0.0254784
9.34601e-05
-0.000290871
-0.00563002
-0.00605965
-0.0115123
-0.016964
-0.00734854
-0.00777817
-0.0331855
-0.0285921
-0.0139318
-0.0192933
-0.029633
-0.0299726
-0.0203571
-0.0257649
-0.0311718
-0.0315566
-0.0218968
-0.0322809
-0.0376658
-0.0479827
-0.10821
-0.128391
-0.168573
-0.233687
-0.218732
-0.0637102
0.101289
0.331357
0.696538
1.02676
1.17197
1.02224
0.532602
0.00303221
-0.216538
-0.201085
-0.125656
-0.0700893
-0.0745463
-0.0889125
-0.0882788
-0.0726905
-0.0820794
-0.0914683
-0.0958352
-0.0951567
-0.0844331
-0.0837774
-0.0931888
-0.0826006
-0.0721941
-0.0818548
-0.0864925
-0.0812435
-0.0810175
-0.0908136
-0.105587
-0.105496
-0.0854287
-0.0804515
-0.0905418
-0.0906549
-0.0807004
-0.0806561
-0.0806561
-0.0907693
-0.0859957
-0.0911546
-0.0913801
-0.0866747
-0.0969467
-0.0919919
-0.0869241
-0.0868344
-0.081676
-0.0764046
-0.0811558
-0.0907936
-0.0904541
-0.0801153
-0.0847077
-0.0993009
-0.0988708
-0.0883722
-0.0728526
-0.102287
-0.0966082
-0.0908833
-0.0901828
-0.0893679
-0.108462
-0.0874891
-0.0815387
-0.100656
-0.104729
-0.088778
-0.082828
-0.091742
-0.0904751
-0.0840511
-0.0674663
-0.0306797
-0.0289145
-0.0128512
0.017127
0.0257926
0.0176706
0.0131454
0.0181236
0.0129647
-0.00918484
0.00590515
0.0269008
0.0329642
0.0187559
0.0243897
0.0300674
0.035656
0.0212212
0.0168099
0.0224428
0.0330763
0.0286875
0.019321
0.0248866
0.025475
0.0160627
0.0167198
0.0223079
0.0228963
0.00841665
-0.0112896
-0.00104046
0.00398207
-0.00126648
-0.00649261
-0.00106335
0.0101814
0.0124893
0.00142527
0.0068779
0.0131221
0.0237327
0.0120811
-0.00208139
0.00271416
0.0126915
-0.00703716
-0.0115848
-0.021132
-0.00574684
-0.0052948
-0.014843
-0.0194349
-0.00407362
-0.00864363
-0.0282822
-0.0228515
0.00760078
0.00803089
0.0334601
0.0339127
0.0543427
0.0647726
0.0601344
0.060451
0.0658588
0.0912657
0.0917182
0.102216
0.122758
0.128325
0.11389
0.0794783
0.095067
0.1207
0.136312
0.116855
0.127398
0.157896
0.128325
0.0736194
0.0488224
0.0490255
0.0391617
-0.000860691
-0.00604153
-0.0112228
-0.0015173
-0.00187922
-0.0222421
-0.0175586
-0.00798798
-0.0134411
-0.0189385
-0.0243907
-0.024888
-0.0254078
-0.0309272
-0.0414476
-0.0418553
-0.0623765
-0.047852
-0.023304
-0.0188246
-0.0243449
-0.039865
-0.0753393
-0.115815
-0.136268
-0.181721
-0.22215
-0.177377
-0.012536
0.177328
0.447284
0.812329
1.09744
1.18753
1.19262
0.527736
0.0278497
-0.171992
-0.191788
-0.136539
-0.091291
-0.100996
-0.105725
-0.0954533
-0.0852275
-0.100023
-0.109865
-0.104639
-0.0994811
-0.0893459
-0.0991421
-0.0989614
-0.10378
-0.0985761
-0.103418
-0.098237
-0.10817
-0.118215
-0.10826
-0.113418
-0.103644
-0.0938473
-0.109118
-0.114389
-0.109729
-0.115181
-0.145634
-0.156132
-0.146698
-0.122285
-0.112896
-0.138508
-0.129028
-0.114662
-0.120295
-0.121064
-0.136878
-0.12276
-0.123416
-0.123936
-0.14439
-0.12975
-0.13509
-0.140339
-0.145408
-0.13543
-0.13034
-0.135204
-0.140069
-0.119865
-0.109639
-0.139435
-0.154254
-0.163915
-0.153508
-0.158055
-0.172534
-0.171992
-0.16654
-0.1662
-0.17577
-0.180227
-0.159503
-0.163643
-0.152626
-0.131313
-0.109934
-0.0840058
-0.0790281
-0.0651593
-0.0276031
0.00812101
-0.00258064
0.00615263
0.0158591
0.0229859
0.00751066
0.0182118
0.0239592
0.0444107
0.0496144
0.0296602
0.0397515
0.0448871
0.0449777
0.02
0.0250454
0.0350227
0.0351582
0.0303621
0.0256104
0.0408144
0.0359941
0.0259938
0.0207453
0.0254283
0.0349751
0.0243421
0.00886726
0.0191388
0.0303154
0.0227585
0.00683069
0.0171704
0.0328937
0.0336843
0.0164223
0.021853
0.0314231
0.0259256
0.0106764
0.00558615
0.0154281
0.0203152
0.015202
0.0150895
0.0299768
0.0248399
0.0347495
0.0296144
0.0195236
0.0244327
0.0143189
0.00911617
0.0239582
0.0187998
0.0286865
0.0334601
0.043189
0.0730305
0.0828714
0.0726676
0.0925546
0.102329
0.117103
0.126899
0.126651
0.136379
0.156085
0.14579
0.135563
0.140427
0.130155
0.134928
0.129704
0.149432
0.174184
0.188755
0.128257
0.0926681
0.0920801
0.0663557
0.040586
0.0247264
0.0138221
0.00291729
0.00196648
-0.00905085
0.00993156
0.0039134
-0.00703716
-0.00303316
0.00581312
-0.00534105
-0.0215626
-0.0227613
-0.0190058
-0.0202723
-0.0165391
-0.0278063
-0.0340738
-0.0353627
-0.0616293
-0.112896
-0.139118
-0.175272
-0.221313
-0.177263
0.00689983
0.251108
0.530407
0.894841
1.20446
1.32405
1.11873
0.583553
0.0334172
-0.221854
-0.221968
-0.162126
-0.112194
-0.0821481
-0.0921259
-0.102058
-0.0970583
-0.0920124
-0.0970354
-0.101991
-0.12199
-0.111946
-0.1169
-0.111923
-0.12199
-0.117217
-0.102465
-0.107805
-0.123189
-0.123619
-0.114072
-0.11457
-0.125091
-0.135656
-0.131289
-0.126945
-0.122534
-0.1331
-0.123642
-0.114299
-0.124955
-0.130612
-0.131381
-0.122286
-0.118167
-0.133823
-0.124321
-0.114727
-0.129976
-0.135111
-0.140225
-0.125226
-0.125157
-0.135225
-0.130316
-0.115407
-0.120498
-0.125521
-0.130589
-0.115634
-0.115589
-0.130521
-0.135317
-0.115068
-0.124774
-0.114412
-0.119072
-0.118619
-0.11285
-0.136923
-0.140927
-0.129614
-0.118121
-0.126832
-0.121243
-0.121696
-0.10837
-0.106809
-0.116628
-0.0966501
-0.0699539
-0.0527596
-0.0518093
-0.0406551
-0.014977
0.000452995
0.00574732
0.000973701
0.0211778
0.0413818
0.0365853
0.0318336
0.037015
0.0571961
0.0624003
0.0476036
0.0527391
0.0578976
0.0630565
0.0532141
0.0533733
0.0585995
0.0588484
0.0540066
0.0440974
0.0641203
0.0489397
0.0436454
0.0381479
0.0374465
0.0369716
0.0323105
0.0287361
0.041451
0.0458174
0.0515866
0.0528765
0.0432382
0.0462022
0.0617003
0.0360217
0.0503435
0.0499134
0.0297775
0.0147557
0.0146198
0.0344615
0.0243254
0.0141673
0.00394058
0.0237374
0.0134888
0.00828505
0.0180135
0.0427876
0.0725617
0.0673585
0.0821538
0.0969281
0.116725
0.111498
0.106295
0.121046
0.140797
0.145503
0.130141
0.119733
0.124349
0.113852
0.118308
0.12272
0.132064
0.151386
0.165594
0.154847
0.114123
0.0833321
0.0575175
0.0217257
0.010911
9.63211e-05
-0.0157642
-0.0365782
-0.0173702
-0.00816154
-0.0189314
-0.0247226
-0.0254917
-0.0212841
-0.0171208
-0.0328674
-0.0286369
-0.0293837
-0.0301304
-0.0508318
-0.0466237
-0.0323253
-0.043004
-0.103705
-0.139384
-0.14513
-0.195854
-0.246532
-0.212166
-0.0528216
0.166612
0.441047
0.825503
1.15001
1.21951
0.854146
0.683897
-0.181284
-0.226398
-0.146443
-0.116398
-0.101308
-0.0961275
-0.100992
-0.100789
-0.110494
-0.1002
-0.0898609
-0.0995893
-0.0992503
-0.0888658
-0.083571
-0.103277
-0.103028
-0.0978241
-0.0976429
-0.107507
-0.122438
-0.107416
-0.0923705
-0.102393
-0.107484
-0.10771
-0.09796
-0.0982318
-0.103526
-0.0987759
-0.0939341
-0.0991607
-0.0993867
-0.0997038
-0.0950656
-0.0954494
-0.100834
-0.106015
-0.101037
-0.101105
-0.0959916
-0.11081
-0.105675
-0.0905852
-0.0954728
-0.0953374
-0.0851331
-0.0749526
-0.0847945
-0.0945683
-0.0944104
-0.0842743
-0.0890698
-0.0987763
-0.0983462
-0.0828934
-0.0823503
-0.101808
-0.0961523
-0.0903826
-0.0793424
-0.088098
-0.086627
-0.0649757
-0.0484142
-0.0482783
-0.0343647
-0.0173283
-0.00164938
-0.00121975
-0.00413847
0.0209517
0.0227394
0.0245042
0.0256128
0.0414505
0.0472188
0.0378079
0.0332603
0.0387125
0.0441203
0.0395274
0.0299344
0.0303864
0.0508389
0.0413594
0.0418119
0.0472646
0.0427165
0.0481243
0.0285544
0.0239615
0.0343914
0.044754
0.0351381
0.0255456
0.0309072
0.0310431
0.0210423
0.0109067
0.0105443
0.0100241
0.00472879
-0.00990915
-0.00857401
0.00402784
0.00343943
0.00427723
0.00536203
0.0148649
0.0236201
0.00843906
0.00300932
0.00791883
0.0129871
-0.00189972
0.00319004
0.00828075
0.00839376
0.00346184
-0.0114255
0.00875568
0.0139585
0.00913954
0.0143876
0.0195918
0.0347047
0.0497727
0.044817
0.0548854
0.074954
0.0849538
0.0749545
0.0799317
0.114863
0.129682
0.129365
0.129047
0.133685
0.123323
0.0979385
0.107531
0.117079
0.136626
0.146152
0.145654
0.130157
0.084682
0.0641618
0.048573
0.0230074
0.00760031
-0.00287533
-0.00839472
-0.0138474
0.00074482
-0.0246396
-0.0300241
-0.035409
-0.0307937
-0.0261784
-0.0266309
-0.0320382
-0.0273776
-0.0277176
-0.0381017
-0.0433965
-0.0287132
-0.0340071
-0.0642567
-0.129483
-0.159732
-0.189959
-0.225185
-0.220298
0.0846572
0.359703
0.764838
1.07002
1.13027
0.775608
0.130993
-0.2286
-0.233238
-0.127854
-0.0973778
-0.106858
-0.101405
-0.0809302
-0.0904555
-0.0950027
-0.114573
-0.0941658
-0.0937815
-0.103465
-0.123126
-0.107877
-0.102605
-0.0973339
-0.102243
-0.10213
-0.097085
-0.102129
-0.107174
-0.107243
-0.0973549
-0.0974684
-0.107559
-0.112694
-0.0878534
-0.0880566
-0.103328
-0.118667
-0.104098
-0.0995498
-0.104618
-0.119573
-0.109482
-0.0943465
-0.109211
-0.11403
-0.108758
-0.0985093
-0.0932603
-0.0980339
-0.0927391
-0.0824676
-0.0871515
-0.0919018
-0.0916533
-0.0913138
-0.0960197
-0.110635
-0.105318
-0.109978
-0.0946383
-0.0942311
-0.0835981
-0.0726705
-0.0766754
-0.0854306
-0.0839148
-0.0676479
-0.0471501
-0.0476699
-0.0296831
-0.00339365
0.00205803
0.00773716
0.000451088
0.0105186
0.0218081
0.0285277
0.0301113
0.0364237
0.0476904
0.049026
0.040225
0.0461526
0.0670347
0.0628939
0.0336189
0.034184
0.0497718
0.0503831
0.0359941
0.0316501
0.042171
0.0527139
0.0432343
0.0337548
0.049366
0.0499997
0.030633
0.0211987
0.0317192
0.0272627
0.0328727
0.00850725
0.0040493
0.004457
0.0195699
0.00457001
0.00450182
-0.000724792
-0.000928402
-0.0198879
-0.0226712
-0.00857592
0.00192165
-0.00726414
-0.0130787
0.00823402
0.01794
0.0126009
-0.00728559
-0.00201464
0.01828
0.00359678
-0.00108719
0.00918484
0.0195236
0.0198407
0.0151806
0.0305429
0.0458817
0.0561309
0.0514698
0.0568323
0.0922623
0.0927143
0.0881667
0.103461
0.113687
0.128845
0.128935
0.118981
0.118959
0.128891
0.123642
0.123484
0.138258
0.152986
0.167601
0.157148
0.0716729
0.0562429
0.0406547
0.0250888
0.0196133
0.0141158
-0.00135946
-0.0118566
-0.0173097
-0.00774002
-0.0181694
-0.0285993
-0.0340734
-0.0145483
-0.0150008
-0.0403852
-0.0457473
-0.046155
-0.0265174
-0.0369248
-0.0323548
-0.0426931
-0.0779648
-0.128146
-0.148372
-0.193621
-0.233915
-0.169164
-0.00941324
0.220474
0.585361
0.975406
1.16061
1.1109
0.666221
0.136628
-0.157965
-0.242536
-0.202105
-0.121653
-0.101177
-0.11568
-0.100204
-0.0846844
-0.0941639
-0.103621
-0.0981226
-0.077693
-0.0922408
-0.101788
-0.106403
-0.101042
-0.0956793
-0.105363
-0.105069
-0.0997968
-0.114548
-0.119322
-0.124231
-0.104253
-0.0942531
-0.109344
-0.129502
-0.119592
-0.104796
-0.105067
-0.105429
-0.110723
-0.126063
-0.126402
-0.12681
-0.0971484
-0.0825329
-0.0929399
-0.0983696
-0.108891
-0.104479
-0.115044
-0.120361
-0.11552
-0.110588
-0.115632
-0.130633
-0.13052
-0.110406
-0.110293
-0.130157
-0.144998
-0.129772
-0.134545
-0.139206
-0.138844
-0.143436
-0.143006
-0.152554
-0.16201
-0.161513
-0.120924
-0.110245
-0.0994544
-0.0834141
-0.0621471
-0.0456762
-0.044138
-0.00812101
-0.00298452
0.0109968
0.00348568
0.00936937
0.0343242
0.0391879
0.0198889
0.0376711
0.042377
0.0375352
0.0287576
0.0199795
0.0309067
0.0315175
0.03197
0.0274224
0.0328069
0.0531912
0.0485983
0.0390062
0.024436
0.0197749
0.0251374
0.000453949
0.0157924
0.0161548
0.0115619
-0.00309896
-0.0129862
0.00694656
0.00685596
0.00649405
-0.0040946
0.0106111
0.00106382
0.00260258
-0.00923061
-0.00929785
-0.0134835
-0.00289488
-0.0243659
-0.013144
-0.00828028
-0.00382328
-0.00927639
-0.0092988
-0.00423098
0.00079155
-0.0192313
-0.0142083
0.000859261
0.00597191
-0.00896025
-0.0138474
0.00124311
0.0163336
0.00635672
0.0014019
0.0214462
0.036469
0.0315371
0.0265822
0.0465369
0.0765367
0.0814915
0.0665598
0.0966501
0.106763
0.0968084
0.096899
0.107012
0.127103
0.127261
0.122238
0.12208
0.131899
0.116672
0.106423
0.106107
0.120654
0.145179
0.144546
0.128867
0.0930972
0.0673285
0.0415816
0.0158124
0.00997543
0.00413847
-0.0116534
-0.0174222
-0.0132136
-0.00907326
-0.0249782
-0.0308833
-0.0418563
-0.032784
-0.0337343
-0.0447302
-0.0457253
-0.0317659
-0.0227842
-0.0488477
-0.0547299
-0.0705223
-0.111179
-0.16179
-0.217401
-0.232899
-0.108419
0.0812869
0.335948
0.680699
1.05052
1.27034
1.2802
1.01022
0.535223
0.0953579
-0.0195518
-0.259484
-0.264439
-0.214394
-0.154303
-0.12428
-0.114213
-0.109099
-0.119031
-0.128918
-0.108851
-0.113715
-0.118737
-0.128805
-0.11885
-0.104032
-0.119144
-0.124347
-0.119641
-0.10498
-0.11541
-0.130816
-0.116291
-0.106789
-0.107423
-0.113034
-0.123758
-0.119438
-0.120184
-0.130976
-0.131813
-0.12256
-0.143374
-0.139143
-0.135025
-0.11593
-0.131812
-0.132491
-0.138079
-0.113599
-0.109188
-0.12955
-0.149821
-0.135047
-0.125319
-0.135613
-0.145863
-0.136021
-0.136156
-0.131291
-0.136427
-0.146472
-0.136495
-0.131494
-0.146426
-0.141222
-0.145973
-0.140724
-0.160384
-0.165045
-0.164661
-0.154027
-0.14819
-0.162172
-0.125905
-0.109548
-0.103982
-0.0943213
-0.0609503
-0.0342531
-0.0191402
-0.0245028
-0.00384569
0.00941133
0.0200677
0.0162439
0.0170131
0.0274434
0.0377154
0.022964
0.0131006
0.0282364
0.0334177
0.0285764
0.0236888
0.038825
0.0490055
0.0340734
0.0391417
0.0442095
0.0442319
0.0443444
0.0294805
0.0396395
0.0397525
0.0298877
0.00986481
0.0146389
0.0341868
0.0235081
0.0277162
0.0124679
0.0281467
0.025002
0.0083952
0.0234179
0.0494814
0.0306344
0.0255661
0.0182805
0.0340276
0.0342979
0.0284615
0.017602
0.0169463
0.0315843
0.021358
0.00615501
0.0209284
0.030725
0.0354304
0.0102038
0.029932
0.034729
0.034502
0.0392532
0.0390949
0.0588913
0.0736871
0.0685053
0.0783253
0.0931444
0.107963
0.112782
0.132623
0.142444
0.157285
0.147037
0.146719
0.151335
0.150882
0.135429
0.124886
0.124207
0.15355
0.162894
0.15226
0.106469
0.0906997
0.0799079
0.074162
0.0283928
0.0225329
0.0166054
0.0106778
0.00979519
0.0139356
0.0080533
-0.00780725
-0.0136895
0.00549555
-0.000318527
-0.0112233
-0.0221734
-0.0180106
-0.0188932
-0.0246849
-0.0405445
-0.0314269
-0.0223541
-0.0433049
-0.0992999
-0.135273
-0.156133
-0.212083
-0.23792
-0.0636668
0.145677
0.415133
0.774726
1.12445
1.24434
1.04432
0.469295
-0.075706
-0.225548
-0.160366
-0.110277
-0.100163
-0.0999365
-0.0797553
-0.0945969
-0.109393
-0.0992126
-0.0839868
-0.103692
-0.118352
-0.103035
-0.0927186
-0.0924244
-0.0921531
-0.111904
-0.101656
-0.0965204
-0.111384
-0.121294
-0.101204
-0.0962491
-0.0963621
-0.101476
-0.0917239
-0.0868821
-0.102131
-0.107357
-0.102605
-0.0929441
-0.103329
-0.113668
-0.114098
-0.0995059
-0.104981
-0.11541
-0.110932
-0.111474
-0.106995
-0.112357
-0.11256
-0.107673
-0.0977407
-0.112741
-0.102651
-0.0973792
-0.0921755
-0.111881
-0.11661
-0.101293
-0.10593
-0.110545
-0.115024
-0.114481
-0.0989833
-0.108463
-0.122921
-0.10731
-0.101562
-0.0957475
-0.104979
-0.0941415
-0.0731459
-0.0568337
-0.0504532
-0.0488472
-0.0170598
-0.00572538
-0.00520468
-0.000657082
0.0123515
0.0287089
0.0188451
0.0143652
0.0269675
0.0370355
0.0381432
0.0343423
0.0502028
0.0509491
0.0366273
0.0323067
0.0379391
0.0435729
0.0342293
0.0299306
0.0405412
0.0611076
0.0416732
0.0372391
0.0228043
0.0334606
0.0440941
0.0346599
0.0352936
0.0459042
0.0512891
0.0314927
0.0366058
0.0464473
0.041244
0.0268326
0.0133257
0.0210633
0.0254755
0.0164938
0.0030551
0.0337563
0.0468335
0.0224442
0.012332
0.0324898
0.0378747
0.0233722
0.0187793
0.0142322
0.0197067
0.0301824
0.0156355
-0.00382185
0.00158548
0.0169926
0.00242281
0.0129433
0.0234632
0.0290294
0.0295048
0.0399799
0.0504551
0.0608625
0.0514045
0.0619931
0.0825806
0.103236
0.123915
0.109594
0.115295
0.126019
0.126765
0.127512
0.14819
0.158824
0.154412
0.13991
0.14534
0.150657
0.170884
0.171065
0.156133
0.121222
0.101313
0.071291
0.0461774
0.0460196
0.0357709
0.000658035
-0.00943232
-0.0095005
0.000386715
-0.0096817
-0.0147262
-0.0199299
-0.0301795
-0.0204058
-0.0156994
-0.0109267
-0.00115299
-0.00140142
-0.0265827
-0.0217638
-0.00194454
-0.00214815
-0.0473742
-0.11751
-0.127419
-0.177216
-0.23208
-0.141921
0.0382595
0.283441
0.633758
0.989165
1.21468
1.11509
0.645432
0.0958614
-0.178596
-0.20285
-0.132103
-0.111334
-0.0956101
-0.0899315
-0.0842528
-0.0985289
-0.10776
-0.0969906
-0.0811758
-0.0804067
-0.0896592
-0.0840025
-0.0833011
-0.107758
-0.117169
-0.0914907
-0.0958123
-0.110134
-0.114523
-0.108799
-0.108098
-0.102374
-0.116695
-0.11613
-0.105519
-0.109998
-0.119658
-0.124387
-0.124161
-0.134003
-0.128798
-0.128664
-0.118709
-0.113731
-0.113709
-0.128754
-0.108867
-0.0988903
-0.118913
-0.134003
-0.119093
-0.124252
-0.114614
-0.130021
-0.120315
-0.130315
-0.130089
-0.139794
-0.1395
-0.12898
-0.123324
-0.122759
-0.162238
-0.15174
-0.14613
-0.160518
-0.169953
-0.159184
-0.158324
-0.177397
-0.186379
-0.180361
-0.154343
-0.153188
-0.151989
-0.130767
-0.0995913
-0.0784597
-0.0674872
-0.0513563
-0.0250216
-0.0235276
-0.0270801
-0.000495911
0.0261559
0.0473542
0.0525355
0.0315852
0.0292091
0.0251141
0.0097971
-0.0107231
-0.00502157
0.0235076
0.0290508
0.0200005
0.035996
0.036901
0.0277152
0.0184617
0.0191641
0.0247297
0.0304313
0.0261774
0.0417428
0.0422406
0.00739861
-0.0124655
0.00267029
0.0276017
0.0328732
0.0339365
0.0111537
0.00997686
0.010272
0.0364943
0.057353
0.0561085
0.0423307
-0.00271463
-0.00787258
0.00233078
0.0126467
0.00803137
0.00341558
-0.00115395
-0.00576973
-0.0154305
-0.0301127
-0.00977278
0.0157013
0.0161309
0.00153828
0.0219231
0.0222855
0.0126476
0.00305414
0.00334883
0.0284853
0.00864315
-0.00615263
-0.00597239
0.0142312
0.0344567
0.00968266
0.0148873
0.0600228
0.0752039
0.0705199
0.065814
0.0810852
0.106447
0.121855
0.107148
0.11751
0.13794
0.13837
0.113891
0.109433
0.129954
0.140316
0.14061
0.165813
0.181108
0.171266
0.0913115
0.0511761
0.0460167
0.0508366
0.000497341
-0.0199547
0.00956964
0.0291176
0.0233932
0.00757885
0.026741
0.0558143
0.0299091
-0.0059967
-0.0169015
-0.0279646
-0.0290956
-0.0301819
-0.0412006
-0.0421505
-0.0530782
-0.0588918
-0.0446167
-0.00522757
-0.0207477
-0.0661778
-0.116518
-0.141857
-0.192264
-0.237581
-0.162785
0.0621476
0.302125
0.581944
0.951763
1.22163
1.27647
0.996288
0.366152
-0.0838475
-0.183735
-0.18369
-0.158576
-0.133531
-0.108463
-0.098372
-0.0933037
-0.118191
-0.108055
-0.0679412
-0.0977836
-0.0926251
-0.09758
-0.147602
-0.157512
-0.142354
-0.13715
-0.146902
-0.151811
-0.121856
-0.101879
-0.121789
-0.126653
-0.11663
-0.111722
-0.111992
-0.122309
-0.127648
-0.127965
-0.123305
-0.128712
-0.134255
-0.134889
-0.120636
-0.111449
-0.142219
-0.142942
-0.133667
-0.129436
-0.150069
-0.160771
-0.146427
-0.127106
-0.107852
-0.118644
-0.124663
-0.120726
-0.12136
-0.141858
-0.142243
-0.12756
-0.117739
-0.137694
-0.172558
-0.167445
-0.172354
-0.187264
-0.197061
-0.161698
-0.171337
-0.185974
-0.200567
-0.20016
-0.194866
-0.209572
-0.18921
-0.15878
-0.14326
-0.152627
-0.136971
-0.101157
-0.0706367
-0.0649805
-0.0691886
-0.0336227
0.000833988
0.00891161
0.000585079
0.0156078
0.039567
0.0432553
0.0437531
0.0274191
0.0379615
0.0386171
0.0538669
0.0588431
0.0537987
0.0638433
0.0488214
0.0437074
0.03864
0.0486174
0.0436401
0.0338664
0.0290246
0.0340023
0.0337758
0.0434141
0.0477805
0.0470114
0.0365586
0.0321469
0.0487986
0.0518079
0.0465136
0.0473285
0.0433693
0.0481877
0.050179
0.0300884
0.034523
0.0340028
0.0486403
0.033392
0.0181422
0.0230069
0.0179396
0.0177131
0.0175552
0.0225325
0.0223746
0.0121937
0.00701284
-0.00337172
0.00622129
0.000926971
-0.00938988
0.000293255
0.0249543
0.0147505
0.00961542
0.0144572
0.0343213
0.0442538
0.0391407
0.0440054
0.0588923
0.0638018
0.0636883
0.073576
0.098485
0.113417
0.128371
0.128304
0.13828
0.153145
0.152964
0.147647
0.137285
0.151787
0.131108
0.125384
0.139637
0.173982
0.203258
0.19742
0.101493
0.0905647
0.0845251
0.0434608
0.017375
0.0113792
0.00536108
0.00413942
0.00287199
0.016582
0.015203
-0.00617743
-0.0224438
-0.0136881
-0.00495529
-0.00631285
-0.00769329
-0.0140738
-0.0105214
-0.0168109
-0.0380325
-0.0391183
-0.0302262
-0.0762444
-0.0921717
-0.162919
-0.198687
-0.144433
0.0499325
0.33448
0.674119
1.05871
1.28839
1.33321
0.9531
0.283078
-0.15699
-0.217081
-0.137102
-0.0870347
-0.0819216
-0.101876
-0.0967627
-0.076695
-0.0966496
-0.11165
-0.106582
-0.111559
-0.111537
-0.116581
-0.121627
-0.116672
-0.10665
-0.121696
-0.116808
-0.121967
-0.117148
-0.137374
-0.142691
-0.118052
-0.113437
-0.123934
-0.129546
-0.120179
-0.115881
-0.126583
-0.137261
-0.137827
-0.113392
-0.129048
-0.13975
-0.130451
-0.13622
-0.12708
-0.127917
-0.118551
-0.124071
-0.129546
-0.135044
-0.145384
-0.135655
-0.145905
-0.146153
-0.146379
-0.141605
-0.156786
-0.166855
-0.171923
-0.156899
-0.151877
-0.166832
-0.176832
-0.171741
-0.166605
-0.176538
-0.186357
-0.191153
-0.170814
-0.170429
-0.174908
-0.164116
-0.123143
-0.10708
-0.0958805
-0.0645685
-0.0388217
-0.0139799
-0.0152926
-0.0130754
0.00255871
0.0223775
0.0172639
0.0191875
0.0238256
0.0440068
0.0346174
0.0197988
0.029912
0.0450473
0.0452056
0.0503411
0.0405445
0.0506797
0.0357704
0.0259056
0.031064
0.0362449
0.0414028
0.0415158
0.0266066
0.0417199
0.0268106
0.0218558
0.0168562
0.0316982
0.0215168
0.0309958
0.0202727
0.0298877
0.0254083
0.01724
0.0254984
0.0305204
0.0365839
0.0379181
0.0274658
0.0239811
0.0385289
0.0228271
0.0174208
0.012218
0.0220599
0.0168338
0.0116076
0.0114264
0.0162225
0.0109959
0.0157919
0.00549889
0.0152488
0.0200224
0.0197058
0.0143442
0.03405
0.0486889
0.04844
0.0481009
0.0727615
0.0923991
0.0920138
0.0916972
0.106381
0.131019
0.135658
0.130319
0.134934
0.129459
0.118939
0.103305
0.107671
0.121947
0.116177
0.130362
0.149435
0.148553
0.102671
0.0668111
0.0508394
0.0448213
0.0187573
-0.00223827
-0.0182338
-0.00932026
0.00966215
-0.00133324
-0.0173278
-0.0384145
-0.0195222
-0.0306311
-0.0366945
-0.0377584
-0.0138893
-0.0300431
-0.041152
-0.017283
-0.0184369
-0.00956821
-0.0257449
-0.0368762
-0.0579619
-0.104026
-0.145
-0.170882
-0.211652
-0.222331
-0.117806
0.0768085
0.346537
0.706311
1.08622
1.26111
1.15106
0.69104
0.0860858
-0.0738692
-0.193757
-0.103666
-0.0936213
-0.0985532
-0.103463
-0.0833492
-0.0981226
-0.102988
-0.107829
-0.107738
-0.102671
-0.107717
-0.102874
-0.0979872
-0.0880771
-0.0983262
-0.113575
-0.103937
-0.0842757
-0.0946836
-0.105068
-0.10059
-0.091042
-0.111563
-0.117084
-0.122649
-0.0981693
-0.103599
-0.104119
-0.119686
-0.105274
-0.105975
-0.111744
-0.117265
-0.102627
-0.0979662
-0.103282
-0.108508
-0.103666
-0.093802
-0.108938
-0.119119
-0.119301
-0.104346
-0.11446
-0.124505
-0.10955
-0.0945497
-0.0995502
-0.0995049
-0.119391
-0.104256
-0.0991197
-0.113916
-0.113667
-0.103329
-0.0978308
-0.0970616
-0.101089
-0.0948448
-0.0784645
-0.0675597
-0.0676498
-0.0438943
-0.0206132
-0.0200481
-0.0251384
-0.00927877
0.00922871
0.0100884
0.0115819
0.0177355
0.0384593
0.0438895
0.0492067
0.0244551
0.0347266
0.0449076
0.0301561
0.0254512
0.0307226
0.0359488
0.0311079
0.026289
0.0314698
0.0365825
0.0366964
0.0318999
0.0270133
0.0371037
0.0323749
0.017601
0.0228724
0.0331221
0.0233483
0.0133939
0.00323486
0.0229864
0.0126243
0.00199032
-0.0136657
-0.00880146
-0.00803185
-0.0160866
-0.0375571
-0.00728607
0.00886726
0.0094552
0.00296211
0.0087986
0.0139108
0.00841284
0.00320959
0.00811911
0.0180511
0.0130067
-0.00703812
0.00287151
0.00778103
0.00766754
0.00248671
0.0323286
0.0622153
0.0571923
0.0521698
0.0721474
0.0871248
0.0971246
0.087101
0.0970783
0.106966
0.12683
0.121672
0.126491
0.136174
0.140857
0.120405
0.104952
0.124453
0.133933
0.133322
0.142643
0.151919
0.111173
0.0604267
0.0496349
0.0388885
0.02812
0.00737333
-0.00337362
-0.00409746
0.0101557
0.00438643
-0.0213823
-0.0171518
-0.0229206
-0.0186672
-0.029346
-0.0349793
-0.0256577
-0.0262904
-0.0319915
-0.0327158
-0.0233483
-0.0140276
-0.0346384
-0.0702491
-0.11586
-0.136471
-0.192059
-0.227647
-0.11819
0.0963573
0.34095
0.43061
1.03538
1.19522
0.980111
0.410088
-0.0898447
-0.229777
-0.199709
-0.139642
-0.0895066
-0.0693026
-0.079031
-0.103918
-0.0988269
-0.103713
-0.0936899
-0.0987124
-0.103848
-0.108961
-0.0941186
-0.1043
-0.0945716
-0.0948887
-0.0902286
-0.0855908
-0.0910892
-0.106586
-0.0970836
-0.0975804
-0.108057
-0.113532
-0.0940967
-0.0946841
-0.115499
-0.116223
-0.0967884
-0.102218
-0.112602
-0.117941
-0.108145
-0.0983715
-0.103598
-0.123733
-0.108846
-0.108936
-0.124073
-0.124253
-0.109411
-0.0845695
-0.0996833
-0.109774
-0.119819
-0.0999098
-0.105022
-0.110136
-0.110272
-0.0954084
-0.0955215
-0.110385
-0.12491
-0.119276
-0.108393
-0.117307
-0.136538
-0.121537
-0.101854
-0.0942516
-0.10328
-0.0981436
-0.0882115
-0.0821023
-0.0885282
-0.0628266
-0.0365367
-0.0304966
-0.0247269
-0.0190034
0.0118113
0.0226483
0.0234852
0.0190964
0.0445256
0.0399332
0.0402045
0.0304313
0.0356116
0.0408378
0.031064
0.0262904
0.0264711
0.0415387
0.0316978
0.0167651
0.0169005
0.0219688
0.0270367
0.017127
0.012218
0.0323086
0.0174441
0.0125351
-0.00232935
0.00773859
0.012671
0.0123997
0.00201511
0.0064044
0.0107031
0.000453949
-0.00886679
0.00296545
0.00520611
0.000183582
-0.00418329
0.000500202
0.0025816
0.00244617
0.00163126
0.00602102
0.010704
0.000614166
-0.00945377
0.000432968
0.0152516
0.0201387
0.0249577
0.0297771
0.0595961
0.059392
0.0641437
0.0640078
0.0887818
0.103623
0.108397
0.108126
0.132832
0.142537
0.137107
0.121632
0.121066
0.130433
0.139755
0.134053
0.173329
0.172514
0.126723
0.0859542
0.0601392
0.0543246
0.0235314
0.0177174
-0.00802898
-0.00384378
0.000296116
-0.0105176
-0.0113549
0.00271702
0.00183439
-0.00395727
-0.019681
-0.0204501
-0.0212193
-0.017056
-0.0328255
-0.0235953
-0.0144095
-0.0151339
-0.0258574
-0.0516043
-0.0972834
-0.13803
-0.198799
-0.224501
-0.140179
0.039052
0.0983057
0.567627
0.937039
1.14145
1.18089
0.925343
0.389913
-0.0755172
-0.225789
-0.185992
-0.10615
-0.0862861
-0.106377
-0.101399
-0.0913539
-0.0813084
-0.0912857
-0.0962181
-0.0762415
-0.0762639
-0.0863547
-0.106582
-0.106808
-0.0920796
-0.0873976
-0.0878272
-0.10328
-0.0888228
-0.0993881
-0.0949988
-0.100586
-0.096107
-0.0966725
-0.102283
-0.112871
-0.0936408
-0.0943422
-0.099885
-0.105293
-0.105587
-0.100859
-0.105972
-0.121085
-0.111198
-0.101266
-0.111357
-0.111424
-0.111515
-0.0965595
-0.101582
-0.0966725
-0.106763
-0.0968084
-0.111786
-0.116832
-0.116854
-0.101922
-0.101831
-0.111515
-0.121017
-0.110225
-0.0990486
-0.102872
-0.101831
-0.0962658
-0.105859
-0.0966282
-0.103551
-0.0921259
-0.0817413
-0.0761538
-0.0835519
-0.0683708
-0.0469456
-0.0256786
-0.0198417
-0.0140719
0.0117869
0.0176926
0.0186658
0.0146384
0.0304527
0.0361094
0.0266061
0.0170588
0.0323529
0.0276694
0.0379181
0.0281444
0.0333939
0.0386195
0.043891
0.0342531
0.0294795
0.0397735
0.0349998
0.0251579
0.0302935
0.0354519
0.030633
0.0358133
0.016017
0.0312204
0.0364017
0.00644684
0.00628805
0.0159717
0.010406
-0.00527334
-0.00561237
0.0049305
0.0107446
0.00366306
0.00323343
0.0136633
0.0292964
0.0188441
0.0159249
0.00585699
0.0151553
0.00965786
0.00949955
0.00440931
0.0192051
0.0141144
0.0140467
0.0139565
0.0288429
0.0437303
0.043685
0.0486398
0.0836172
0.0884361
0.0883002
0.0930738
0.117824
0.137598
0.147191
0.136738
0.146241
0.145766
0.1352
0.134589
0.138978
0.153368
0.177734
0.157124
0.10649
0.0859022
0.0652685
0.0595899
0.0138884
0.018187
0.0224853
0.00182915
-0.00382614
0.000426769
0.0047698
-0.0158863
-0.0315194
-0.0171762
-0.0177183
-0.0282836
-0.0438495
-0.0245061
-0.0251846
-0.0257044
-0.0712252
-0.111791
-0.137333
-0.197831
-0.278374
-0.27394
-0.214482
-0.10998
-0.070478
0.18898
0.468504
0.848007
1.08258
1.03724
0.616943
0.0566492
-0.223531
-0.20369
-0.10878
-0.0837569
-0.0937119
-0.108599
-0.0834622
-0.0833263
-0.0931678
-0.0981002
-0.0881004
-0.0831003
-0.0781226
-0.0882139
-0.0984635
-0.0886221
-0.0888262
-0.0940757
-0.104393
-0.109731
-0.0800257
-0.100342
-0.100658
-0.0859075
-0.0812235
-0.0815396
-0.101947
-0.0923986
-0.0878744
-0.0882587
-0.0934172
-0.0885081
-0.0887122
-0.093689
-0.0986443
-0.0985312
-0.0884628
-0.10335
-0.103214
-0.0980549
-0.0929418
-0.0778279
-0.0826244
-0.0973763
-0.0871725
-0.0769696
-0.086834
-0.0916762
-0.0865855
-0.0814734
-0.0763836
-0.0962706
-0.0911798
-0.0760889
-0.0808845
-0.0855446
-0.0799108
-0.079186
-0.0929642
-0.0764928
-0.0855422
-0.0504298
-0.0414248
-0.0489588
-0.0278955
-0.00732946
-0.0110173
-0.0123301
0.00339413
0.0199318
0.0214019
0.0175786
0.0136647
0.0299315
0.0360632
0.0219226
0.0276237
0.0382576
0.0489588
0.044457
0.0300002
0.03052
0.0409722
0.051425
0.0318093
0.0322399
0.0425572
0.0428734
0.0232358
0.0186205
0.0289822
0.0343223
0.0347295
0.000136852
0.0155892
0.0258617
0.0108843
-0.00922918
0.0104771
0.0248213
0.0142326
0.00378036
0.00880289
0.00902939
0.00540972
0.00803375
0.0124454
0.0129433
0.01826
0.0166073
0.00742245
0.0219469
0.0265622
0.00660753
0.00676632
0.0168567
0.0169239
0.0171046
0.00726414
0.0424223
0.0625358
0.0526938
0.0478754
0.0781016
0.108351
0.0985775
0.0988488
0.114144
0.13446
0.144709
0.12489
0.125207
0.135457
0.115705
0.120841
0.125909
0.150931
0.155841
0.16575
0.125591
0.0904098
0.080205
0.0749335
0.0245948
0.0292783
0.00893927
0.00350952
-0.00689793
-0.00239563
-0.00287056
-0.00329971
-0.00870752
-0.0240917
-0.0244312
-0.0298386
-0.0352459
-0.0306306
-0.0260601
-0.0164447
-0.0218515
-0.0222592
-0.012599
-0.0129604
-0.0133448
-0.0386615
-0.0540013
-0.104295
-0.124611
-0.229882
-0.250199
-0.130403
0.0543709
0.304235
0.669212
0.999212
1.1193
0.94446
0.429731
-0.0199971
-0.209681
-0.194365
-0.124002
-0.0886407
-0.103233
-0.0927811
-0.0823059
-0.0669208
-0.0714684
-0.0910163
-0.0904951
-0.094975
-0.0844998
-0.0890474
-0.0935946
-0.0730972
-0.077599
-0.0721698
-0.08674
-0.0813546
-0.0861063
-0.0909028
-0.100766
-0.0956302
-0.0955396
-0.105585
-0.110652
-0.0956974
-0.0908561
-0.111037
-0.111264
-0.121445
-0.0916491
-0.0918074
-0.0969429
-0.0921917
-0.0874181
-0.102622
-0.107849
-0.113234
-0.0987077
-0.0991602
-0.0945454
-0.0947266
-0.0947261
-0.0947933
-0.0897708
-0.0996571
-0.0994539
-0.0942063
-0.103934
-0.0985498
-0.0980973
-0.0976682
-0.102148
-0.116515
-0.120746
-0.119999
-0.124275
-0.133528
-0.127691
-0.116809
-0.116039
-0.120203
-0.119343
-0.0785513
-0.0574651
-0.0461755
-0.0396595
-0.0279179
-0.00615311
-0.00011158
9.53674e-07
0.0192771
0.0325346
0.0193224
0.0150228
0.0299778
0.0297737
0.0296612
0.021358
0.0155215
0.0161996
0.027195
0.0128512
0.0132356
0.0235972
0.0290051
0.0293665
0.0147519
0.0251818
0.0306568
0.0211554
0.0066309
0.0171056
0.0176482
0.0180779
0.0033946
0.013485
0.00350809
-0.00192261
-0.0124655
-0.0174651
-0.00160551
-0.0145473
-0.0209045
-0.0107918
0.00493145
-0.0151362
-0.0125351
-0.00706053
0.0075779
-0.00260401
-0.007514
-0.0223103
-0.0171509
-0.0169468
-0.0117202
-0.0214262
-0.0111542
-0.0159059
-0.02068
-0.0255671
-0.0203862
-0.0101376
-0.00991154
-0.029573
-0.0143242
-0.00405216
0.00619698
0.0164223
0.0216036
0.0467629
0.0518994
0.0621023
0.0572152
0.0773959
0.0825996
0.092916
0.0782094
0.108413
0.113616
0.108775
0.0890231
0.0892262
0.114453
0.104679
0.099793
0.104793
0.134748
0.15459
0.144364
0.119093
0.0888214
0.0535274
0.048142
0.0277123
0.0173726
-0.0030117
-0.013464
-0.0289836
-0.019527
-0.0150242
-0.0205221
-0.0460653
-0.041585
-0.0421052
-0.0476484
-0.0432358
-0.033824
-0.0344801
-0.0350685
-0.0306797
-0.0463357
-0.0419693
-0.0476022
-0.108077
-0.148439
-0.173734
-0.218869
-0.214028
-0.094141
0.0758362
0.250858
0.470948
0.746061
0.991129
1.13629
1.16651
1.13672
0.741988
0.197282
-0.137446
-0.212198
-0.151881
-0.0915651
-0.0912251
-0.10584
-0.0904555
-0.090003
-0.0896406
-0.104323
-0.108961
-0.0935993
-0.0933051
-0.108034
-0.107831
-0.097672
-0.0975819
-0.102536
-0.107581
-0.102694
-0.102829
-0.10801
-0.123213
-0.108507
-0.103846
-0.119254
-0.119638
-0.120091
-0.100476
-0.105861
-0.131223
-0.121653
-0.11206
-0.117467
-0.117942
-0.113463
-0.113983
-0.114685
-0.130205
-0.125589
-0.10586
-0.111042
-0.131155
-0.131177
-0.136132
-0.121087
-0.120974
-0.130861
-0.120703
-0.115409
-0.115115
-0.11973
-0.129322
-0.108802
-0.133259
-0.142693
-0.152151
-0.14154
-0.140906
-0.140182
-0.139413
-0.128644
-0.117649
-0.12654
-0.120205
-0.088645
-0.0771065
-0.071156
-0.0509295
-0.0216308
-0.0138025
-0.0126266
-0.0123782
0.00305223
0.0103149
-0.00511503
-0.00421047
0.0118308
0.0325775
0.0279841
0.0233917
0.0238223
0.0342293
0.0245461
0.00979567
0.0100446
0.0202932
0.0157008
0.0210409
0.0113568
0.026741
0.0371261
0.0274649
0.0278049
0.0331659
0.0282793
0.0232344
-0.00697041
0.00759983
0.0172377
0.00241899
-0.00667667
-1.90735e-06
0.0127134
0.0166721
0.00169516
0.0123296
0.0281668
0.0238681
0.0177598
0.0190949
0.0239363
0.0185289
0.00341558
-0.00147104
-0.00129032
0.00382185
-0.0110197
-0.00592852
0.0142074
0.00925255
-0.000724316
-0.000679016
0.0143442
0.0293674
0.0393901
0.0393682
0.0593681
0.0694127
0.0794134
0.0744357
0.0795035
0.0996161
0.104661
0.104683
0.124728
0.129705
0.119706
0.104705
0.109706
0.119706
0.124638
0.11457
0.0994802
0.119345
0.129232
0.134073
0.163824
0.133507
0.0980768
0.0677142
0.0423522
0.0318995
0.0213785
0.00588083
-0.0147748
-0.0153632
-0.00592804
-0.00651598
-0.0270815
-0.0226917
-0.01828
-0.0188231
-0.0344338
-0.045022
-0.0306554
-0.0212665
-0.0269461
-0.0476022
-0.0381904
-0.0437331
-0.0492997
-0.119865
-0.145409
-0.170929
-0.231427
-0.231811
-0.0971737
0.0925779
0.317464
0.632397
0.97242
1.14751
1.07262
0.66285
0.133099
-0.171742
-0.221562
-0.166313
-0.106086
-0.0958152
-0.0954537
-0.0951595
-0.099843
-0.0795259
-0.0792317
-0.0839829
-0.113711
-0.0884399
-0.0830784
-0.0977836
-0.0924668
-0.0971503
-0.0918341
-0.101562
-0.106382
-0.111269
-0.101179
-0.0962687
-0.106405
-0.106563
-0.0967665
-0.0920153
-0.102309
-0.102648
-0.0929651
-0.0833049
-0.0986662
-0.0989375
-0.0942774
-0.0746388
-0.0800686
-0.100499
-0.106087
-0.0966988
-0.112151
-0.112467
-0.107693
-0.0928292
-0.102897
-0.0978298
-0.0977387
-0.0875573
-0.0823765
-0.0971956
-0.0969472
-0.0766754
-0.0812902
-0.09586
-0.0904536
-0.0899553
-0.099412
-0.113846
-0.113213
-0.0925565
-0.0919003
-0.0911541
-0.0954294
-0.0947061
-0.0738463
-0.0777383
-0.086494
-0.0749779
-0.0583491
-0.0521951
-0.0568104
-0.0424213
-0.0244803
-0.0129862
-0.00739813
-0.0213346
-0.00495434
0.0101814
0.00628996
0.00224018
0.0328054
0.0332122
0.0286417
0.0240264
0.0294333
0.0447726
0.0401797
0.0255189
0.0308805
0.0462432
0.0315819
0.0169668
0.0223517
0.027782
0.0131888
0.00357389
0.00889111
0.0191846
0.0241847
0.00904894
0.00880051
0.0133018
0.017827
-0.00206041
-0.0111322
0.0108137
0.00425243
-0.000792027
0.00493145
0.00531673
0.0139146
0.020113
0.0149102
0.0144353
0.0392542
0.0243449
-0.000564575
0.0145259
0.0195942
0.00966215
-0.00022459
0.00988865
0.0149794
0.0100017
-0.00490808
0.000205517
0.0102735
0.0203867
0.0104547
0.0204773
0.045455
0.0555005
0.0554781
0.065455
0.0905232
0.105546
0.100592
0.100637
0.115705
0.13575
0.13084
0.115886
0.125886
0.115864
0.120864
0.115774
0.130729
0.135639
0.165457
0.155164
0.114801
0.0843482
0.068964
0.0335112
0.0230131
0.0125384
0.00208521
-0.0284123
-0.0289555
-0.0144076
-0.0148826
-0.0103359
-0.0357428
-0.0261955
-0.0116711
-0.0221238
-0.0375986
-0.0381188
-0.0336623
-0.0341372
-0.0346122
-0.0351105
-0.0255852
-0.0360379
-0.0814672
-0.131875
-0.152305
-0.207689
-0.243052
-0.15339
0.0363383
0.266157
0.591022
0.940886
1.11095
0.97109
0.871112
0.0162258
-0.208593
-0.183435
-0.113277
-0.0980287
-0.102802
-0.0825524
-0.0873041
-0.0921001
-0.101784
-0.0814672
-0.0861502
-0.100833
-0.105494
-0.100223
-0.089951
-0.10477
-0.119635
-0.104499
-0.0943861
-0.0942955
-0.0992956
-0.0943408
-0.0944095
-0.0995216
-0.104726
-0.0999966
-0.0902915
-0.0906758
-0.106038
-0.10149
-0.0970116
-0.097487
-0.11303
-0.11355
-0.108958
-0.0994105
-0.109931
-0.110406
-0.100972
-0.101719
-0.0972619
-0.102579
-0.0928497
-0.0930762
-0.0931892
-0.10819
-0.0981221
-0.0980997
-0.103077
-0.108077
-0.102986
-0.0878954
-0.0876923
-0.107444
-0.097218
-0.086946
-0.101606
-0.101155
-0.105634
-0.0951133
-0.0945706
-0.0990052
-0.108372
-0.0877609
-0.0670819
-0.0762
-0.0801597
-0.053915
-0.0423994
-0.0359287
-0.0351138
-0.0150461
0.00879955
0.0106769
-0.00889254
0.00633383
0.0277596
0.0114927
0.0118999
0.0227823
0.0433259
0.0285292
0.0187554
0.0139594
0.0241857
0.0293217
0.0195026
0.0197515
0.0249782
0.0252495
0.0154977
0.000700951
0.0209036
0.0261292
0.0212879
0.0114241
0.00660515
0.021605
0.0214014
0.00103998
0.00540686
0.0146823
0.00432014
-0.0201592
-0.0136204
0.00943375
-0.0159507
-0.0155878
0.0040946
0.00834846
0.00882339
0.00823545
0.00271463
0.0125337
0.0175114
0.00744247
0.00244236
0.017375
0.00730658
0.00214863
-0.0129638
-0.00812197
0.00176525
0.00160694
-0.0135517
0.0113354
0.0262666
0.0111537
0.00601768
0.0158367
0.0457234
0.0606322
0.0505428
0.0604973
0.0854287
0.105383
0.0902929
0.100202
0.115089
0.124999
0.129931
0.119772
0.129637
0.129434
0.10923
0.113937
0.12871
0.143416
0.147986
0.162533
0.13199
0.0864468
0.0659041
0.045361
0.0297723
0.00918388
-0.0114498
-0.0171504
-0.012897
0.00137949
-0.00932121
-0.0200448
-0.0357237
-0.0214014
-0.00703573
-0.0176473
-0.0232577
-0.0239596
-0.0245476
-0.0301595
-0.0358157
-0.0264034
-0.0220375
-0.0226941
-0.0533042
-0.0888467
-0.134345
-0.174911
-0.240386
-0.215837
-0.0661545
0.128574
0.388324
0.783189
1.07317
1.10312
0.803098
0.283143
-0.0968571
-0.211699
-0.16654
-0.0913134
-0.0811329
-0.0759287
-0.075861
-0.0808387
-0.0807028
-0.0805893
-0.0854764
-0.110363
-0.105296
-0.0902276
-0.0902047
-0.0951147
-0.0800242
-0.0648894
-0.0847535
-0.0897527
-0.0947299
-0.0797758
-0.0749116
-0.0900922
-0.0803185
-0.0856123
-0.0809288
-0.0913353
-0.0867658
-0.0823531
-0.0729642
-0.0785308
-0.0991416
-0.0897756
-0.0802956
-0.0858383
-0.106404
-0.10197
-0.0975804
-0.0882597
-0.0939388
-0.084527
-0.0749116
-0.0702734
-0.0955677
-0.0907717
-0.0858846
-0.08602
-0.111043
-0.11602
-0.0960436
-0.0759983
-0.09093
-0.100703
-0.0954094
-0.105093
-0.104798
-0.114437
-0.0989385
-0.0885091
-0.083034
-0.102469
-0.101699
-0.0756807
-0.0796857
-0.0786223
-0.0773325
-0.0507717
-0.0542789
-0.0482607
-0.0179663
-0.00373554
0.0139561
0.0148387
0.00483894
0.00965834
0.0178032
0.0180516
0.0137978
0.0392509
0.0494318
0.0395451
0.0296807
0.0398169
0.04493
0.0449977
0.0151119
0.0202475
0.0303831
0.0355191
0.0106091
0.0107231
0.030859
0.016017
0.0211306
0.0162435
0.0263791
0.0313792
0.0111527
0.0207238
0.0251346
0.0293655
0.0036869
-0.00640345
0.00936604
0.0113797
-0.0048418
-0.00977373
0.0104299
0.0242982
0.020792
-0.0144801
-0.00527191
-0.000814438
-0.00604057
-0.021245
0.00359726
0.0234613
0.00334883
-0.00178671
-0.00194502
0.0029192
0.0126705
0.00244427
-0.0027585
0.002038
0.00694752
-0.00805187
-0.0180068
0.00690317
0.0168362
0.0317235
0.03161
0.0465422
0.0664062
0.0712705
0.0509987
0.075727
0.100387
0.105002
0.104571
0.109118
0.118599
0.12301
0.097331
0.0966749
0.110929
0.115092
0.114233
0.123305
0.1374
0.10654
0.0556579
0.0347977
0.0239835
0.0131464
-0.00775909
-0.0187087
-0.0195909
-0.0155644
-0.0215368
-0.0424418
-0.0383019
-0.0441842
-0.0450892
-0.0609937
-0.0469441
-0.0378489
-0.0487766
-0.0496593
-0.0505414
-0.0563331
-0.0922155
-0.143098
-0.14889
-0.154704
-0.20545
-0.286175
-0.266876
-0.147577
0.0268121
0.266337
0.620884
0.990545
1.14027
1.15996
0.40464
-0.0756083
-0.205835
-0.161061
-0.106219
-0.0863323
-0.0764456
-0.0865579
-0.0916715
-0.096807
-0.0918975
-0.0820556
-0.0921912
-0.0973725
-0.0875535
-0.0928926
-0.103323
-0.113798
-0.0943189
-0.089817
-0.0953608
-0.0959711
-0.0816045
-0.0823512
-0.0881205
-0.113935
-0.109749
-0.0905862
-0.0864229
-0.102146
-0.0978703
-0.0936174
-0.0945001
-0.100337
-0.0961742
-0.0870786
-0.0881653
-0.0990477
-0.0947723
-0.0904965
-0.096108
-0.101516
-0.111832
-0.107194
-0.102556
-0.112895
-0.113234
-0.113461
-0.10371
-0.103935
-0.134184
-0.13941
-0.134636
-0.124863
-0.135089
-0.130293
-0.115406
-0.120429
-0.120361
-0.109977
-0.0843663
-0.07862
-0.0726247
-0.0568099
-0.0411539
-0.0271268
-0.0196381
-0.0288229
-0.0038228
-0.00332499
0.00952578
0.00977468
0.0209508
0.0419917
0.0477376
0.033371
0.0489144
0.054276
0.0495248
0.0296602
0.0497966
0.0648637
0.0499091
0.0449543
0.0399776
0.0450454
0.0549998
0.0449548
0.0399094
0.0448642
0.0447512
0.0347281
0.0297279
0.0346375
0.0446377
0.0295696
0.029479
0.0291619
0.0336642
0.0331893
0.0176692
0.0119224
0.0308361
0.0248857
0.00943327
0.00974989
0.0211759
0.0192075
0.0138674
0.0241847
0.0396371
0.0366731
0.0314465
0.025609
0.0349979
0.0346813
0.0244546
0.0142059
0.0240021
0.0337982
0.0235491
0.00827742
0.00811958
0.0279155
0.0327578
0.042531
0.0623055
0.0920787
0.0868301
0.0866036
0.0913777
0.116129
0.125902
0.130676
0.145403
0.160132
0.164724
0.144272
0.13382
0.123345
0.122779
0.107191
0.126513
0.130811
0.140133
0.149432
0.153686
0.117984
0.0872831
0.0815806
0.0408568
0.0200653
0.0193186
0.00854874
0.00277996
-0.00298929
0.00124121
-0.0145283
-0.0202975
-0.0310216
-0.0217457
-0.0225372
-0.0384431
-0.0492792
-0.0250487
-0.0208187
-0.0265646
-0.0472431
-0.0529218
-0.103555
-0.149167
-0.199732
-0.230207
-0.165637
-0.125976
0.23373
0.578481
0.958345
1.14323
1.00821
0.488233
-0.0266762
-0.22654
-0.196427
-0.121201
-0.080884
-0.0906119
-0.100386
-0.0951591
-0.0799336
-0.0897069
-0.0944357
-0.0991411
-0.0989156
-0.0886207
-0.103349
-0.0981226
-0.0928288
-0.09758
-0.0973535
-0.0972404
-0.102196
-0.0971503
-0.0871725
-0.107287
-0.0924225
-0.0926042
-0.0778079
-0.0880799
-0.0984192
-0.0937362
-0.09412
-0.0995502
-0.10989
-0.100206
-0.0955229
-0.100884
-0.101291
-0.0917201
-0.0872407
-0.097806
-0.0981231
-0.0783048
-0.0733953
-0.0784636
-0.0884638
-0.0884409
-0.0733957
-0.0933051
-0.0981927
-0.0930343
-0.0828528
-0.0977621
-0.0976486
-0.112468
-0.0871739
-0.0918117
-0.101404
-0.105885
-0.0904093
-0.0848441
-0.0842791
-0.0885777
-0.072854
-0.062108
-0.066226
-0.060185
-0.0438719
-0.0224462
-0.0108175
-0.00416565
0.00703335
0.0324407
0.036922
0.0248404
0.0311985
0.0469894
0.0337543
0.0227141
0.0285745
0.0400672
0.0511079
0.0366735
0.0321937
0.0376921
0.04319
0.0336199
0.0340724
0.034502
0.0349317
0.0353394
0.0207467
0.0411544
0.0314713
0.0267429
0.0171046
0.0174441
0.0178065
0.0131006
0.00334883
0.00830364
0.0230999
0.0077157
0.00214958
-0.00312185
0.00183249
0.00848484
-0.00339317
-0.00859642
0.00705957
0.0071497
0.00984192
0.000159264
0.0145931
0.0092082
-0.00581455
-0.0107012
0.0143666
0.019412
0.0145478
-0.00524807
0.00486469
0.0149779
0.0150456
-0.00495434
-0.00490904
0.0101361
0.00522614
0.00531673
0.00533915
0.0354075
0.0505433
0.0406342
0.0507021
0.0758157
0.0908608
0.0859966
0.0911093
0.106246
0.126404
0.121472
0.121517
0.126517
0.126494
0.116358
0.101178
0.111019
0.130837
0.130611
0.140317
0.155001
0.109639
0.0742998
0.0489831
0.0386438
0.0333271
0.027966
0.0126271
-0.00768948
-0.00307465
-0.00348139
-0.0188665
-0.0142736
-0.0197039
-0.0150881
-0.0355406
-0.0409703
-0.0313773
-0.0267839
-0.0221915
-0.0425763
-0.0379157
-0.0431871
-0.0384583
-0.038662
-0.053865
-0.0740232
-0.129092
-0.174159
-0.229091
-0.243978
-0.143842
0.016294
0.241543
0.591837
0.947176
1.08256
0.873102
0.3536
-0.0959477
-0.240496
-0.180067
-0.0945473
-0.0840273
-0.0885062
-0.0930543
-0.0825787
-0.0821266
-0.0916057
-0.0961757
-0.100769
-0.0902929
-0.0898857
-0.084456
-0.0841169
-0.0788007
-0.0684609
-0.0781446
-0.0828276
-0.0775108
-0.062284
-0.0721478
-0.0819893
-0.0719666
-0.0719662
-0.082056
-0.0971689
-0.0773277
-0.0675306
-0.0727572
-0.0830059
-0.0733013
-0.0635495
-0.0687537
-0.0789795
-0.0842738
-0.0746136
-0.0749302
-0.0802698
-0.095655
-0.0960174
-0.0862427
-0.0913563
-0.0864468
-0.0714917
-0.0715141
-0.0864239
-0.0912204
-0.0859489
-0.0755644
-0.0851789
-0.0997043
-0.0941844
-0.0836186
-0.0829844
-0.0872831
-0.0915136
-0.0856996
-0.0748177
-0.0889125
-0.0779161
-0.0669436
-0.0559483
-0.0549068
-0.0386863
-0.0173059
-0.01579
-0.0139804
-0.00207996
0.0247078
0.0354095
0.0350022
0.0277624
0.0388942
0.0443916
0.0307713
0.0292788
0.024776
0.0361557
0.0322418
0.0330334
0.0337572
0.0494356
0.0401144
0.0306802
0.0312686
0.0518565
0.04249
0.0331235
0.0287342
0.0393672
0.0350013
0.0205436
0.0160642
0.0166292
0.0272622
0.012805
-0.00178719
0.0133939
0.00339365
0.00314426
0.00278282
0.0128736
0.0137563
0.0107474
-0.00570059
-0.000564575
-0.00981808
-0.00499868
-0.00257778
0.00280762
0.0175357
0.00758076
-0.00694466
-0.0114698
0.00900507
0.00945759
0.00486517
-0.00975084
0.0105658
0.0159955
0.00140238
0.00174189
0.0171485
0.0275788
0.0280538
0.0135288
0.0190721
0.0196376
0.0151806
0.0257235
0.051312
0.0619001
0.0775332
0.0781446
0.0937777
0.104389
0.119955
0.115633
0.111289
0.1269
0.132534
0.123123
0.10371
0.124253
0.134683
0.129977
0.120249
0.150498
0.165658
0.155725
0.105703
0.0907249
0.0957251
0.0857477
0.0607705
0.0357699
0.0257468
0.00570154
-0.0193439
-0.0193892
-0.00941086
-0.00450134
-0.0246377
-0.0297503
-0.0198412
-0.0199318
-0.034977
-0.0450449
-0.0350904
-0.0351129
-0.0350676
-0.0400224
-0.044909
-0.0847502
-0.129524
-0.174253
-0.229004
-0.228732
-0.203371
0.0471048
0.307602
0.668122
0.993666
1.10925
0.90491
0.430566
-0.0137324
-0.223144
-0.177465
-0.106763
-0.0910616
-0.0954056
-0.0897498
-0.069139
-0.0684829
-0.0878716
-0.102216
-0.0915599
-0.0809493
-0.0803614
-0.0998406
-0.0742755
-0.0737548
-0.0782351
-0.0927596
-0.0872841
-0.0768094
-0.0814018
-0.0859718
-0.0855656
-0.0751805
-0.0747962
-0.089457
-0.109231
-0.104073
-0.0989828
-0.0989828
-0.104074
-0.0941863
-0.0942998
-0.09448
-0.104638
-0.114887
-0.10518
-0.110474
-0.110677
-0.0908585
-0.086062
-0.0813336
-0.111582
-0.111877
-0.0873065
-0.102556
-0.102624
-0.112556
-0.107465
-0.112398
-0.127263
-0.127059
-0.121809
-0.116379
-0.125836
-0.14527
-0.129636
-0.133913
-0.138165
-0.142397
-0.146537
-0.130655
-0.124773
-0.138913
-0.117986
-0.10708
-0.101266
-0.085361
-0.059411
-0.043303
-0.0369906
-0.0204978
-0.0137339
0.00823498
0.00974989
0.010406
0.0101118
0.0234375
0.0250897
0.0104518
0.00574636
0.0061307
0.0152035
0.00094986
0.00196743
0.0177598
0.0232348
0.0187097
0.0140939
-0.000521183
0.0098176
0.0151796
-0.0044589
-0.00911951
0.00128794
-0.00328159
-0.0129199
-0.0127163
-0.00273848
0.00205803
-0.00344038
-0.0139832
-0.0144591
-0.0087347
-0.0118575
-0.0184188
-0.00848627
-0.00792074
-0.0133286
-0.020885
-0.000454426
