ekg
0
0.00166655
-0.00500011
-0.00928545
0.00444412
0.0104542
-0.00615358
-0.0250001
-0.0132351
-0.018158
-0.021667
-0.0230436
-0.00940037
-0.00833368
-0.0167246
-0.0266128
-0.0321212
-0.027
-0.0245943
-0.0528207
-0.0393906
-0.0187211
-0.0106664
-0.0176592
0.00540829
0.0195093
0.059339
0.0549989
0.0462279
0.0776267
0.108688
0.124842
0.125307
0.141418
0.132536
0.119437
0.115616
0.142066
0.153636
0.150127
0.115802
0.107591
0.0944118
0.0662651
0.0529213
0.0597796
0.076344
0.0829473
0.0646386
0.0514641
0.0583162
0.044951
0.0363808
0.0174298
0.0235782
0.00986528
0.00141525
-0.0123916
0.0137177
0.019958
0.0011158
0.00178862
0.0125604
0.0284257
0.0293407
0.00519085
0.0109401
0.0116296
0.00237226
-0.0222659
-0.0221624
-0.00220203
0.00237894
-0.0112247
-0.0344634
-0.0420866
-0.0520258
-0.0624194
-0.0531216
-0.0380821
-0.0384164
-0.0783744
-0.111727
-0.102635
-0.100562
-0.0974269
-0.104509
-0.0910001
-0.0875702
-0.0897484
-0.102569
-0.0854096
-0.0783782
-0.0812836
-0.084815
-0.0884557
-0.0875907
-0.0866156
-0.105762
-0.105
-0.0942287
-0.0835471
-0.0978293
-0.0971012
-0.0666265
-0.0563269
-0.070962
-0.0756507
-0.0652533
-0.0701141
-0.0901561
-0.100655
-0.0962205
-0.0768318
-0.0875101
-0.0832114
-0.0790033
-0.0848861
-0.100859
-0.101855
-0.0828733
-0.0640044
-0.0701585
-0.0763116
-0.0774875
-0.0786638
-0.0947948
-0.0909038
-0.0969448
-0.0978045
-0.0887771
-0.0896826
-0.0904746
-0.0911307
-0.0866737
-0.0920362
-0.0972629
-0.07724
-0.0621953
-0.0521278
-0.0519466
-0.041585
-0.0410643
-0.0304985
0.00515842
0.0957694
0.351335
0.871922
1.02762
0.61837
0.489139
0.359796
0.370384
0.390859
0.431243
0.451583
0.441923
0.407352
0.392873
0.438349
0.443757
0.429118
0.41448
0.354843
0.245092
0.140386
0.0655441
-0.0742736
-0.219093
-0.248844
-0.233618
-0.21337
-0.243076
-0.272805
-0.297443
-0.302013
-0.266629
-0.251291
-0.220974
-0.190613
-0.175341
-0.18007
-0.189776
-0.174436
-0.179074
-0.188735
-0.183486
-0.138191
-0.122897
-0.127512
-0.117082
-0.0816298
-0.07129
-0.0810413
-0.0957923
-0.0905886
-0.0652943
-0.0650229
-0.0747066
-0.0744123
-0.069118
-0.0638919
-0.0636206
-0.0733719
-0.0630322
-0.0677152
-0.072444
-0.0572634
-0.0320592
-0.0218778
-0.031765
-0.0416069
-0.0263805
-0.0211992
-0.0360408
-0.0457239
-0.0304527
-0.00520372
-0.014955
-0.00472879
0.025475
0.0506334
0.0607462
0.0607915
0.0709271
0.0860853
0.111312
0.116425
0.121515
0.141583
0.146697
0.171877
0.182035
0.202148
0.217261
0.217284
0.207103
0.20665
0.205791
0.173211
0.174931
0.175542
0.173053
0.151311
0.119411
0.102443
0.085453
0.0683937
0.0562439
0.0391173
0.0420585
0.0300674
0.00807619
-0.00400591
-0.010951
-0.0125575
-0.0186663
-0.0283957
-0.0252504
-0.0210648
-0.0284176
-0.0358601
-0.0283256
-0.0154977
-0.0226693
-0.0247288
-0.0168319
-0.0188012
-0.0307913
-0.0378051
-0.0346613
-0.0164928
-0.0284395
-0.0356112
-0.0280547
-0.030951
-0.014277
-0.0279198
-0.0422177
-0.0320821
-0.0219913
-0.0469465
-0.0569468
-0.0420365
-0.0472407
-0.0625796
-0.0780325
-0.0633264
-0.0585308
-0.0785985
-0.0835533
-0.0835075
-0.0684175
-0.0733724
-0.0883269
-0.0933495
-0.0733943
-0.0883703
-0.0931439
-0.0978947
-0.0876222
-0.0872831
-0.0968304
-0.106377
-0.0958571
-0.0854053
-0.104998
-0.109523
-0.10898
-0.103528
-0.108143
-0.107804
-0.102464
-0.092103
-0.116832
-0.11656
-0.111424
-0.0913115
-0.0961761
-0.111063
-0.0959277
-0.0958371
-0.100904
-0.105973
-0.10104
-0.106244
-0.0864925
-0.096787
-0.102036
-0.0873308
-0.0876255
-0.0978522
-0.0980101
-0.0781002
-0.078167
-0.0931897
-0.103144
-0.0729628
-0.0727811
-0.0825095
-0.0921707
-0.086741
-0.0611534
-0.0554295
-0.0596375
-0.0387554
0.00721693
0.0532122
0.149162
0.52509
0.680905
0.93681
0.517738
0.353688
0.389549
0.410341
0.411042
0.421653
0.462196
0.47274
0.468192
0.453645
0.46403
0.484414
0.464776
0.425092
0.405387
0.355726
0.24102
0.166224
0.096427
-0.0133247
-0.138076
-0.192827
-0.172511
-0.157195
-0.126924
-0.166653
-0.196472
-0.206336
-0.196224
-0.196111
-0.186019
-0.15102
-0.151019
-0.160995
-0.171041
-0.176018
-0.170995
-0.191017
-0.21104
-0.185995
-0.155972
-0.165972
-0.170905
-0.16577
-0.145612
-0.145476
-0.150296
-0.150137
-0.145025
-0.129911
-0.144775
-0.144616
-0.129458
-0.1193
-0.124231
-0.134096
-0.134006
-0.123893
-0.133779
-0.138688
-0.128552
-0.118485
-0.143463
-0.14344
-0.128372
-0.118372
-0.133349
-0.123439
-0.108462
-0.0934849
-0.0885072
-0.093575
-0.083643
-0.0737791
-0.0488696
-0.0489826
-0.0390506
-0.00909615
-0.00411892
-0.00418615
0.020678
0.0355644
0.0404749
0.055316
0.0551124
0.0799532
0.0947495
0.0944548
0.104184
0.118663
0.127781
0.120746
0.111515
0.106288
0.102646
0.0954289
0.0984383
0.0812669
0.0840726
0.0668092
0.0544109
0.0320349
0.0346818
0.0273967
0.00524759
-0.0117893
-0.00366783
-4.81606e-05
-0.00475359
-0.0187588
-0.0163827
-0.0204778
-0.0200024
-0.0342774
-0.0277629
-0.020658
-0.018373
-0.0261784
-0.0190516
-0.0119472
-0.00477457
-0.0224671
-0.0248885
-0.0172181
-0.00970602
-0.0223079
-0.0201135
0.0016737
0.0031662
-0.0157251
-0.0252042
-0.0201812
-0.0253172
-0.0352955
-0.03016
-0.0249567
-0.00993395
-0.0150023
-0.0201602
-0.0203638
-0.000499725
0.0043869
-0.00568008
-0.00572586
0.004251
0.00418329
-0.0110197
-0.0162234
-0.00649452
-0.0118108
-0.0320363
-0.037127
-0.03724
-0.0573983
-0.0775785
-0.0876913
-0.08285
-0.0729856
-0.0831666
-0.0884151
-0.093574
-0.0837321
-0.0889583
-0.104185
-0.0894337
-0.0847058
-0.0900679
-0.100566
-0.106087
-0.0916076
-0.102263
-0.0979424
-0.0985303
-0.0892773
-0.0900912
-0.0959735
-0.106879
-0.0828519
-0.0938249
-0.0998201
-0.100793
-0.0867434
-0.0777159
-0.0886893
-0.0996614
-0.0904527
-0.0811987
-0.0918999
-0.112465
-0.0880079
-0.0734835
-0.0837779
-0.0940504
-0.0742993
-0.069458
-0.0595493
-0.0595717
-0.0445495
-0.0345049
0.0206304
0.0908117
0.34597
0.851129
1.07136
0.706582
0.381785
0.362034
0.402306
0.39751
0.40269
0.437894
0.458144
0.458235
0.438303
0.42837
0.44837
0.458257
0.443076
0.44794
0.447804
0.3976
0.302396
0.23217
0.212034
0.0567856
-0.0734859
-0.103758
-0.0440292
-0.0193005
-0.0195494
-0.0497303
-0.0698433
-0.110047
-0.15025
-0.155545
-0.150748
-0.155997
-0.181201
-0.191336
-0.176562
-0.156811
-0.172083
-0.192309
-0.207513
-0.217716
-0.20292
-0.203169
-0.213305
-0.20344
-0.183643
-0.198915
-0.194073
-0.169164
-0.174253
-0.189344
-0.189412
-0.16448
-0.15957
-0.164729
-0.174819
-0.169864
-0.169977
-0.175135
-0.170339
-0.160678
-0.15604
-0.14647
-0.157058
-0.147601
-0.128258
-0.133891
-0.149592
-0.135249
-0.120882
-0.106585
-0.107241
-0.0978737
-0.0685301
-0.0541868
-0.0648651
-0.0404758
-0.0260644
-0.0364943
-0.0269461
-0.0124211
0.0171494
0.0316744
0.0311537
0.0407243
0.0603399
0.0699325
0.0695028
0.0690498
0.0786657
0.0882354
0.0727377
0.0621943
0.0615382
0.0605431
0.0588913
0.0406113
0.0203176
0.0253391
0.0222621
0.0151587
-0.00208139
0.00565577
0.00828075
0.000769615
-0.0119462
-0.00957012
0.00312185
-0.00307608
-0.0219908
-0.0199771
-0.0148873
-0.0314021
-0.0330992
-0.0345469
-0.0257006
-0.0463572
-0.0666056
-0.0514927
-0.0408373
-0.0445256
-0.0478969
-0.0362
-0.00950336
-0.0127163
-0.015748
-0.0136209
-0.011404
-0.00941277
-0.0276484
-0.016109
-0.00527096
4.57764e-05
0.000317574
-0.00911665
-0.00861835
-0.0181208
-0.0277133
-0.0274415
-0.0322599
-0.00721502
-0.0221925
-0.0272827
-0.0374413
-0.0327582
-0.0131879
-0.0285954
-0.0339127
-0.0393195
-0.04984
-0.0604286
-0.0560627
-0.0415831
-0.052104
-0.0577607
-0.0484171
-0.0339828
-0.0395713
-0.050137
-0.0605669
-0.0610647
-0.0565176
-0.0570154
-0.0674911
-0.0579891
-0.0635319
-0.0790753
-0.0847311
-0.080409
-0.0711327
-0.0618563
-0.0776706
-0.0735073
-0.0342312
-0.0350456
-0.0209956
-0.0320363
-0.0230989
-0.0242529
-0.0354066
-0.0365381
-0.0326471
-0.0337553
-0.0348191
-0.0457687
-0.0467191
-0.0476923
-0.063529
-0.0944118
-0.0902944
-0.076087
-0.08672
-0.0822854
-0.0828066
-0.0782814
-0.0986657
-0.0989146
-0.0940957
-0.0742545
-0.0793219
-0.0793447
-0.0743446
-0.0543442
-0.0193658
0.0456786
0.170723
0.555724
1.01579
0.935791
0.505814
0.310723
0.345677
0.360587
0.385496
0.43045
0.485404
0.520359
0.520291
0.530268
0.530222
0.545132
0.604996
0.634883
0.654769
0.639657
0.569521
0.464431
0.409204
0.348934
0.228775
0.0636387
-0.0165191
-0.0116997
-0.00174475
-0.0366998
-0.0717444
-0.106744
-0.176676
-0.221631
-0.241631
-0.211653
-0.211563
-0.226517
-0.246449
-0.25129
-0.211154
-0.21104
-0.220973
-0.210905
-0.230836
-0.240814
-0.240723
-0.210655
-0.200542
-0.190475
-0.175429
-0.165293
-0.165203
-0.160112
-0.155066
-0.155044
-0.155044
-0.165021
-0.164998
-0.14493
-0.134885
-0.134749
-0.144589
-0.144476
-0.149363
-0.139295
-0.164248
-0.154158
-0.134
-0.123886
-0.118773
-0.128728
-0.0987062
-0.0936384
-0.0885706
-0.0835252
-0.0533667
-0.0432315
-0.0580964
-0.0478249
-0.0075531
0.0328531
0.0331922
0.0385318
0.0538936
0.0641646
0.0745039
0.0748653
0.0752053
0.0805664
0.0959058
0.0912452
0.0865617
0.111833
0.101991
0.0921049
0.0722857
0.0874443
0.0926471
0.0827599
0.0727148
0.0625567
0.0573535
0.0520368
0.0317197
0.0306797
0.0333724
0.0138936
0.00377989
-0.0145235
-0.0161753
-0.00696707
-0.0361748
-0.0333014
-0.025857
-0.000381947
-0.0158339
-0.0211959
-0.0113769
-0.016377
-0.0212188
-0.0309014
-0.0204039
-0.0148602
-0.0142727
-0.0235934
-0.0125985
-0.0109024
-0.0238891
-0.0217171
-0.0139337
-0.0109253
0.0018115
-0.00590324
-0.0140715
-0.00780392
-0.00712585
-0.00667334
-0.02595
-0.0199537
-0.00398111
-0.0182343
-0.0326915
-0.0274429
-0.0173073
-0.0322399
-0.0470591
-0.0268559
-0.0266519
-0.046494
-0.0513134
-0.0459285
-0.0454993
-0.0551596
-0.0547981
-0.0495491
-0.0393233
-0.0490746
-0.0638256
-0.0635319
-0.0531921
-0.0527625
-0.0573325
-0.0618577
-0.0563369
-0.0608172
-0.06532
-0.0648909
-0.0494609
-0.0690317
-0.0685792
-0.0781031
-0.0675607
-0.0620399
-0.0715861
-0.0712247
-0.0658169
-0.0704985
-0.085114
-0.084661
-0.0742307
-0.0637546
-0.0732789
-0.0878263
-0.0823517
-0.0668983
-0.0815144
-0.0911074
-0.0857005
-0.0753622
-0.0749774
-0.0895252
-0.0839367
-0.0733938
-0.0778289
-0.0673313
-0.0818558
-0.0813351
-0.0757699
-0.0802946
-0.084887
-0.0843668
-0.0788689
-0.0833716
-0.0878067
-0.0723548
-0.0718799
-0.0764947
-0.0811105
-0.0607033
-0.0202737
-0.0148439
-0.00450516
0.025835
0.0462427
0.201649
0.481989
0.967396
1.12783
0.763257
0.463574
0.398823
0.434163
0.434457
0.449729
0.45491
0.465295
0.480657
0.455997
0.441359
0.451675
0.471992
0.467309
0.457581
0.457875
0.438146
0.383464
0.288758
0.24903
0.234233
0.0844817
-0.0352693
-0.0800653
-0.0347486
0.00552225
0.010726
-0.0240703
-0.0538211
-0.108595
-0.158414
-0.1883
-0.173028
-0.16278
-0.167599
-0.18744
-0.192259
-0.187078
-0.191942
-0.206761
-0.21658
-0.226443
-0.231308
-0.241149
-0.231036
-0.2259
-0.220742
-0.225606
-0.230425
-0.200266
-0.200153
-0.200017
-0.204858
-0.194677
-0.204429
-0.209248
-0.204135
-0.199023
-0.183819
-0.193662
-0.193459
-0.178347
-0.173212
-0.188121
-0.193031
-0.177963
-0.162849
-0.162714
-0.167624
-0.172601
-0.167555
-0.152465
-0.157397
-0.167305
-0.132193
-0.132103
-0.122012
-0.101966
-0.0769444
-0.0669217
-0.0668769
-0.0668764
-0.0418534
-0.0318084
-0.0217633
-0.0216951
0.0083499
0.0234399
0.0234852
0.0135078
0.0335302
0.0535526
0.0435529
0.0434847
0.0383945
0.0482821
0.0632148
0.048193
0.0481029
0.063035
0.0629225
0.0477872
0.0377417
0.0475612
0.0420632
0.0206599
-0.0028019
0.00873613
-0.00180674
-0.0190921
-0.0205402
-0.0088892
0.00638247
-0.00364017
-0.0236621
-0.0187526
0.00631475
-0.0134139
-0.0232105
-0.0229845
-0.0178485
-0.0126228
-0.0172834
-0.0266953
-0.00572348
-0.00441122
0.00214958
-0.0160184
0.00122213
0.00832653
0.0101147
0.00158453
0.0072403
0.0173764
0.00251198
0.0029192
0.00864363
0.0144129
0.00500107
0.0103631
0.000407696
0.0203404
0.000227928
-0.00984049
-0.00983953
0.000249863
0.0053854
-0.00950098
-0.0144339
-0.00443363
-0.00447941
-0.0145478
-0.0196834
-0.0198197
-0.00995636
-0.0250235
-0.0301142
-0.0201368
-0.0200915
-0.0250912
-0.0299778
-0.0348415
-0.0296602
-0.0344791
-0.0543199
-0.0441837
-0.0239801
-0.0287313
-0.0535054
-0.0432558
-0.0380073
-0.0378036
-0.042623
-0.0424652
-0.0323973
-0.0222845
-0.042172
-0.0470815
-0.0320363
-0.0219898
-0.042058
-0.0521708
-0.037261
-0.0323744
-0.0476685
-0.0578713
-0.0531669
-0.0284381
-0.0387545
-0.0490265
-0.0493436
-0.0296607
-0.0350227
-0.0553846
-0.0508146
-0.0462441
-0.0466962
-0.0471258
-0.0525107
-0.0477595
-0.0430984
-0.0484152
-0.048686
-0.0340481
-0.0243425
-0.0246134
-0.0397949
-0.0348401
-0.0199533
-0.0300884
-0.0251331
-0.000224113
0.0197306
0.054708
0.134731
0.364753
0.839662
0.994548
0.629502
0.394344
0.36914
0.423868
0.428574
0.42837
0.463302
0.478189
0.458054
0.418008
0.44285
0.45267
0.447511
0.41233
0.39724
0.362172
0.272037
0.186946
0.131811
0.0517883
-0.0933475
-0.158484
-0.128574
-0.0735512
-0.0435514
-0.048574
-0.0935965
-0.10871
-0.138777
-0.143891
-0.139004
-0.119118
-0.104117
-0.129118
-0.149073
-0.144118
-0.149117
-0.174162
-0.204207
-0.204207
-0.189162
-0.179207
-0.184252
-0.189298
-0.184275
-0.189275
-0.199388
-0.204433
-0.194456
-0.2045
-0.224568
-0.219614
-0.214613
-0.219569
-0.229568
-0.234636
-0.219727
-0.22484
-0.244953
-0.250021
-0.240066
-0.230156
-0.240246
-0.230382
-0.210518
-0.200586
-0.195631
-0.210654
-0.195677
-0.17579
-0.165949
-0.171107
-0.151221
-0.136311
-0.12647
-0.126673
-0.0968537
-0.082058
-0.0622616
-0.0575333
-0.0277371
-0.0130086
0.00676537
0.00649357
0.0162897
0.0411091
0.065928
0.0757694
0.0805435
0.105182
0.109797
0.079299
0.088779
0.102805
0.110996
0.116878
0.0966969
0.0831447
0.0709052
0.0536652
0.0512438
0.0538459
0.0463572
0.0538464
0.026403
0.00916338
0.00717211
0.000497818
0.00477362
-0.00882387
-0.00658417
0.00929785
-0.000407696
0.0102487
0.0266743
0.0238457
-0.0135074
-0.0206118
-0.00780582
-0.000136375
0.00739861
0.00509024
0.00298643
0.015996
0.00377846
-0.00366497
0.00357533
0.0153627
0.0267425
0.00776005
0.0133705
0.0284157
0.0232348
-0.00181055
-0.00681067
0.00325727
0.0133014
0.0180979
0.00782585
0.0223966
0.0269666
0.0164914
-0.00391579
-0.0142775
-0.00466156
-0.0052495
-0.0259962
-0.0169005
-0.00782824
-0.0138464
-0.0399327
-0.0259957
-0.0169692
-0.0178976
-0.0438476
-0.0447984
-0.020772
-0.0267444
-0.0477395
-0.0486441
-0.0344586
-0.0402055
-0.0559754
-0.0718575
-0.0678749
-0.0489159
-0.050025
-0.0660429
-0.0571284
-0.0482826
-0.0594816
-0.075726
-0.0669022
-0.0531917
-0.0545268
-0.0759068
-0.0823317
-0.0787568
-0.0703177
-0.071969
-0.0685759
-0.0551367
-0.056675
-0.083169
-0.0795937
-0.0559745
-0.0573545
-0.0686898
-0.0798898
-0.0609527
-0.0518346
-0.0475583
-0.0682378
-0.0588937
-0.0544591
-0.065002
-0.0854092
-0.0856576
-0.0657706
-0.0357924
-0.0307465
-0.0106778
-0.000655651
0.104435
0.284571
0.79473
1.04496
0.695182
0.405363
0.390453
0.435498
0.445588
0.455679
0.465701
0.475836
0.450881
0.430903
0.440903
0.460857
0.465902
0.435879
0.370857
0.265881
0.160881
0.0459251
-0.113984
-0.218916
-0.238961
-0.204006
-0.194075
-0.204142
-0.214141
-0.249074
-0.279028
-0.264006
-0.229006
-0.193983
-0.183961
-0.178961
-0.15387
-0.143757
-0.163666
-0.17853
-0.178463
-0.133462
-0.118463
-0.118484
-0.108462
-0.108349
-0.103236
-0.108122
-0.0929642
-0.0878057
-0.0827155
-0.102761
-0.0777831
-0.0377154
-0.00776005
-0.02776
-0.037715
-0.0226684
-0.012691
-0.0226908
-0.0376682
-0.0376005
-0.0325551
-0.0325551
-0.0424647
-0.0424414
-0.0524406
-0.0824409
-0.117441
-0.107462
-0.0774627
-0.0525532
-0.0576668
-0.0477114
-0.0527115
-0.0427794
-0.0478697
-0.0429835
-0.023119
-0.0282092
-0.0133452
0.00656414
0.0364962
0.0563383
0.0610886
0.0757041
0.110206
0.119392
0.117378
0.104844
0.110024
0.106812
0.104798
0.102875
0.120793
0.103621
0.0913363
0.0539832
0.0466084
0.0492997
0.0620151
0.0397072
0.0423536
0.0350466
0.0228291
0.000747681
-0.0159035
-0.00694466
-0.00760126
-0.0278277
-0.0324426
-0.0260177
-0.0185738
-0.0189805
-0.028347
-0.0242968
-0.011333
-0.0133471
-0.0202026
-0.0120354
0.00110912
-0.0107913
-0.0127816
-0.019886
-0.0121031
-0.00425243
-0.0162892
-0.0133481
-0.0103846
-0.00269127
-0.00560951
-0.00402594
0.002038
0.00237799
-0.012826
-0.0231876
-0.00839138
-0.00350475
-0.0136852
-0.0338893
-0.0343184
-0.0198393
-0.0302472
-0.0455637
-0.0406995
-0.0256996
-0.035676
-0.0606079
-0.0505176
-0.0454955
-0.0355401
-0.045608
-0.0505176
-0.0352683
-0.0350652
-0.049839
-0.0597034
-0.0445681
-0.0495005
-0.0594773
-0.0645223
-0.0445905
-0.0397258
-0.0597711
-0.0546579
-0.0544772
-0.054409
-0.059432
-0.0695229
-0.0596132
-0.054749
-0.064908
-0.0851121
-0.0753164
-0.070498
-0.0608139
-0.0762215
-0.0767422
-0.0623527
-0.063076
-0.08389
-0.0795684
-0.0700889
-0.0655861
-0.0760379
-0.0765357
-0.0619197
-0.0472589
-0.0525756
-0.0778241
-0.0580287
-0.0530739
-0.0580068
-0.057848
-0.0425086
-0.00716972
0.0283504
0.0989618
0.369595
0.500274
1.00595
0.626676
0.367354
0.373101
0.408916
0.419776
0.435545
0.47127
0.48688
0.4774
0.452966
0.468577
0.484188
0.464821
0.425433
0.395998
0.321496
0.216948
0.137446
0.0628986
-0.0616713
-0.186242
-0.230857
-0.195405
-0.17493
-0.174499
-0.224115
-0.243685
-0.233232
-0.227756
-0.212281
-0.191783
-0.161331
-0.160856
-0.155471
-0.160064
-0.164634
-0.154137
-0.188708
-0.193301
-0.162894
-0.157443
-0.156991
-0.156561
-0.141153
-0.125769
-0.125453
-0.135025
-0.129617
-0.13421
-0.118893
-0.128623
-0.138237
-0.122921
-0.127649
-0.147355
-0.147061
-0.131744
-0.126495
-0.131246
-0.13102
-0.125726
-0.115408
-0.135137
-0.124821
-0.119571
-0.0993447
-0.0941181
-0.0839148
-0.0587335
-0.0385523
-0.0283933
-0.0332117
-0.0280075
-0.0228944
-0.00769043
-0.0025773
0.00755882
0.0376501
0.0476952
0.0476947
0.0377402
0.0477171
0.0525365
0.0471969
0.0665631
0.0851827
0.0968118
0.0818796
0.0668793
0.0946617
0.0928068
0.0808382
0.0688925
0.0669918
0.0700693
0.053123
0.0361996
0.0343895
0.0377154
0.0209055
-0.000859737
-0.00746584
0.00117683
-0.0198636
-0.0154743
-0.0405655
-0.0250444
-0.0186644
-0.0256329
-0.0318089
-0.0258136
-0.0117636
-0.0240946
-0.0364695
-0.0237088
-0.0158134
-0.0128722
-0.0199084
-0.00203562
-0.0043664
0.00312233
-0.0142765
-0.0114484
-0.00871038
-0.00608683
-0.00862074
-0.0115614
-0.0100231
0.0011301
-0.0130553
-0.0178742
-0.00325966
-0.0137343
-0.024096
-0.0294809
-0.0197754
-0.0202732
-0.0309296
-0.046586
-0.0421743
-0.0376267
-0.0429888
-0.0532823
-0.0435314
-0.0437346
-0.043961
-0.0742321
-0.0594821
-0.0549335
-0.0503864
-0.0657487
-0.0661111
-0.0564733
-0.0517898
-0.0620837
-0.0574007
-0.0677171
-0.0580554
-0.0684628
-0.0690055
-0.0594802
-0.0699549
-0.0655203
-0.0710855
-0.0717869
-0.0576019
-0.0734615
-0.0842996
-0.0752273
-0.0661087
-0.0720363
-0.0880089
-0.0840278
-0.0801139
-0.066154
-0.0772395
-0.0883031
-0.0693212
-0.0702257
-0.0810623
-0.0818324
-0.0675116
-0.0681682
-0.0687785
-0.0843439
-0.0647736
-0.0701132
-0.0653615
-0.0654969
-0.0455647
-0.0505648
-0.0455647
-0.03052
0.0145473
0.0846381
0.259841
0.68509
1.03041
1.06075
0.446062
0.346468
0.376876
0.382261
0.377668
0.373075
0.37846
0.388823
0.379139
0.34441
0.349705
0.359909
0.329999
0.270022
0.200089
0.120021
0.0400209
-0.0601149
-0.180205
-0.275319
-0.320364
-0.295477
-0.245636
-0.200727
-0.185727
-0.180703
-0.200635
-0.195545
-0.165318
-0.13007
-0.0947742
-0.0795932
-0.0893669
-0.124163
-0.123959
-0.138754
-0.133484
-0.118212
-0.107986
-0.102783
-0.102489
-0.0871959
-0.0869246
-0.111676
-0.101495
-0.0762691
-0.0960431
-0.100862
-0.0857043
-0.0755229
-0.0853648
-0.100206
-0.100048
-0.0848894
-0.0947762
-0.0996861
-0.0995951
-0.0944815
-0.0893908
-0.0793233
-0.0842562
-0.0741425
-0.0690064
-0.0689158
-0.0788031
-0.0686669
-0.0485311
-0.0483723
-0.05335
-0.0332594
-0.008214
-0.0081687
-0.0180559
-0.00800943
0.00708103
0.0321708
0.0371485
0.0471706
0.0571251
0.082057
0.0670118
0.0769444
0.091877
0.111809
0.106696
0.106493
0.12138
0.136245
0.130951
0.11568
0.124911
0.128282
0.114413
0.0990062
0.089911
0.0825357
0.0654764
0.0483494
0.0361314
0.0389366
0.0317645
0.0146384
0.00244474
0.000339985
-0.00158262
-0.0133028
-0.019774
-0.0104065
-0.009027
-0.021131
-0.0230994
-0.0126243
-0.0123072
-0.0166059
-0.0307918
-0.0292983
-0.0172167
-0.0249767
-0.0279174
-0.0160613
-0.0142059
-0.00719213
-8.86917e-05
0.011992
0.0139832
0.025681
0.0168571
0.0226722
0.0281253
0.038125
0.0126047
0.016767
0.0260439
0.0207047
-0.0144091
-0.034409
-0.0344543
-0.0345902
-0.0647712
-0.0797935
-0.0747032
-0.0544095
-0.0591145
-0.0739346
-0.0740023
-0.0739803
-0.0890026
-0.0940485
-0.089026
-0.0839577
-0.0938225
-0.108732
-0.108574
-0.0884833
-0.0834155
-0.103438
-0.108393
-0.088439
-0.0833936
-0.0983706
-0.108349
-0.103349
-0.0984163
-0.103552
-0.103688
-0.0889368
-0.0891404
-0.094389
-0.119705
-0.100112
-0.0953841
-0.100723
-0.121108
-0.11156
-0.107057
-0.107623
-0.118257
-0.118823
-0.0994568
-0.105112
-0.105745
-0.106357
-0.111922
-0.107465
-0.113008
-0.118551
-0.0939579
-0.0893202
-0.0896144
-0.0948863
-0.0899992
-0.0751352
-0.0802031
-0.0952706
-0.0802484
-0.0551348
-0.0599751
-0.0647717
-0.0395231
-0.0242739
0.0859528
0.266247
0.761586
1.1169
0.827219
0.447468
0.362581
0.397716
0.412851
0.412896
0.407963
0.418076
0.428121
0.41312
0.388075
0.387939
0.402826
0.392668
0.372488
0.382307
0.382171
0.332102
0.267013
0.211945
0.191899
0.0368094
-0.0983267
-0.128439
-0.0785751
-0.043757
-0.0790057
-0.109254
-0.119435
-0.144435
-0.184435
-0.189435
-0.154344
-0.154209
-0.174072
-0.193936
-0.173778
-0.148733
-0.148642
-0.183552
-0.188507
-0.198597
-0.183687
-0.183755
-0.168869
-0.174049
-0.164276
-0.174546
-0.15975
-0.144954
-0.125113
-0.145384
-0.150701
-0.141131
-0.141561
-0.141923
-0.152285
-0.142692
-0.143235
-0.128891
-0.149547
-0.120226
-0.110882
-0.111561
-0.137127
-0.117579
-0.108009
-0.113462
-0.113892
-0.099299
-0.0846386
-0.0699553
-0.0852494
-0.0755444
-0.0558605
-0.0313811
-0.051856
-0.0422397
-0.0225563
-0.00303125
0.00649309
0.0109954
0.0356331
0.0402718
0.0548415
0.0544567
0.0690265
0.0886869
0.0783257
0.06285
0.0723071
0.0867863
0.0812206
0.0755877
0.0697274
0.0734158
0.0605869
0.0455647
0.035542
0.0474873
0.0453377
0.0181875
0.00601673
0.00870895
0.01122
0.00359631
-0.00914192
-0.0164046
-0.0228066
-0.0269918
-0.0345712
-0.0235744
0.000701427
-0.0203385
-0.0362897
-0.0269904
-0.0272622
-0.0421033
-0.0414929
-0.0402493
-0.0283036
-0.00597382
-0.0186205
-0.0112901
0.00597191
0.00823402
-0.0144582
-0.0320373
-0.0146394
-0.0174446
-0.0256343
-0.0290279
-0.0181451
-0.0127826
-0.0176244
-0.0122852
0.013145
0.0135298
0.00382376
-0.0309267
-0.0208368
-0.0209727
-0.0311766
-0.0513353
-0.0465393
-0.0418334
-0.0371723
-0.0375123
-0.0427389
-0.0329642
-0.0282817
-0.0336666
-0.0541201
-0.059504
-0.0498214
-0.0650926
-0.0703869
-0.0556359
-0.0508618
-0.056066
-0.0812235
-0.0562692
-0.0463595
-0.0364947
-0.041676
-0.0518112
-0.0469699
-0.0472188
-0.0324678
-0.007761
0.0120134
0.0216522
-0.0036869
-0.00400352
-0.00936556
-0.0298176
-0.0502701
-0.0557227
-0.0562429
-0.0567179
-0.0772834
-0.0828938
-0.0734143
-0.0740252
-0.074636
-0.0551791
-0.0456767
-0.0612421
-0.0817633
-0.067215
-0.0576224
-0.0479608
-0.0782552
-0.0884361
-0.0736394
-0.0636849
-0.0586619
-0.0785947
-0.0734811
-0.0533004
-0.0331416
-0.0429606
-0.0377569
0.00251436
0.0578308
0.158125
0.48842
0.978668
0.99394
0.554165
0.339459
0.354775
0.385046
0.410273
0.445453
0.500678
0.540927
0.546131
0.536244
0.541312
0.541471
0.566538
0.566651
0.551878
0.567036
0.52715
0.432285
0.332398
0.242488
0.112602
-0.0572853
-0.167194
-0.171968
-0.151764
-0.146584
-0.166357
-0.166109
-0.19095
-0.235859
-0.255746
-0.225543
-0.200385
-0.195249
-0.215113
-0.199932
-0.189751
-0.174524
-0.199231
-0.208937
-0.20862
-0.198439
-0.188257
-0.178054
-0.152874
-0.142737
-0.142601
-0.152488
-0.132285
-0.131945
-0.131719
-0.146492
-0.136198
-0.130881
-0.130677
-0.145519
-0.140292
-0.140088
-0.13993
-0.154727
-0.144522
-0.139273
-0.14416
-0.153934
-0.148707
-0.128323
-0.137939
-0.132646
-0.122351
-0.112035
-0.101628
-0.101152
-0.0906549
-0.0650444
-0.0594792
-0.0489593
-0.0535064
-0.0332127
-0.0230093
-0.0128951
-0.02285
0.0121498
0.0371265
0.0321045
0.0371041
0.0470815
0.0521493
0.0673075
0.0624208
0.0624433
0.0673981
0.0774651
0.0725336
0.0676007
0.0673971
0.0767179
0.0550213
0.0360618
0.035881
0.0422378
0.0151796
0.00350523
0.00678587
0.0149298
-0.00699282
-0.0238256
-0.0255446
-0.0217886
-0.0215168
-0.0341864
-0.0268569
-0.0266752
-0.0325122
-0.0483494
-0.0490284
-0.0344124
-0.0392542
-0.0486445
-0.0475125
-0.030838
-0.0235534
-0.0459509
-0.0332365
-0.0305214
-0.0276937
-0.0299568
-0.0321054
-0.0240741
-0.0161552
-0.0235977
-0.026494
-0.025023
-0.00927639
-0.0190039
-0.0288
-0.0184603
-0.0129857
-0.0175328
-0.022058
-0.0266733
-0.01647
-0.0413795
-0.0412669
-0.0410185
-0.0307245
-0.0355444
-0.0403404
-0.0451822
-0.034956
-0.0348425
-0.0497746
-0.054729
-0.0446606
-0.0495019
-0.0542974
-0.0640483
-0.0588441
-0.0485725
-0.0633235
-0.0930524
-0.0727587
-0.06251
-0.0723066
-0.0821939
-0.077013
-0.0718784
-0.0767879
-0.0867429
-0.0817657
-0.0767655
-0.0718341
-0.0869918
-0.0821495
-0.0823531
-0.0726242
-0.0979629
-0.103257
-0.0936646
-0.0890713
-0.0944786
-0.0999084
-0.0903387
-0.0757456
-0.0911527
-0.10656
-0.0969901
-0.087307
-0.0726237
-0.0729179
-0.058166
-0.0433464
-0.0335498
-0.048595
-0.0535722
-0.0485034
-0.0433221
-0.0631189
-0.0628929
-0.042532
-0.0371251
-0.0416956
-0.0512662
-0.0407915
-0.0302267
0.000294209
0.0957909
0.336311
0.846809
1.12228
0.762737
0.418258
0.35371
0.384141
0.404571
0.425001
0.445363
0.475679
0.470974
0.466268
0.501562
0.51681
0.552127
0.562376
0.57758
0.572738
0.532896
0.448145
0.403327
0.328507
0.213711
0.068892
0.00409555
-0.0207911
0.00438976
-0.020452
-0.0152941
-0.0250678
-0.104887
-0.17466
-0.194479
-0.184321
-0.174139
-0.184003
-0.188799
-0.178664
-0.18846
-0.213257
-0.228031
-0.232804
-0.237509
-0.242306
-0.237102
-0.212011
-0.21683
-0.221672
-0.21649
-0.206355
-0.186197
-0.186038
-0.18588
-0.185721
-0.180562
-0.175405
-0.1852
-0.185019
-0.169816
-0.149658
-0.164499
-0.169318
-0.154205
-0.159183
-0.149047
-0.153957
-0.123866
-0.133731
-0.123641
-0.128551
-0.113505
-0.0984602
-0.103369
-0.103347
-0.0732565
-0.068233
-0.0631652
-0.0581427
-0.038075
-0.0280967
-0.0131202
-0.00814247
0.00183535
0.0168352
0.026835
0.0218129
0.031858
0.0569253
0.0668802
0.0518579
0.0468802
0.0619488
0.0620842
0.0571971
0.0523548
0.052536
0.0626955
0.0478077
0.0278759
0.032989
0.0329437
0.0178308
0.0026269
-0.00282526
0.000907421
-0.00241852
-0.0322604
-0.0308814
-0.027669
-0.023665
-0.0387549
-0.0466285
-0.0332117
-0.0364246
-0.0463567
-0.0516963
-0.0469003
-0.0369
-0.0419002
-0.0468321
-0.0416732
-0.0365372
-0.0363111
-0.0409484
-0.0501113
-0.0335732
-0.0267406
-0.0295014
-0.0267634
-0.028687
-0.0158591
-0.0233932
-0.0264254
-0.0049777
-0.00411797
-0.00850725
-0.0129189
-0.00712633
-0.0063796
-0.0256786
-0.0200448
-0.024796
-0.00984097
-0.014977
-0.0250893
-0.0150218
-0.0148635
-0.00966024
-0.0343666
-0.0241404
-0.0240731
-0.0290504
-0.0490279
-0.0340052
-0.023983
-0.0239601
-0.0438929
-0.038826
-0.0337124
-0.028554
-0.0384183
-0.0432367
-0.0330558
-0.0328522
-0.0476937
-0.0525579
-0.0523548
-0.0521512
-0.0619698
-0.0617657
-0.0565624
-0.0514035
-0.0513124
-0.0611763
-0.0660853
-0.045927
-0.0558357
-0.075655
-0.0605412
-0.0554276
-0.0503597
-0.0603142
-0.0652695
-0.045157
-0.0550671
-0.0549097
-0.0598421
-0.0497522
-0.0496387
-0.0545712
-0.0594573
-0.0493898
-0.0443444
-0.0543666
-0.0593667
-0.0443678
-0.044435
-0.0644803
-0.0544572
-0.0493894
-0.0493894
-0.0444345
-0.0594568
-0.0395017
-0.0345469
-0.0296144
-0.0397496
-0.0347948
-0.0198617
-0.0249524
-0.0100203
0.00493383
0.044889
0.104821
0.279729
0.724616
1.06959
0.809525
0.434411
0.354343
0.394365
0.414365
0.404297
0.404207
0.439094
0.464003
0.463845
0.438733
0.458642
0.463597
0.473529
0.473416
0.448348
0.453349
0.363326
0.24319
0.1881
0.113077
-0.00192261
-0.116969
-0.147104
-0.112059
-0.0769005
-0.0768552
-0.0917649
-0.101787
-0.121832
-0.141878
-0.156855
-0.14181
-0.136878
-0.1319
-0.136946
-0.1369
-0.13181
-0.161719
-0.191605
-0.206469
-0.216311
-0.211333
-0.201402
-0.206469
-0.211401
-0.216311
-0.221243
-0.216266
-0.201243
-0.206221
-0.221176
-0.22613
-0.211107
-0.201062
-0.201062
-0.206016
-0.195971
-0.185948
-0.195948
-0.20597
-0.200926
-0.190994
-0.171107
-0.176289
-0.166402
-0.161448
-0.15647
-0.161515
-0.151448
-0.14147
-0.136539
-0.126561
-0.121561
-0.101561
-0.0866055
-0.106719
-0.101719
-0.0867643
-0.0617194
-0.0616741
-0.0616069
-0.0315619
-0.0315843
-0.00672007
0.00323391
0.028234
0.0382342
0.0480762
0.0579858
0.0628958
0.0727825
0.0726247
0.0724893
0.0774441
0.0874887
0.0923982
0.0871944
0.0867867
0.101153
0.0898862
0.0766287
0.0576916
0.0536199
0.0463347
0.0295467
0.0178046
0.0162878
0.0256548
0.00705767
-0.00518179
0.0113115
0.00619841
-0.00914145
-0.0193224
-0.0145035
0.000338554
0.000361443
-0.0142312
-0.00314474
-0.00653839
0.000407219
-0.0120583
-0.00900459
0.00936651
0.00778341
-0.004004
-0.000859261
0.0169687
0.0244579
0.0168099
0.00862026
0.0195932
0.0348654
0.00488806
-0.0300217
-0.00984144
0.000272274
0.0253849
0.0254984
0.0204077
0.0101357
0.00472832
0.00934362
0.00411701
0.00398111
-0.00113249
-0.0162673
-0.0264711
-0.0218339
-0.0273309
-0.0280099
-0.0137558
0.00561047
0.00511312
-0.030407
-0.0559502
-0.0364251
-0.00683308
-0.0171719
-0.0374656
-0.0376916
-0.0329628
-0.0232577
-0.038619
-0.0339808
-0.0343652
-0.0347958
-0.0453386
-0.0458817
-0.0415154
-0.0571032
-0.042624
-0.0331221
-0.013598
-0.0242081
-0.0398188
-0.0553842
-0.0560179
-0.0617638
-0.0526237
-0.0636415
-0.0596595
-0.0606089
-0.0566039
-0.0576673
-0.048708
-0.0548625
-0.0561066
-0.0774417
-0.0836859
-0.0798173
-0.0759034
-0.066854
-0.0478048
-0.0585971
-0.0642757
-0.074842
-0.0454073
-0.0458598
-0.0461988
-0.0614476
-0.0416741
-0.0418549
-0.0619907
-0.0770812
-0.0621257
-0.0171261
0.0329194
0.0879874
0.218124
0.663215
0.828305
0.85335
0.47335
0.378327
0.408282
0.418237
0.398191
0.393214
0.438122
0.457964
0.437895
0.407827
0.412714
0.43251
0.417306
0.377148
0.32699
0.201786
0.0866499
-0.0135303
-0.123666
-0.233779
-0.29396
-0.304073
-0.284232
-0.264367
-0.284548
-0.329729
-0.354819
-0.309888
-0.239955
-0.200068
-0.175113
-0.155226
-0.140429
-0.125587
-0.140701
-0.150655
-0.125565
-0.105496
-0.0904961
-0.0805192
-0.110428
-0.125383
-0.13536
-0.130338
-0.110337
-0.105405
-0.105495
-0.0806088
-0.0756311
-0.0956311
-0.115586
-0.115496
-0.115518
-0.135653
-0.155722
-0.165699
-0.160654
-0.180653
-0.18572
-0.185811
-0.155811
-0.145789
-0.140766
-0.135765
-0.100743
-0.0907197
-0.0807428
-0.100743
-0.110765
-0.105697
-0.0906525
-0.0655389
-0.0554714
-0.0604486
-0.040472
-0.0205173
0.0144148
0.0594149
0.0643249
0.0592117
0.0740986
0.109008
0.118849
0.123578
0.147966
0.181677
0.183305
0.153327
0.138282
0.136178
0.13439
0.122421
0.105294
0.103077
0.110702
0.0933943
0.0761313
0.0589142
0.0616751
0.0495257
0.0374222
0.0304313
0.0286441
0.0223093
0.00660801
0.001472
0.00208378
0.0039382
-0.00196695
-0.00221586
0.0125122
0.0155663
0.00825882
0.00110865
0.00411749
0.00205851
0.00981855
0.0126696
0.0105877
0.008461
0.00610828
0.0187783
0.0266285
0.0344787
0.0371933
0.0346146
0.031425
0.0377369
0.0335741
0.0138683
0.028574
0.0280986
0.0325785
0.0121031
0.0216951
0.0361981
0.0205193
0.00463724
-0.00608683
0.0135055
0.0133243
-0.00174379
-0.0167437
-0.00672102
-0.0066309
-0.0165634
-0.0265856
-0.0265179
-0.0213151
-0.0210433
-0.0407486
-0.0355453
-0.0303421
-0.0351377
-0.0449114
-0.0395951
-0.0292783
-0.0289612
-0.0485539
-0.0382371
-0.0279436
-0.0377617
-0.0476265
-0.0475593
-0.0426497
-0.0328307
-0.048171
-0.0585551
-0.0441213
-0.0347772
-0.0454779
-0.0661116
-0.0617452
-0.0573783
-0.0630116
-0.0735774
-0.0640979
-0.0645275
-0.0750484
-0.0807047
-0.0662932
-0.0617232
-0.0619721
-0.0672207
-0.072515
-0.0675831
-0.0675378
-0.072288
-0.0618801
-0.0514503
-0.0509295
-0.0503631
-0.0347071
0.00103998
0.0718994
0.222828
0.663936
1.01505
1.03611
0.392172
0.333213
0.394232
0.420272
0.436222
0.462173
0.478101
0.46905
0.459955
0.450702
0.451471
0.44224
0.397986
0.338709
0.254389
0.160089
0.0857677
-0.0235767
-0.167921
-0.217287
-0.196654
-0.166021
-0.17541
-0.189776
-0.194143
-0.218555
-0.223012
-0.187492
-0.161881
-0.156224
-0.165658
-0.145071
-0.144482
-0.163757
-0.178101
-0.187445
-0.171766
-0.161064
-0.165408
-0.159729
-0.14905
-0.128462
-0.147806
-0.147172
-0.136517
-0.130883
-0.130295
-0.134616
-0.113983
-0.103394
-0.102851
-0.11224
-0.111653
-0.106064
-0.0955215
-0.0949788
-0.104435
-0.0938926
-0.0883951
-0.0979643
-0.0974894
-0.0920601
-0.101653
-0.116291
-0.125929
-0.125545
-0.125183
-0.119821
-0.119482
-0.114165
-0.0888481
-0.103509
-0.0981688
-0.087853
-0.0725813
-0.0572872
-0.0570388
-0.0317903
-0.0166097
0.00350332
0.018549
0.0285492
0.0433006
0.0522599
0.0542965
0.0545449
0.0708117
0.0687761
0.0571027
0.0553603
0.0734825
0.0616498
0.0397949
0.0228491
0.0309262
0.0341387
0.00232935
-0.00452614
-0.0162911
-0.00794315
-0.00934601
-0.0354543
-0.0312014
-0.0164728
-0.0263367
-0.0456357
-0.034029
-0.0363369
-0.0266991
-0.0357938
-0.0400248
-0.032197
-0.0245724
-0.0367441
-0.0288262
-0.0259085
-0.00796604
-0.0251832
-0.0276499
-0.00507021
-0.00240088
-0.00970888
-0.0120158
-0.00950432
0.00275803
-0.00540924
-0.0141196
-0.0131917
-0.0127625
-0.00794268
-0.0184641
-0.0238709
-0.00911999
-0.014369
-0.024754
-0.0251608
-0.0156593
-0.0160894
-0.0314054
-0.0416317
-0.026835
-0.0370617
-0.0422425
-0.0624466
-0.0427184
-0.038012
-0.0434422
-0.0538712
-0.0492563
-0.0495954
-0.0549121
-0.0552735
-0.0555234
-0.0508623
-0.0512242
-0.0666323
-0.04704
-0.0525141
-0.058125
-0.0637589
-0.0643916
-0.0600476
-0.0557489
-0.0715861
-0.0774913
-0.0684409
-0.0693002
-0.0802956
-0.0812907
-0.0673084
-0.073349
-0.0644121
-0.0804758
-0.0665159
-0.0625572
-0.0735979
-0.0796843
-0.0757928
-0.0617876
-0.0577154
-0.0787106
-0.0745478
-0.0653629
-0.0710874
-0.0717888
-0.0773997
-0.0628524
-0.0531921
-0.0535088
-0.0487347
-0.0187798
0.00124311
0.046289
0.201379
0.631561
1.03181
0.802035
0.417353
0.347669
0.363008
0.383326
0.368733
0.389118
0.414435
0.409729
0.374978
0.375295
0.390544
0.370815
0.341042
0.296312
0.241606
0.161808
0.0569887
-0.0177622
-0.107559
-0.237424
-0.327243
-0.317085
-0.246903
-0.196722
-0.191564
-0.206428
-0.191247
-0.18602
-0.170862
-0.150771
-0.100635
-0.0555897
-0.0755219
-0.105409
-0.110206
-0.120002
-0.124797
-0.129617
-0.119413
-0.0941181
-0.0888247
-0.088666
-0.0985298
-0.0733485
-0.0781226
-0.0829644
-0.0928283
-0.077693
-0.0776253
-0.082603
-0.102558
-0.0924439
-0.0873771
-0.0873318
-0.0922861
-0.0822191
-0.0771508
-0.0821509
-0.0921736
-0.072196
-0.0571957
-0.0571957
-0.0722189
-0.0722642
-0.0524001
-0.0575814
-0.0577626
-0.0529656
-0.0330334
-0.0281467
-0.0131469
0.0117855
0.0366492
0.046536
0.0514231
0.0512648
0.0811963
0.101038
0.120812
0.100563
0.120224
0.129817
0.13941
0.134049
0.138619
0.143145
0.127286
0.110906
0.0977836
0.102806
0.103529
0.0809727
0.0638685
0.0819006
0.0697975
0.0475798
0.030407
0.0331898
0.0260172
0.0037322
-0.0234399
-0.00554419
-0.0125122
-0.0342994
-0.0358829
-0.0320826
-0.0276704
-0.0370369
-0.0440955
-0.0288467
-0.0240278
-0.0205665
-0.032445
-0.0244808
-0.0216303
-0.0238252
-0.0259967
-0.0330782
-0.0102048
-0.0175347
-0.0300465
-0.0377154
-0.0357246
-0.0339599
-0.0373311
-0.0408607
-0.0296617
-0.028892
-0.028439
-0.0333939
-0.03405
-0.0351815
-0.0362673
-0.0521264
-0.0578508
-0.0486426
-0.0544572
-0.0802259
-0.0609722
-0.046741
-0.0424428
-0.0429177
-0.0531888
-0.0434146
-0.0637546
-0.0741611
-0.0796595
-0.0752478
-0.070859
-0.101492
-0.11199
-0.082397
-0.0777812
-0.0832114
-0.103641
-0.0940709
-0.0745239
-0.0800886
-0.0757451
-0.0664921
-0.0622158
-0.0780087
-0.0838003
-0.0896378
-0.0754976
-0.0914021
-0.0973296
-0.10328
-0.0793428
-0.0754733
-0.0865822
-0.0976682
-0.0886865
-0.0847487
-0.0709257
-0.0620346
-0.0631437
-0.0542521
-0.085474
-0.0916505
-0.0977364
-0.0887775
-0.0797501
-0.0906096
-0.0913563
-0.0769901
-0.0926237
-0.0882125
-0.0786653
-0.0638466
-0.0440049
-0.0390725
-0.0391178
-0.0341177
-0.0239587
-0.00377703
0.0664268
0.196653
0.586856
0.987015
0.827219
0.452467
0.367648
0.342716
0.352738
0.382761
0.382692
0.387512
0.377354
0.397173
0.386947
0.381495
0.350997
0.315499
0.30007
0.234685
0.144323
0.029006
-0.0514464
-0.162057
-0.297691
-0.383166
-0.378506
-0.3288
-0.283935
-0.289071
-0.274252
-0.269547
-0.264863
-0.255044
-0.215203
-0.165339
-0.110497
-0.090723
-0.105858
-0.126016
-0.146107
-0.156242
-0.161468
-0.161785
-0.137102
-0.122305
-0.122509
-0.102712
-0.0829387
-0.0630527
-0.0730529
-0.0680985
-0.0683475
-0.0486422
-0.0439811
-0.0442071
-0.0443201
-0.0744557
-0.0796142
-0.0698853
-0.0601563
-0.0454278
-0.0456991
-0.0310388
-0.0364685
-0.0519662
-0.0573053
-0.0575538
-0.0327358
-0.038075
-0.0384827
-0.0238214
0.0108848
0.0306582
0.0204091
0.01507
0.0246167
0.0392103
0.04387
0.0485764
0.0632372
0.0729427
0.0926938
0.0974674
0.112241
0.121925
0.106608
0.101268
0.125951
0.130725
0.125499
0.125205
0.154934
0.164616
0.149277
0.153893
0.163508
0.163169
0.147784
0.127173
0.126313
0.144707
0.131178
0.0857701
0.0562906
0.0536208
0.0565391
0.05439
0.012218
0.0101147
0.00798798
-0.0138216
-0.025156
-0.0246134
-0.0221243
-0.0252471
-0.0300441
-0.0202241
0.00959444
-0.000495911
-0.000338078
0.00988817
0.0108376
0.0121274
0.00375652
0.0307927
0.0634165
0.0613585
0.0291872
0.0216985
0.0237803
0.0204768
0.0417433
0.0677166
0.0833049
0.0482821
0.0177622
-0.00791645
-0.0384364
-0.0387092
-0.0340037
-0.0143204
-0.0197501
-0.0300889
-0.0452929
-0.0652704
-0.0700221
-0.054502
-0.0739369
-0.0734844
-0.0932355
-0.0730543
-0.052918
-0.0329399
-0.0379395
-0.0628042
-0.0625777
-0.0623507
-0.0720568
-0.101694
-0.116241
-0.110789
-0.0903358
-0.0598607
-0.0343184
-0.0536618
-0.0780506
-0.0824623
-0.0669875
-0.0615125
-0.0710597
-0.0755849
-0.0700192
-0.049408
-0.0587749
-0.0532546
-0.0578475
-0.0724173
-0.0920553
-0.0766711
-0.0512872
-0.045948
-0.0605645
-0.070179
-0.0547261
-0.0293646
-0.0190935
-0.0338669
-0.0535731
-0.0482783
-0.0530295
-0.0678487
-0.0826674
-0.0623736
-0.0570803
-0.0468087
-0.0565152
-0.0412431
-0.0409713
-0.0456543
-0.0353146
-0.0199294
-0.0145226
-0.033957
-0.0333686
-0.0278487
-0.0172153
-0.0165367
-0.0158134
0.0348649
0.105543
0.256222
0.68699
1.11271
0.923326
0.543868
0.419344
0.434819
0.445408
0.440884
0.466223
0.466517
0.491834
0.467128
0.437377
0.412581
0.407807
0.408033
0.383282
0.373644
0.349007
0.334436
0.179911
0.095273
0.0407028
-0.0589352
-0.19346
-0.292894
-0.302329
-0.246899
-0.216491
-0.221129
-0.240767
-0.255315
-0.279749
-0.279206
-0.253845
-0.213618
-0.19846
-0.208505
-0.208482
-0.188346
-0.158051
-0.172848
-0.192689
-0.202553
-0.202462
-0.207372
-0.197214
-0.187055
-0.161829
-0.166671
-0.166513
-0.136265
-0.140835
-0.14536
-0.150066
-0.149841
-0.144501
-0.139185
-0.139026
-0.148981
-0.143891
-0.148619
-0.143234
-0.16285
-0.152421
-0.147081
-0.151809
-0.156492
-0.141108
-0.135723
-0.140406
-0.150089
-0.139659
-0.119275
-0.108868
-0.118528
-0.103257
-0.0830307
-0.0877137
-0.0773749
-0.0719676
-0.0366516
-0.0313115
-0.0209947
-0.00554228
0.0149555
0.0154533
0.0207925
0.036109
0.0664258
0.0767426
0.0719457
0.0771942
0.0974894
0.102829
0.0930986
0.088438
0.103733
0.104004
0.0892301
0.0843663
0.0793886
0.0840263
0.0826011
0.0589585
0.054615
0.0419002
0.0353389
0.0140042
0.0128956
0.0123982
0.0138464
0.00208235
-0.00563288
0.00997829
0.0151358
-0.00954723
-0.0242538
0.00604057
0.0165153
-0.00798655
-0.0123982
-0.00174189
0.00916338
0.000384808
-0.00318956
0.00364256
0.0109735
0.00371027
-0.00871086
-0.00638056
0.0201354
0.0063343
0.0123076
0.0128508
0.0230317
0.0178504
0.012557
0.00744295
0.0175104
0.0126014
0.0126004
0.0124421
0.0321469
0.0368748
0.0367842
0.0268526
0.0420103
0.0271463
0.00719118
-0.00774097
0.00748539
0.00766611
-0.0022893
-0.0123796
-0.0175152
-0.0176063
-0.0375834
-0.0526061
-0.0575609
-0.0374703
-0.0373569
-0.0571537
-0.0719948
-0.0567913
-0.0416336
-0.0665193
-0.071383
-0.0662465
-0.056066
-0.0609312
-0.0808396
-0.0757713
-0.0506577
-0.0807028
-0.0858154
-0.0759292
-0.0710425
-0.0812235
-0.091404
-0.0816083
-0.0767894
-0.0820837
-0.0824232
-0.0827184
-0.0730119
-0.0733504
-0.0837359
-0.0891423
-0.0695496
-0.079957
-0.0754547
-0.0907946
-0.0711331
-0.0764279
-0.0766997
-0.0919261
-0.0771751
-0.0673566
-0.0724692
-0.0875149
-0.0774927
-0.0674253
-0.0723343
-0.0721755
-0.0669498
-0.0667233
-0.0564742
-0.05618
-0.0358853
-0.000613213
0.0297265
0.0950208
0.330292
0.825633
0.990926
0.631176
0.376357
0.37656
0.396741
0.411899
0.41199
0.442149
0.462285
0.45233
0.42733
0.407443
0.422443
0.417398
0.402443
0.397534
0.402602
0.36267
0.277693
0.182738
0.132829
0.0428963
-0.0920124
-0.191967
-0.181922
-0.141899
-0.116899
-0.131831
-0.136808
-0.141717
-0.19665
-0.216559
-0.201491
-0.186333
-0.196197
-0.206084
-0.205925
-0.185745
-0.180542
-0.185293
-0.199999
-0.19466
-0.199321
-0.204027
-0.183801
-0.168687
-0.173529
-0.178326
-0.16819
-0.148031
-0.137896
-0.15285
-0.167783
-0.147761
-0.137739
-0.152784
-0.157784
-0.147784
-0.142875
-0.158033
-0.153169
-0.143237
-0.143395
-0.138485
-0.148599
-0.148712
-0.133757
-0.13387
-0.139029
-0.124119
-0.0993676
-0.0946164
-0.0997977
-0.0900226
-0.0753164
-0.065701
-0.0761075
-0.0614696
-0.0418768
-0.0322604
-0.0226903
-0.0231199
0.00147295
0.0260434
0.0206132
0.0302286
0.0548892
0.0546851
0.0594811
0.0593448
0.0691862
0.079051
0.083847
0.0736213
0.0734181
0.0881696
0.0827851
0.0671515
0.0660658
0.0684643
0.053668
0.0390077
0.0262928
0.0294375
0.0274692
0.015523
-0.006423
-0.00339127
0.00488901
-0.0109472
-0.0197711
-0.00784874
-0.00253153
-0.0135498
-0.0297489
-0.0259027
-0.0119886
-0.028029
-0.0387535
-0.0293188
-0.00436401
-0.0240927
-0.0234365
-0.0271249
-0.0155869
-0.0140939
-0.0326462
-0.0361304
-0.0146828
-0.00828075
-0.0270357
-0.0258818
-0.0250006
-0.00963831
-0.0197058
-0.029705
-0.0243883
-0.0139132
-0.0185962
-0.0283923
-0.0232344
-0.0183024
-0.0183702
-0.0434155
-0.043438
-0.02846
-0.0435057
-0.0485959
-0.0537086
-0.0438676
-0.0490704
-0.0593638
-0.0697031
-0.0450649
-0.0454268
-0.0407205
-0.0661058
-0.0614901
-0.0468068
-0.0620551
-0.0671916
-0.0522366
-0.0573273
-0.0676446
-0.0829387
-0.0733008
-0.0636635
-0.064003
-0.0643196
-0.0646367
-0.0550213
-0.0553613
-0.0607462
-0.0811768
-0.0716519
-0.0622621
-0.0830088
-0.0887103
-0.0744114
-0.0650673
-0.0606556
-0.0662441
-0.0718775
-0.0576468
-0.0534158
-0.0441399
-0.029706
-0.0352716
-0.0308599
-0.0365844
-0.0272856
-0.0178514
-0.0234165
-0.0288682
-0.0342526
-0.0245924
-0.0448642
-0.0700669
-0.0852485
-0.0802717
-0.0801816
-0.0850687
-0.0849557
-0.0647979
-0.0595264
-0.0542779
-0.0390296
0.0261517
0.136333
0.466582
0.951877
0.927148
0.49733
0.317442
0.342465
0.357465
0.39251
0.427533
0.437578
0.477623
0.527601
0.527578
0.522601
0.562624
0.602624
0.612624
0.612624
0.602602
0.562533
0.547466
0.422489
0.327602
0.222693
0.0927382
0.0376477
0.0325346
0.0374212
0.027308
0.00226307
-0.0727596
-0.132805
-0.162941
-0.193009
-0.213032
-0.217964
-0.222896
-0.252828
-0.26276
-0.242737
-0.22276
-0.217827
-0.22285
-0.242805
-0.232714
-0.222669
-0.232646
-0.237669
-0.227806
-0.203032
-0.188122
-0.1831
-0.178032
-0.163145
-0.163371
-0.168484
-0.163484
-0.128371
-0.133303
-0.153371
-0.158461
-0.163619
-0.173731
-0.178754
-0.143822
-0.1288
-0.103755
-0.118733
-0.128756
-0.1238
-0.118824
-0.118824
-0.123847
-0.103825
-0.0938244
-0.0789156
-0.058939
-0.0288935
-0.0238709
-0.0238256
-0.0388031
-0.0388479
-0.0140057
0.000813007
0.0256324
0.0355201
0.0405202
0.0154986
0.0055666
0.0257707
0.0760875
0.0812674
0.0613356
0.0614033
0.0614715
0.0715847
0.056653
0.0517435
0.0617657
0.0566983
0.0264268
0.000883579
0.00506926
0.0136671
0.00536299
-0.0349536
-0.0346146
-0.022397
-0.0144787
-0.0315375
-0.0481677
-0.0531445
-0.0558591
-0.0439358
-0.0390716
-0.0148635
-0.0103841
-0.0306554
-0.0458822
-0.0459051
-0.0357924
-0.0353622
-0.0444798
-0.0431004
-0.0363808
-0.0391407
-0.0513582
-0.0429416
-0.0188465
-0.0195479
-0.0256109
-0.0319681
-0.0239825
-0.0364261
-0.0242991
0.00223923
0.0187545
0.0202255
0.00151539
-0.0173764
-0.0014267
0.00925159
0.00956869
-0.00538588
-0.015521
-0.0207477
-0.0309062
-0.0410872
-0.0364032
-0.0168104
-0.0121722
-0.0124426
-0.0177374
-0.0280085
-0.038393
-0.0538912
-0.0493665
-0.0248876
-0.0154533
-0.00104189
-0.0365629
-0.0519252
-0.0671964
-0.0375133
-0.0228081
-0.023057
-0.0483055
-0.0685773
-0.0837584
-0.0489397
-0.0291882
-0.0294595
-0.0448217
-0.0502071
-0.0455685
-0.0758176
-0.0960884
-0.0812244
-0.061429
-0.0567002
-0.0620394
-0.0674238
-0.0528083
-0.0632381
-0.0636902
-0.0641427
-0.06955
-0.0748887
-0.0901828
-0.100544
-0.0809288
-0.0563374
-0.0267892
-0.0271964
-0.0325356
-0.0327163
-0.0529194
-0.0381913
-0.0435305
-0.0788469
-0.09905
-0.0740499
-0.0389824
-0.0289593
-0.0338469
-0.0487566
-0.0435758
-0.0384183
-0.0431919
-0.0478978
-0.0176492
0.047554
0.107645
0.232712
0.652872
1.11805
0.978098
0.568189
0.428347
0.488574
0.503801
0.468959
0.454027
0.509072
0.534208
0.499413
0.464639
0.42491
0.450137
0.440318
0.420431
0.390567
0.340747
0.230951
0.151109
0.0762897
-0.00355196
-0.133439
-0.283303
-0.338077
-0.297873
-0.247693
-0.227535
-0.227399
-0.237264
-0.237015
-0.286608
-0.281224
-0.235795
-0.205455
-0.195184
-0.209867
-0.189461
-0.158985
-0.148578
-0.148261
-0.167967
-0.16765
-0.167333
-0.157038
-0.146699
-0.146269
-0.135793
-0.145386
-0.140024
-0.10464
-0.0992546
-0.0988469
-0.0933719
-0.0778065
-0.0671721
-0.0866971
-0.101336
-0.0860181
-0.07552
-0.0849319
-0.0894341
-0.0790272
-0.063642
-0.0683255
-0.0728955
-0.0723519
-0.0568309
-0.0613556
-0.0709257
-0.060451
-0.0400891
-0.0447717
-0.0444098
-0.0390253
-0.0185957
-0.00314283
-0.00278091
0.00262594
0.0280104
0.0384402
0.0438247
0.0491638
0.0695033
0.0897741
0.0950232
0.0852947
0.0956111
0.111109
0.111584
0.101991
0.117308
0.137488
0.127534
0.111856
0.105724
0.106063
0.0920811
0.0801125
0.0586877
0.0621257
0.0504293
0.0386643
0.0168095
0.00986338
0.0129404
-0.00877857
-0.0102267
-0.00137949
-0.0119004
-0.0204515
-0.0217862
-0.0235062
-0.0216279
-0.0249991
-0.0378275
-0.035203
-0.0170813
-0.0136204
-0.0199313
-0.0261755
-0.00280476
-0.00450087
-0.0114017
-0.0131207
0.00522804
0.0134411
0.00636005
-0.0060153
0.00608826
0.00787544
0.00927877
0.00527334
0.00579405
0.00579405
0.00554514
0.000387192
-0.00452232
0.00574923
-0.00895643
-0.0237527
-0.0336399
-0.0136619
-0.023685
-0.0235267
-0.0282779
-0.0228705
-0.0325089
-0.047102
-0.0465136
-0.03579
-0.0350208
-0.0493202
-0.0586638
-0.0479856
-0.037149
-0.0513124
-0.0605431
-0.0496612
-0.0487561
-0.0628505
-0.0768547
-0.0758591
-0.0648413
-0.073823
-0.0728498
-0.0718322
-0.0609269
-0.0651569
-0.0744333
-0.0786867
-0.0580983
-0.0625329
-0.0770359
-0.076561
-0.0661764
-0.0709052
-0.0657239
-0.0705657
-0.0655203
-0.0705204
-0.0756111
-0.0857468
-0.080905
-0.0660629
-0.0712891
-0.08147
-0.0665379
-0.0616055
-0.0666509
-0.0766058
-0.0665154
-0.0613341
-0.0661311
-0.0658369
-0.0704751
-0.0549321
-0.0393662
-0.0488234
-0.04319
-0.0324435
-0.0116968
-0.000882149
0.0450001
0.200882
0.266696
1.02753
0.903348
0.49414
0.384977
0.410656
0.426312
0.446968
0.472624
0.48819
0.478664
0.46414
0.46957
0.465044
0.450542
0.435972
0.411447
0.356877
0.257216
0.172555
0.112895
0.0282569
-0.116426
-0.206064
-0.20068
-0.190272
-0.139911
-0.159549
-0.154141
-0.168621
-0.193213
-0.182806
-0.147377
-0.131924
-0.126494
-0.136065
-0.125634
-0.115113
-0.13966
-0.174231
-0.173779
-0.153281
-0.157783
-0.177285
-0.18181
-0.171425
-0.151041
-0.17077
-0.165384
-0.160022
-0.149638
-0.174276
-0.179005
-0.168756
-0.178485
-0.198213
-0.20801
-0.212783
-0.202489
-0.20724
-0.232037
-0.221788
-0.206516
-0.22138
-0.236176
-0.230996
-0.215837
-0.210701
-0.215611
-0.210543
-0.185521
-0.185453
-0.180386
-0.165318
-0.14025
-0.135182
-0.110183
-0.110183
-0.0851598
-0.0651598
-0.0502505
-0.0304098
-0.0105681
0.00927353
0.0287986
0.0278473
0.0553818
0.0805173
0.0754271
0.0723953
0.0900197
0.0980291
0.085835
0.0836406
0.0814009
0.0841155
0.0817852
0.0645008
0.0622387
0.0599079
0.062645
0.0253596
0.00821066
0.0213327
0.0149069
-0.0112238
-0.0220389
-0.0221748
-0.0167003
-0.0258632
-0.0245733
-0.0331249
-0.0181246
-0.0185542
-0.0357485
-0.0183954
-0.00579309
-0.0131235
-0.0204763
-0.0177841
2.14577e-05
0.00782681
0.000473976
-0.00687981
0.000813484
0.00852871
-0.00877905
-0.00131369
0.0158362
0.0175552
0.0138898
-0.00509214
0.00549555
0.0104733
0.00506592
-0.0103641
-0.0107484
0.00916004
-0.00608826
-0.0414052
-0.021812
-0.0072875
-0.00767231
-0.0229664
-0.0332603
-0.0235538
-0.0238252
-0.0440736
-0.034277
-0.0295486
-0.0349565
-0.0453863
-0.0507936
-0.0561562
-0.0414729
-0.0367889
-0.052083
-0.0372643
-0.0425582
-0.0478749
-0.0532141
-0.0535312
-0.0288701
-0.0343685
-0.0548882
-0.0554767
-0.0312228
-0.0370822
-0.067987
-0.0689378
-0.0499339
-0.0510874
-0.07231
-0.0534863
-0.0597301
-0.0560427
-0.0674448
-0.0788474
-0.0702043
-0.0565619
-0.0578961
-0.0691624
-0.0704293
-0.0616736
-0.0678048
-0.078845
-0.0698633
-0.0507002
-0.0614691
-0.0721264
-0.052669
-0.0281
-0.0334172
-0.0286889
0.0361071
0.146017
0.476017
1.00108
1.04129
0.591515
0.461831
0.372216
0.4076
0.422963
0.43837
0.443755
0.444027
0.444344
0.444683
0.455044
0.440361
0.4407
0.425903
0.381039
0.27122
0.211378
0.151492
0.0215821
-0.103305
-0.138215
-0.083147
-0.0530562
-0.078124
-0.108147
-0.12817
-0.138169
-0.168102
-0.167943
-0.14283
-0.127762
-0.137762
-0.14774
-0.127673
-0.122559
-0.137468
-0.157378
-0.167197
-0.142106
-0.127015
-0.131925
-0.131879
-0.121789
-0.111743
-0.121698
-0.12663
-0.116517
-0.116494
-0.131539
-0.116517
-0.0965166
-0.0915613
-0.101539
-0.111516
-0.096539
-0.0814934
-0.076539
-0.0915837
-0.086607
-0.0866971
-0.0967193
-0.101833
-0.0969911
-0.0820818
-0.0971498
-0.127308
-0.132421
-0.127443
-0.132511
-0.127625
-0.117782
-0.107941
-0.103076
-0.123235
-0.0933022
-0.0784383
-0.0736194
-0.0588236
-0.0440049
-0.039185
-0.0194564
-0.0147729
-0.00513601
0.019434
0.0237107
0.0225344
0.0198188
0.0397744
0.0494347
0.0409961
0.0337114
0.0316296
0.039526
0.0374441
0.0353403
0.0232134
0.0260639
0.0239816
0.00699043
-0.00988674
-0.0118103
-0.0186872
-0.0303612
-0.0367413
-0.027782
-0.0233016
-0.0281434
-0.0471931
-0.0292072
-0.0233474
-0.0220799
-0.038075
-0.0298853
-0.0171933
-0.0193648
-0.0265136
-0.0185728
0.0144591
0.00735474
-0.00995255
-0.0125093
-6.53267e-05
0.0023098
-0.000314713
0.00194836
0.00907564
0.0107727
-0.00284767
-0.00678444
-0.0113096
-0.00137663
-0.00673914
-0.0120111
0.0129218
0.0126953
0.00731039
-0.0181422
-0.0185947
-0.0291595
-0.0297256
-0.030314
-0.0158572
-0.00644493
-0.0121465
-0.0328026
-0.0383916
-0.0340023
-0.0496588
-0.0504279
-0.0460167
-0.0314908
-0.0219889
-0.0376902
-0.0484595
-0.0391378
-0.039794
-0.0554733
-0.0511298
-0.036809
-0.0325556
-0.0433927
-0.0692301
-0.0650668
-0.0508809
-0.0418534
-0.0729394
-0.064003
-0.0551343
-0.0614462
-0.0678487
-0.0743871
-0.050971
-0.0474873
-0.0739579
-0.0854058
-0.0719218
-0.0685058
-0.0852251
-0.0920353
-0.0687099
-0.0651574
-0.0714464
-0.0826683
-0.0789123
-0.0752921
-0.0666041
-0.0776896
-0.0735946
-0.0543642
-0.0601788
-0.0709491
-0.0615826
-0.0318766
-0.0171256
0.0275126
0.147038
0.481607
1.00136
1.05634
0.626336
0.381291
0.351223
0.35611
0.340974
0.345906
0.360974
0.360997
0.335906
0.325838
0.32077
0.320658
0.300499
0.27525
0.234979
0.154662
0.0443225
-0.0409946
-0.106107
-0.226221
-0.33638
-0.386697
-0.336968
-0.287193
-0.26742
-0.262669
-0.253008
-0.258279
-0.273551
-0.243755
-0.199003
-0.144252
-0.134523
-0.134863
-0.135202
-0.125473
-0.140655
-0.155813
-0.145971
-0.136311
-0.136717
-0.142148
-0.112555
-0.0779619
-0.0933018
-0.0835276
-0.0787539
-0.0840259
-0.0944104
-0.0998631
-0.100384
-0.0708132
-0.0660849
-0.066401
-0.0517859
-0.0421939
-0.0526004
-0.0630531
-0.073596
-0.0590944
-0.0745916
-0.0850215
-0.0854058
-0.0407906
-0.0161967
-0.0267177
-0.0422382
-0.0427361
-0.0382786
-0.0337763
-0.0342064
0.000340939
0.0198879
0.0242996
0.00871134
0.033123
0.072648
0.0821052
0.101607
0.126064
0.150498
0.179978
0.179367
0.158802
0.153258
0.162602
0.161923
0.146109
0.170113
0.193643
0.155837
0.10586
0.0752492
0.066267
0.0735974
0.0810857
0.0934844
0.0559287
0.0182366
0.00052166
0.0228071
0.015069
0.00239849
-0.0701122
-0.0724425
-0.0246372
0.0035305
-0.00757837
-0.0469909
-0.0686426
-0.0545025
-0.046855
-0.0450225
-0.0329409
-0.0152264
-0.0270586
-0.05371
-0.0503163
-0.0171266
-0.0191174
-0.0311308
-0.0331221
-0.0200682
-0.0022397
-0.00472879
0.00237513
0.0190492
0.0201125
-0.0292988
-0.0491409
-0.0245476
0.00959206
-0.00653839
-0.0373988
-0.0330768
-0.0186648
-0.00432062
-0.0299983
-0.0257454
-0.0115147
-0.0122156
-0.032804
-0.0331664
-0.00839233
-0.00861835
-0.0288453
-0.0490947
-0.0493884
-0.0497055
-0.0250216
-0.0153384
-0.0155644
-0.0107455
-0.0158591
-0.0358815
-0.0359268
-0.0358357
-0.0307689
-0.0307913
-0.0158815
-0.0109267
-0.0309491
-0.0659037
-0.0408812
-0.0158358
-0.0157676
-0.0357232
-0.0307465
-0.00581408
-0.030973
-0.0311542
-0.0414476
-0.036809
-0.0271935
-0.0374651
-0.0227365
-0.0130758
-0.0184827
-0.024003
-0.0295687
-0.0301566
-0.0207224
-0.0312209
-0.026741
-0.0222845
-0.00784969
-0.0233245
-0.0386648
-0.038981
-0.0191622
-0.0191851
-0.0341396
-0.018981
-0.00373173
-0.00352764
-0.00341463
-0.00825691
0.036902
0.0820379
0.172377
0.462875
0.968305
1.1136
0.748734
0.44887
0.419118
0.444458
0.444865
0.465136
0.47534
0.495544
0.495838
0.471065
0.446268
0.436201
0.421156
0.386291
0.346518
0.306767
0.216857
0.0968347
-0.00318766
-0.0681419
-0.153051
-0.287961
-0.402825
-0.437712
-0.432666
-0.387621
-0.372508
-0.377349
-0.387192
-0.3971
-0.366965
-0.321761
-0.27149
-0.256241
-0.23097
-0.210699
-0.180563
-0.175497
-0.185338
-0.174999
-0.184751
-0.174592
-0.174435
-0.154231
-0.138937
-0.12871
-0.13853
-0.123303
-0.103009
-0.0977602
-0.117511
-0.117239
-0.116946
-0.101629
-0.106448
-0.116243
-0.106131
-0.0958362
-0.115451
-0.130157
-0.114795
-0.0994334
-0.109117
-0.128868
-0.118641
-0.10337
-0.0980539
-0.112669
-0.11733
-0.102081
-0.0918999
-0.0966735
-0.0863795
-0.0710402
-0.0657692
-0.0655198
-0.0552034
-0.0350003
-0.0247517
-0.0195489
-0.0144134
0.00581264
0.0310616
0.0364017
0.0366955
0.061944
0.0771933
0.0873966
0.0825558
0.102781
0.127939
0.138166
0.128347
0.133527
0.143709
0.148822
0.138867
0.128958
0.139027
0.143914
0.123642
0.112828
0.125453
0.121131
0.116968
0.104683
0.0833707
0.0725336
0.0529628
0.0405421
0.0537095
0.0502257
0.035316
0.0252023
0.0252032
0.0202937
0.000564575
-0.014277
-0.00909519
0.0011754
-0.00357533
-0.0133715
-0.0179644
-0.00721788
0.00375462
-0.0102501
-0.0140057
-0.0126252
-0.00149393
-0.0109057
-0.0208602
-0.0112224
-0.00710535
-0.0183721
-0.0347519
-0.0359282
-0.0217881
-0.0376253
-0.0535297
-0.044548
-0.045476
-0.0461998
-0.066833
-0.0573306
-0.0477152
-0.047874
-0.0678964
-0.0727382
-0.0675344
-0.0723763
-0.0673089
-0.077354
-0.0723529
-0.0673313
-0.0723085
-0.0821953
-0.0670371
-0.0619006
-0.0767198
-0.0865159
-0.086267
-0.0660629
-0.0708814
-0.0956779
-0.0854292
-0.0900903
-0.069819
-0.0845709
-0.0943441
-0.0741405
-0.0839825
-0.088778
-0.0985298
-0.0833263
-0.0781908
-0.083055
-0.0929861
-0.0928278
-0.0777144
-0.0777144
-0.0977378
-0.0827379
-0.0727158
-0.0827613
-0.0877838
-0.0778975
-0.067965
-0.0680556
-0.0781918
-0.0783501
-0.0584397
-0.0685754
-0.0837345
-0.0888472
-0.0689607
-0.0640969
-0.0692096
-0.0642772
-0.0542998
-0.0593672
-0.0543671
-0.0642996
-0.0491633
-0.0340047
-0.0488229
-0.0486641
-0.0334382
-0.023212
-0.0179634
0.00728559
0.057579
0.192873
0.538121
0.968438
0.928731
0.559115
0.389477
0.374725
0.384907
0.415112
0.430247
0.430383
0.445474
0.460541
0.460632
0.440632
0.420587
0.455496
0.470384
0.450248
0.430112
0.414976
0.359863
0.269705
0.184569
0.139478
0.044342
-0.0757928
-0.140997
-0.121178
-0.0662227
-0.0613136
-0.0814266
-0.111517
-0.121584
-0.161697
-0.186901
-0.177105
-0.167376
-0.152625
-0.182852
-0.198168
-0.173485
-0.153824
-0.164186
-0.189548
-0.199887
-0.210182
-0.215498
-0.215838
-0.186155
-0.171449
-0.171742
-0.176991
-0.157195
-0.162353
-0.162511
-0.167579
-0.162646
-0.147715
-0.152761
-0.162783
-0.157738
-0.16267
-0.15767
-0.18267
-0.177693
-0.162671
-0.147558
-0.16258
-0.167558
-0.162558
-0.157489
-0.157534
-0.162602
-0.152648
-0.122602
-0.137579
-0.142602
-0.122602
-0.10258
-0.0976248
-0.10767
-0.0826483
-0.0726705
-0.0476937
-0.0577383
-0.0427613
-0.0128064
0.00221586
-0.00780773
0.00719261
0.0322156
0.0472155
0.0521698
0.0572147
0.077282
0.0822825
0.0822372
0.0871925
0.0920796
0.102057
0.0968986
0.081718
0.0815821
0.096107
0.0848637
0.07165
0.0521488
0.0589137
0.0522389
0.0309949
0.0301805
0.0309272
0.0385742
0.0209045
0.01647
0.0212665
0.0261068
0.000993252
0.00101614
0.0110841
0.0163555
0.00678587
-0.00778389
0.0126915
0.0184159
0.00932074
0.000520229
0.011878
0.0240951
0.0217652
0.00945711
0.0166512
0.0232573
0.0245013
0.0206552
0.0164475
0.0318999
0.0372391
-0.00235367
-0.00183392
0.0137086
0.0142293
-0.000340939
-0.00504732
0.0149527
0.0297947
0.029727
0.0096817
0.0147948
0.0347948
0.0346818
0.0195236
0.0344787
0.0444794
0.0392761
0.00889015
0.00839281
0.0179172
0.0075326
0.00728464
-0.00289631
-0.00807714
-0.0132356
-0.0284166
-0.0386662
-0.0438919
-0.0390964
-0.0542769
-0.069458
-0.0747299
-0.0700011
-0.0802956
-0.0906801
-0.0809975
-0.0813136
-0.0716529
-0.107083
-0.0875134
-0.0779881
-0.0834637
-0.104052
-0.0897074
-0.0703855
-0.0710187
-0.0966749
-0.102217
-0.0928736
-0.0836201
-0.0894122
-0.0952253
-0.0809722
-0.0866971
-0.0873985
-0.093122
-0.0787773
-0.074502
-0.0702252
-0.095881
-0.0865145
-0.072103
-0.0876231
-0.098053
-0.0934148
-0.0935273
-0.0935507
-0.0835962
-0.0686417
-0.0587091
-0.0487084
-0.0637083
-0.0436401
-0.0235496
-0.0184364
0.0417218
0.211993
0.662287
0.957627
0.682852
0.3631
0.318304
0.358439
0.35837
0.368257
0.398303
0.418371
0.418417
0.393461
0.393483
0.393348
0.398257
0.353212
0.333189
0.348122
0.338077
0.263099
0.203054
0.172941
0.152827
-0.0572405
-0.177286
-0.197195
-0.142082
-0.10215
-0.107377
-0.132603
-0.147738
-0.192739
-0.232603
-0.227467
-0.19758
-0.19783
-0.213034
-0.223214
-0.203259
-0.178259
-0.168258
-0.178214
-0.173213
-0.193236
-0.198259
-0.188168
-0.15301
-0.157896
-0.177738
-0.157648
-0.127557
-0.112579
-0.122579
-0.142467
-0.142262
-0.142014
-0.141855
-0.1519
-0.127059
-0.117262
-0.122488
-0.132669
-0.132851
-0.118235
-0.103824
-0.114503
-0.105068
-0.0905437
-0.101064
-0.126676
-0.117332
-0.0828972
-0.0684853
-0.0739374
-0.0792542
-0.0496159
-0.0299778
-0.0253396
-0.0406337
-0.0259047
-0.0211987
-0.0115824
0.00296545
0.0325131
0.0571508
0.046834
0.0315857
0.0512919
0.0659294
0.0755672
0.0802279
0.0948882
0.10964
0.119255
0.0988021
0.0983491
0.102715
0.101653
0.0497742
0.0308375
0.0506787
0.0521045
0.054955
0.0429187
0.0456343
0.0382137
0.0257926
0.00330353
-0.00925255
-0.0216284
-0.0382566
-0.0579166
-0.0462875
-0.0409708
-0.0371475
-0.0435276
0.000318527
0.00939083
-0.0210838
-0.0460162
-0.0455637
-0.0396361
-0.0280528
-0.0158129
-0.0234375
-0.0210619
-0.0188899
-0.0168533
-0.0346594
-0.0273285
-0.00508785
0.00194883
-0.00624132
-0.0046587
0.000974655
-0.0339346
-0.0540018
-0.00884342
0.0313826
0.0316548
0.00681305
-0.0280962
-0.0431643
-0.0384808
-0.0238652
0.00581837
0.0104795
0.00511742
-0.04038
-0.0558553
-0.0361948
-0.0314665
-0.0217838
-0.0371232
-0.0325541
-0.0378938
-0.0532336
-0.058414
-0.0536633
-0.0289354
-0.0340705
-0.039093
-0.0440712
-0.0590711
-0.0891156
-0.0992522
-0.0894108
-0.0495467
-0.0297046
-0.0348177
-0.0399308
-0.0550666
-0.0502033
-0.0204072
0.00936651
0.0241632
0.0039587
-0.0262895
-0.0266056
0.00298691
0.012466
0.00196886
-0.028461
-0.038846
-0.0592761
-0.0547523
-0.075182
-0.0605664
-0.0557933
-0.0611324
-0.0814271
-0.0667443
-0.0419712
-0.0320392
-0.0570168
-0.0718813
-0.071723
-0.0665641
-0.0513382
-0.0560894
-0.0457044
-0.0402517
-0.0547314
-0.0491652
-0.0235085
-0.00782967
0.0178266
0.103461
0.289139
0.744637
1.01511
0.675656
0.376199
0.361856
0.427488
0.443122
0.463711
0.499276
0.519819
0.540271
0.545633
0.56095
0.571244
0.586537
0.596786
0.59708
0.587374
0.537895
0.448415
0.358822
0.294161
0.189477
0.0197725
-0.124888
-0.154413
-0.148983
-0.148577
-0.138215
-0.157785
-0.197423
-0.252061
-0.26661
-0.246066
-0.215546
-0.215094
-0.214641
-0.19928
-0.19394
-0.168419
-0.182741
-0.182039
-0.181337
-0.19084
-0.175433
-0.155025
-0.139482
-0.133758
-0.143124
-0.122512
-0.10706
-0.111653
-0.116178
-0.11568
-0.10507
-0.104504
-0.128938
-0.11844
-0.117988
-0.107489
-0.121992
-0.131426
-0.125861
-0.120249
-0.124661
-0.134276
-0.113937
-0.108552
-0.113191
-0.117692
-0.102104
-0.0914936
-0.0908823
-0.100362
-0.0848188
-0.0640945
-0.0532355
-0.0623527
-0.0415835
-0.0108595
-8.96454e-05
0.000747681
0.00656223
0.0273314
0.0330329
0.0385532
0.0439377
0.0642986
0.0745707
0.0448418
0.0550232
0.060226
0.0704527
0.0606785
0.0408597
0.0509057
0.0505662
0.0341859
0.015656
0.0156789
0.022059
0.000203133
-0.0112443
-0.0126705
-0.00920868
-0.0208154
-0.0473757
-0.0440044
-0.0355206
-0.0466971
-0.0570135
-0.0653849
-0.0526247
-0.0464478
-0.0666738
-0.0720358
-0.0670362
-0.0616956
-0.0659719
-0.0799308
-0.0685282
-0.05656
-0.0589581
-0.0709262
-0.0578723
-0.0398183
-0.0417194
-0.0435748
-0.0454307
-0.0320368
-0.0338693
-0.041019
-0.033462
-0.0213127
-0.0199547
-0.0392532
-0.0387325
-0.0331206
-0.022397
-0.036582
-0.0409036
-0.0353599
-0.0349984
-0.0497947
-0.0545907
-0.0392065
-0.0338216
-0.0484815
-0.0631199
-0.0577583
-0.0522385
-0.0568089
-0.0814466
-0.0711069
-0.0658126
-0.0604053
-0.0749764
-0.0845232
-0.0590029
-0.0585055
-0.0679626
-0.0724196
-0.066854
-0.0662656
-0.0807457
-0.0852251
-0.0797052
-0.0692759
-0.0738916
-0.0885744
-0.0832119
-0.0729175
-0.0777135
-0.0926013
-0.0925097
-0.0624638
-0.082509
-0.102532
-0.0875559
-0.0776234
-0.0777373
-0.0878739
-0.0930319
-0.0881896
-0.0884385
-0.0987091
-0.0989356
-0.0890942
-0.0842977
-0.104434
-0.114479
-0.099411
-0.0842528
-0.0840716
-0.098845
-0.0685515
-0.0581217
-0.047647
-0.0471044
-0.0314932
-0.0059514
-0.0153174
-0.0396843
-0.0240517
0.0116048
0.0522156
0.112804
0.328438
0.804049
1.12955
0.845089
0.450633
0.371131
0.371606
0.382081
0.402442
0.417804
0.448121
0.448438
0.4588
0.454094
0.479388
0.499637
0.509863
0.52009
0.535225
0.52036
0.460496
0.395631
0.360857
0.301038
0.196197
0.061378
-0.0183954
-0.0132146
0.00198984
0.00226116
-0.00749016
-0.0171962
-0.121924
-0.161653
-0.18136
-0.181088
-0.195817
-0.190522
-0.190206
-0.179912
-0.194595
-0.2193
-0.228961
-0.218622
-0.228305
-0.242988
-0.222649
-0.202377
-0.212105
-0.211788
-0.201449
-0.191177
-0.185951
-0.195724
-0.190475
-0.175226
-0.170023
-0.169819
-0.179638
-0.164412
-0.154162
-0.163981
-0.168755
-0.158506
-0.143212
-0.152962
-0.162759
-0.147555
-0.137351
-0.137216
-0.142079
-0.121922
-0.106718
-0.106536
-0.106401
-0.0962424
-0.0710392
-0.0608582
-0.0557909
-0.0455647
-0.0304289
-0.0253382
-0.020226
-0.0151124
0.00502348
0.0201588
0.0202041
0.0302267
0.0502267
0.0601807
0.055068
0.0548191
0.0593204
0.0680766
0.0499539
0.0248632
0.0195007
0.0271702
0.0153832
-0.0113816
-0.0181465
-0.0148435
-0.0215402
-0.03826
-0.0498662
-0.046495
-0.0381923
-0.0550022
-0.0667205
-0.0531688
-0.0642548
-0.0743456
-0.0619917
-0.0626931
-0.0492768
-0.0572181
-0.0600238
-0.0575352
-0.025001
-0.0325799
-0.0452495
-0.037806
-0.0350232
-0.026969
-0.0338688
-0.0307012
-0.0124431
-0.00422955
-0.00103998
-0.00280476
0.00540781
0.0134163
-0.00889158
-0.0112219
0.0063343
0.0134387
-0.000113964
-0.00414085
0.00192261
0.00307608
0.00416231
-0.00988722
-0.00895929
0.00156164
-0.00812149
-0.0128946
-0.0076685
-0.00246525
-0.00723886
-0.022058
-0.0268545
-0.016696
-0.0167189
-0.0317421
-0.0317869
-0.0268779
-0.031991
-0.0320821
-0.0371275
-0.0322185
-0.0322638
-0.0323544
-0.037468
-0.0325809
-0.0327172
-0.0379214
-0.0531478
-0.0433517
-0.0336003
-0.0389171
-0.0592337
-0.0545273
-0.0399566
-0.0454316
-0.0659747
-0.061563
-0.0472426
-0.0480347
-0.0638485
-0.0546184
-0.0503187
-0.0460644
-0.0618105
-0.0726023
-0.0584168
-0.0541859
-0.0699329
-0.0805664
-0.0561099
-0.0615849
-0.0620375
-0.0724669
-0.0628514
-0.0531225
-0.05828
-0.0683932
-0.0534606
-0.0433702
-0.038167
-0.0379176
-0.0226474
0.0176697
0.0779858
0.223348
0.628755
1.07912
1.15439
0.484569
0.349751
0.374908
0.384998
0.380044
0.380089
0.400133
0.400225
0.395247
0.385248
0.425293
0.440316
0.420316
0.400383
0.395384
0.330361
0.225384
0.135361
0.0404291
-0.0694585
-0.134436
-0.134481
-0.0893679
-0.0541644
-0.0490279
-0.124028
-0.173983
-0.188847
-0.178666
-0.178599
-0.158508
-0.143305
-0.138055
-0.147897
-0.162762
-0.157466
-0.187195
-0.221901
-0.226538
-0.216176
-0.191086
-0.206086
-0.211132
-0.196155
-0.175996
-0.180906
-0.195838
-0.190725
-0.190657
-0.190612
-0.200544
-0.20034
-0.190091
-0.184909
-0.189977
-0.175068
-0.185113
-0.170045
-0.17
-0.179977
-0.165023
-0.155045
-0.155091
-0.165158
-0.145226
-0.13025
-0.125204
-0.130227
-0.110271
-0.0904074
-0.0905652
-0.0806785
-0.0757012
-0.0607462
-0.05586
-0.0359726
-0.031086
-0.00626659
0.0185075
0.0282125
0.0428739
0.0624213
0.0618105
0.0460186
0.0495481
0.0662003
0.0861096
0.0869927
0.0744801
0.0773087
0.0750012
0.0625124
0.050046
0.0524893
0.0600004
0.0525117
0.0301361
0.00787306
0.015543
0.0182133
-0.0190043
-0.0360632
-0.027873
-0.0243216
-0.0403171
-0.040792
-0.0452943
-0.0434165
-0.0444117
-0.0383711
-0.012126
0.00104094
-0.00133419
-0.00864267
-0.000927448
0.00680876
0.004457
-0.018055
-0.0107017
0.00160551
0.0037775
-0.00407171
-0.00692272
-0.00470495
0.00258017
-0.000270367
0.001472
0.00767136
-0.00144625
-0.0210166
-0.00612926
0.00850868
0.00316906
-0.0270567
-0.0271702
0.00778484
-0.00250959
-0.0180297
-0.0387087
-0.0143881
-0.00495338
-0.0253606
-0.0357451
-0.0211525
-0.0115595
-0.041944
-0.0622382
-0.0727592
-0.0734377
-0.0691161
-0.0247946
-0.0103836
0.0039382
-0.00176239
-0.0425105
-0.0432343
-0.0390038
-0.0398183
-0.0407691
-0.0419002
-0.0430317
-0.06914
-0.0852265
-0.0864029
-0.0376015
-0.0239816
-0.0353398
-0.0768781
-0.0734615
-0.0651121
-0.0568771
-0.0636873
-0.0654516
-0.0571709
-0.058845
-0.0705647
-0.0922852
-0.0739141
-0.0704975
-0.0569677
-0.0683932
-0.0697508
-0.0809269
-0.0820804
-0.0881658
-0.0842066
-0.0700665
-0.060904
-0.0716286
-0.0522623
-0.0277371
-0.0031004
0.0166278
0.0663786
0.221153
0.640972
1.01084
0.785747
0.445746
0.375747
0.390724
0.420702
0.440611
0.455588
0.440566
0.430567
0.415589
0.400612
0.410499
0.400363
0.390227
0.365002
0.31473
0.234436
0.149096
0.0738249
-0.0814018
-0.241673
-0.306922
-0.30717
-0.277374
-0.267509
-0.282622
-0.272735
-0.267804
-0.277917
-0.258008
-0.203076
-0.173258
-0.168417
-0.148507
-0.103621
-0.0886893
-0.123825
-0.158938
-0.133984
-0.109052
-0.0941195
-0.114187
-0.109323
-0.0994582
-0.109549
-0.114594
-0.0946164
-0.0847297
-0.0948424
-0.114865
-0.11491
-0.0950007
-0.0851588
-0.11025
-0.125317
-0.115431
-0.105567
-0.115657
-0.135679
-0.15086
-0.131087
-0.131403
-0.136743
-0.127083
-0.12215
-0.11715
-0.117127
-0.0921049
-0.0772181
-0.0723314
-0.0774441
-0.042625
-0.00273848
-0.00282907
-0.0179648
-0.0232363
0.00644684
0.0161524
0.0510392
0.0610166
0.0909257
0.115745
0.130519
0.14527
0.170088
0.169952
0.159681
0.139319
0.168799
0.182917
0.165902
0.146672
0.136717
0.143482
0.126491
0.0944548
0.0922604
0.0901108
0.0828032
0.0604281
0.0579848
0.0555634
0.0581875
0.0309024
0.0187531
0.0166941
0.0098381
-0.0117235
-0.0175152
-0.00615692
0.0123043
6.53267e-05
-0.00850916
0.00305176
0.00531483
0.0130744
-0.00911999
-0.00131512
0.00628614
-0.00111151
-0.0185099
-0.00590944
0.0118728
0.0196333
0.00723505
0.00458765
0.0216689
0.0385017
0.00990391
0.000854969
0.00619364
0.000945091
-0.00459814
-0.0151405
-0.0105929
-0.00600004
-0.0116105
-0.0321765
-0.0177422
-0.0183301
-0.0288501
-0.0291452
-0.0293255
-0.0344162
-0.0293937
-0.0491905
-0.039032
-0.0440083
-0.054121
-0.0541654
-0.054143
-0.0490294
-0.0439615
-0.0639381
-0.0590062
-0.0540733
-0.0640731
-0.0740061
-0.0739379
-0.0588474
-0.0638018
-0.0687795
-0.073689
-0.0634851
-0.0583496
-0.0682139
-0.0731235
-0.0680103
-0.0729876
-0.0680327
-0.0782366
-0.0684175
-0.0635757
-0.058825
-0.0741186
-0.074481
-0.0648656
-0.070251
-0.080636
-0.0810432
-0.0764952
-0.0620384
-0.0774455
-0.0827847
-0.0730782
-0.0683722
-0.073802
-0.0790963
-0.0693679
-0.0744367
-0.0694137
-0.0893011
-0.0740743
-0.0586901
-0.0631924
-0.0775809
-0.0469923
-0.0163589
0.0192065
0.0898857
0.320632
0.831402
0.99708
0.632736
0.348461
0.359139
0.384728
0.375294
0.405792
0.42629
0.45672
0.462173
0.44258
0.4431
0.438506
0.443823
0.419162
0.404456
0.389727
0.334931
0.240202
0.170519
0.125769
0.0260401
-0.113711
-0.19344
-0.183078
-0.16783
-0.137581
-0.147333
-0.162107
-0.176994
-0.206835
-0.211609
-0.18636
-0.156089
-0.145863
-0.170591
-0.160229
-0.13498
-0.154799
-0.184595
-0.184436
-0.184255
-0.174097
-0.173961
-0.14378
-0.143622
-0.138531
-0.143418
-0.138281
-0.133191
-0.128055
-0.142942
-0.147874
-0.142761
-0.11767
-0.122602
-0.12758
-0.117602
-0.107602
-0.112579
-0.122557
-0.107557
-0.0775566
-0.0875797
-0.10758
-0.102602
-0.09267
-0.107716
-0.117738
-0.112783
-0.107806
-0.122851
-0.132942
-0.14801
-0.1281
-0.123146
-0.113236
-0.118395
-0.0984855
-0.0835986
-0.0886664
-0.0737567
-0.0538473
-0.0339379
-0.0240517
-0.0241876
0.000654697
0.0205412
0.0354052
0.0502014
0.0550432
0.0798845
0.0696583
0.0544329
0.0791612
0.0788679
0.0834155
0.0727372
0.0613122
0.0681911
0.063395
0.0392542
0.0267878
0.0248427
0.0278287
0.00588322
-0.000949383
0.00237656
0.00099659
-0.0193882
-0.0125098
-0.00981855
-0.0136642
-0.018868
-0.0290041
-0.0240035
-0.00877714
-0.0132341
-0.0173292
-0.0209045
-0.00909424
-0.0270801
-0.0246825
-0.0117865
-0.0135064
-0.00536203
-0.0175786
-0.00509024
-0.00791788
-0.00113153
0.000338554
-0.0133715
0.00239754
-0.00246668
-0.0178967
-0.0185299
-0.0141406
-0.00950241
-0.0148187
-0.0102711
-0.0107913
-0.0113339
-0.0118766
-0.032351
-0.0277581
-0.0230751
-0.028573
-0.0340705
-0.0294781
-0.029954
-0.0255423
-0.0361981
-0.0417867
-0.0323524
-0.0379186
-0.0383482
-0.0438013
-0.0342078
-0.0396156
-0.0400004
-0.0503626
-0.0457478
-0.0411096
-0.0465622
-0.0620375
-0.0474224
-0.0428066
-0.0431919
-0.0485539
-0.0539389
-0.0493236
-0.0397763
-0.0602293
-0.0506134
-0.0509977
-0.0564275
-0.0569253
-0.0624223
-0.0530105
-0.0535984
-0.0642762
-0.065136
-0.0460858
-0.0471272
-0.0532808
-0.0694571
-0.0556788
-0.046833
-0.0581002
-0.0643902
-0.0656114
-0.0568337
-0.0530105
-0.0691185
-0.0651588
-0.0510869
-0.0519924
-0.0728068
-0.0683951
-0.0487795
-0.0439835
-0.0591869
-0.0493455
-0.0394816
-0.0245948
-0.0245948
0.00540447
0.0655184
0.225655
0.605745
0.955835
0.825949
0.471063
0.351109
0.351176
0.36629
0.371336
0.371358
0.376403
0.386426
0.396404
0.381426
0.356403
0.371336
0.366245
0.361177
0.301087
0.261042
0.201042
0.116109
0.0360641
-0.0289583
-0.114004
-0.228982
-0.308937
-0.303915
-0.238848
-0.18887
-0.173893
-0.184006
-0.184073
-0.189052
-0.174052
-0.174052
-0.129029
-0.0740519
-0.064075
-0.0890751
-0.109007
-0.0938945
-0.0937366
-0.118578
-0.123533
-0.113465
-0.0983071
-0.108239
-0.0932164
-0.0831709
-0.0781031
-0.0830569
-0.0879898
-0.0729446
-0.0878997
-0.0828991
-0.0828991
-0.0829444
-0.0778995
-0.0828538
-0.0878763
-0.0879445
-0.0879669
-0.0780578
-0.0981483
-0.0831709
-0.0731936
-0.0682387
-0.0732837
-0.0783968
-0.0734653
-0.0585103
-0.063623
-0.0587816
-0.0438485
-0.029007
-0.0390978
-0.0492334
-0.0294142
-0.0195279
-0.0146627
-0.0247984
4.29153e-05
0.04493
0.0498166
0.0597043
0.069592
0.0945244
0.109411
0.10432
0.124207
0.149072
0.148959
0.143778
0.14853
0.153395
0.158258
0.1431
0.137988
0.142852
0.112626
0.082355
0.0571289
0.0619478
0.0766764
0.0614495
0.0412235
0.0410199
0.0406346
0.0200009
0.00341654
0.000520706
0.00880098
0.00522709
-0.0128722
-0.00748825
-0.0127139
-0.0179405
-0.0231891
-0.0234609
-0.0237551
-0.0189815
-0.0292087
-0.0342765
-0.0243444
-0.0194798
-0.0196385
-0.0347967
-0.0247736
-0.0196371
-0.0342526
-0.0537095
-0.0334153
-0.0277371
-0.0418997
-0.0561304
-0.0508137
-0.0509944
-0.0563111
-0.0514245
-0.0413117
-0.0261078
-0.0309491
-0.0509267
-0.0611076
-0.0463114
-0.0566506
-0.0619445
-0.0620131
-0.0619226
-0.0718994
-0.0870132
-0.0921712
-0.0922847
-0.0675116
-0.0728054
-0.113123
-0.0883937
-0.0736189
-0.0838232
-0.0941167
-0.0844111
-0.0897055
-0.0799756
-0.0900664
-0.0853143
-0.075563
-0.070857
-0.0912189
-0.09658
-0.0720105
-0.0674171
-0.0778022
-0.0730968
-0.0682774
-0.078639
-0.0840693
-0.0945897
-0.0800424
-0.0604501
-0.0709252
-0.0814233
-0.071876
-0.0573058
-0.0677357
-0.0681214
-0.0735517
-0.0641394
-0.0598631
-0.0755877
-0.0762434
-0.066854
-0.0624652
-0.0830302
-0.0834608
-0.0639129
-0.0643883
-0.0799308
-0.0853844
-0.0757241
-0.0610414
-0.0663357
-0.0766292
-0.0620599
-0.0376024
-0.0581679
-0.0736656
-0.0641408
-0.0595255
-0.0549316
-0.0553842
-0.0409045
-0.0314698
-0.0371485
-0.0327368
-0.0331669
-0.0235062
-0.0138006
0.0258379
0.110476
0.380023
0.829548
0.949163
0.603914
0.368732
0.348484
0.363054
0.362465
0.381923
0.391538
0.396153
0.385723
0.395316
0.369908
0.354478
0.344003
0.363596
0.358324
0.313052
0.227736
0.132418
0.037034
0.00655842
-0.158735
-0.258961
-0.329232
-0.344526
-0.314957
-0.280522
-0.26102
-0.261382
-0.266631
-0.266811
-0.23706
-0.197467
-0.177964
-0.148372
-0.113824
-0.109232
-0.134549
-0.144956
-0.135431
-0.110929
-0.121427
-0.121902
-0.112287
-0.097693
-0.0932589
-0.113689
-0.104028
-0.0743904
-0.0697527
-0.0751143
-0.0855665
-0.110996
-0.0913587
-0.0867429
-0.0770597
-0.062376
-0.0577607
-0.0481229
-0.0584168
-0.0637107
-0.0840497
-0.0993218
-0.0795927
-0.0499091
-0.0202713
-0.0306568
-0.0459957
-0.0361991
-0.0264249
-0.0216513
-0.0318775
-0.0270805
-0.0223293
0.00248957
0.0272412
0.0469694
0.066721
0.0614491
0.0561781
0.0459294
0.0607934
0.0755224
0.0851822
0.0999112
0.124661
0.129368
0.119051
0.108734
0.123463
0.148214
0.177966
0.197717
0.207581
0.197355
0.197061
0.161698
0.161291
0.175748
0.159956
0.138191
0.1343
0.114663
0.0916986
0.0547075
0.0227847
0.0357709
0.0339613
0.0324459
0.0220385
0.00362253
-0.0141602
-0.0333681
-0.0386395
0.00599813
0.0357714
0.0206585
-0.0192509
-0.0188885
-0.00807428
-0.0068078
-0.015202
-0.013392
0.00887012
0.00165319
-0.0253377
-0.0374188
-0.014863
-0.00769138
-0.00590324
-0.00450087
-0.0231204
-0.0325098
-0.0375099
-0.0479398
-0.0135064
0.0159287
-0.00450134
-0.0298629
-0.0452476
-0.045609
-0.0358801
-0.0210156
-0.0109701
-0.0158796
-0.0156984
-0.0304041
-0.0501094
-0.0299511
-0.0248828
-0.03477
-0.0395217
-0.0443406
-0.0391369
-0.0388885
-0.0435944
-0.0482779
-0.0529838
-0.0576673
-0.0672827
-0.0568533
-0.041378
-0.035903
-0.0606313
-0.050292
-0.0549297
-0.0494547
-0.0539799
-0.0634813
-0.052916
-0.0473952
-0.0469656
-0.0566497
-0.0514002
-0.0511289
-0.0457897
-0.0503602
-0.0450211
-0.0547271
-0.0594549
-0.0692749
-0.0590253
-0.0488896
-0.0488219
-0.0638442
-0.0537992
-0.0387316
-0.0386186
-0.0485272
-0.0485497
-0.0436172
-0.0637302
-0.053844
-0.0389342
-0.0340033
-0.0390253
-0.0440483
-0.0440707
-0.0341163
-0.0290942
-0.0389352
-0.0487103
-0.0332575
-0.0326467
-0.0319676
-0.031311
-0.00556421
0.0101371
0.0458837
0.10172
0.332513
0.813259
0.974052
0.609775
0.395385
0.390883
0.42129
0.41672
0.437128
0.46258
0.473078
0.453464
0.423712
0.423915
0.424165
0.409595
0.385092
0.360567
0.310907
0.216269
0.106608
0.0419931
-0.0276003
-0.142238
-0.266786
-0.296378
-0.281061
-0.245811
-0.245472
-0.255133
-0.264703
-0.28925
-0.283911
-0.248593
-0.223299
-0.207983
-0.177508
-0.171965
-0.166399
-0.16088
-0.170518
-0.190225
-0.189841
-0.189321
-0.178801
-0.168326
-0.157806
-0.152331
-0.146946
-0.136471
-0.135973
-0.140566
-0.135136
-0.139752
-0.139344
-0.133892
-0.133484
-0.148099
-0.142715
-0.127331
-0.13199
-0.146651
-0.156312
-0.135881
-0.130519
-0.130157
-0.144863
-0.129478
-0.129139
-0.133845
-0.133552
-0.118212
-0.112895
-0.112624
-0.0973754
-0.0821266
-0.0718551
-0.0615602
-0.0663118
-0.0510859
-0.0208368
-0.0306559
-0.01543
0.00477457
0.0299554
0.0401144
0.0602736
0.0704317
0.095613
0.115749
0.120795
0.120659
0.135185
0.144145
0.146181
0.146406
0.167718
0.170682
0.164053
0.137243
0.120388
0.128419
0.106315
0.0891876
0.0819931
0.0748448
0.0527635
0.0256596
0.0135779
0.00672293
0.000229836
-0.0101547
-0.017982
-0.0145435
-0.0073719
-0.0158563
-0.0237975
-0.0111728
-0.00354862
-0.0110373
-0.0285263
-0.0209017
-0.00823259
-0.0155401
-0.0277572
-0.0199518
-0.00216866
-0.00954437
-0.0171461
-0.0199509
-0.0031867
-0.0118737
-0.0258555
-0.0151315
-0.0148597
-0.0150642
-0.0254941
-0.0259695
-0.0262861
-0.0215125
-0.0418973
-0.0473723
-0.0429378
-0.0484581
-0.0488877
-0.0642042
-0.0644083
-0.0494761
-0.0745435
-0.0896354
-0.0696807
-0.0547256
-0.0648389
-0.0799966
-0.070178
-0.0652461
-0.0752683
-0.0802913
-0.0802908
-0.0802679
-0.0801778
-0.070178
-0.080246
-0.0752912
-0.0754042
-0.0855403
-0.0807672
-0.0810161
-0.0863109
-0.0916057
-0.0919671
-0.0823965
-0.0679393
-0.0836182
-0.0942745
-0.0849752
-0.0756769
-0.0915365
-0.0873961
-0.088346
-0.0793185
-0.0853143
-0.0813332
-0.0823507
-0.0733914
-0.074296
-0.0751786
-0.0859938
-0.0717621
-0.0775089
-0.0881195
-0.0836177
-0.0841608
-0.0695233
-0.0647497
-0.0749083
-0.0650001
-0.0499773
-0.0548863
-0.0547509
-0.0344801
0.0109501
0.0663567
0.201786
0.642261
1.04783
0.803438
0.434094
0.344774
0.395498
0.411154
0.42672
0.447286
0.467806
0.483282
0.473735
0.459164
0.489526
0.499821
0.485023
0.460159
0.44534
0.360544
0.240681
0.155725
0.0857701
-0.0392299
-0.13432
-0.139365
-0.0943651
-0.069365
-0.0845008
-0.114705
-0.149863
-0.169953
-0.175089
-0.185225
-0.17527
-0.150292
-0.15527
-0.155292
-0.165247
-0.165202
-0.170224
-0.185201
-0.205246
-0.185178
-0.16011
-0.160065
-0.179996
-0.154905
-0.144838
-0.149771
-0.154747
-0.139748
-0.139726
-0.149726
-0.149772
-0.144795
-0.134886
-0.139999
-0.150023
-0.155023
-0.145023
-0.140046
-0.155092
-0.155092
-0.145092
-0.145138
-0.145205
-0.150319
-0.130409
-0.120409
-0.120387
-0.11041
-0.105455
-0.0805912
-0.0757718
-0.0809746
-0.0762005
-0.0464034
-0.0366297
-0.0268092
-0.00692272
0.00791931
0.0226932
0.0224218
0.0422187
0.056993
0.0768118
0.0765629
0.0813818
0.101201
0.106043
0.110748
0.0953865
0.104933
0.0993223
0.0983496
0.086132
0.0682807
0.0689588
0.0662661
0.0391846
0.0271473
0.0350885
0.0280299
0.0208578
0.0136857
0.0264697
0.0143876
-0.0175123
-0.0141416
-0.00554371
-0.00642633
-0.0203409
-0.0223317
-0.00536346
-0.00477552
-0.0191646
-0.0279665
-0.0214047
-0.00918674
-0.016449
-0.0185976
-0.01577
-0.0133042
-0.0159059
-0.0232811
-0.0104756
0.00239801
-0.0096159
-0.0216527
-0.0142093
0.0076685
0.0141392
0.0151796
0.0255871
0.025588
0.0206785
0.0109959
0.0214257
0.0418787
0.0421963
0.0171962
0.0120602
0.0168791
0.0116749
-0.00352859
-0.0237098
-0.0189586
-0.0190945
-0.0293217
-0.0295486
-0.0298204
-0.0152054
-0.0406575
-0.0511336
-0.0464725
-0.0517445
-0.0520835
-0.0674458
-0.0728755
-0.0583501
-0.0587802
-0.0641193
-0.0745945
-0.0651598
-0.0556121
-0.0660868
-0.0766749
-0.077354
-0.0680094
-0.0786886
-0.0893674
-0.0750241
-0.0808611
-0.0918112
-0.0878296
-0.0840287
-0.0752511
-0.0814953
-0.0926037
-0.108667
-0.0947766
-0.0909071
-0.0821514
-0.0682154
-0.0641427
-0.0650477
-0.0760894
-0.0720167
-0.0728087
-0.0735326
-0.0792565
-0.0750027
-0.0555682
-0.0609989
-0.071269
-0.0764732
-0.061564
-0.0666313
-0.071631
-0.0715852
-0.0413818
-0.0160871
0.00404882
0.0391397
0.109185
0.399343
0.53448
0.849458
0.494503
0.359661
0.364751
0.37466
0.364503
0.3993
0.414209
0.419163
0.389163
0.369117
0.353935
0.358777
0.378596
0.383415
0.363212
0.347986
0.28285
0.187759
0.1076
0.0423732
-0.0878525
-0.182988
-0.188102
-0.168214
-0.0983953
-0.098599
-0.118826
-0.149007
-0.179211
-0.229393
-0.23955
-0.209754
-0.204957
-0.200093
-0.175206
-0.160229
-0.165206
-0.190161
-0.195138
-0.195228
-0.215273
-0.215296
-0.180273
-0.170386
-0.165522
-0.170726
-0.160952
-0.141246
-0.131608
-0.156994
-0.147356
-0.147696
-0.143012
-0.133375
-0.13869
-0.114008
-0.119324
-0.134551
-0.139776
-0.109934
-0.0850921
-0.0803175
-0.0955443
-0.10077
-0.0710406
-0.0613117
-0.0865149
-0.076673
-0.0418534
-0.0270348
-0.0422153
-0.0424418
-0.0326452
-0.0328493
-0.00802946
0.0167894
0.0415859
0.0814729
0.0863147
0.0862017
0.0760436
0.0758858
0.0855908
0.100343
0.130048
0.114822
0.0894818
0.0788717
0.113125
0.114776
0.0906577
0.0828524
0.101019
0.119142
0.0921273
0.0600238
0.0427837
0.0403852
0.0328069
0.0252047
0.012557
0.0198421
-0.0129409
-0.030746
-0.0134835
0.00395918
0.00671959
-0.0199094
-0.0248418
-0.00373316
-0.0108824
-0.0340724
-0.0422621
-0.010293
0.0168791
0.0238705
-0.00402546
-0.0167856
-0.00929689
-0.00676298
-0.00416088
-0.00164938
0.0158849
0.0185542
0.0112472
0.0138712
0.0114059
0.00371313
0.00556803
0.0121284
0.0184178
0.00923204
-0.00549698
-0.0103388
0.00488663
0.0104518
0.0109496
-0.00864315
0.00662851
0.0117869
-0.00828028
-0.0134835
-0.00857401
-0.00355053
-0.00348186
-0.0233011
-0.0230742
-0.0278473
-0.0276437
-0.0124626
-0.0123501
0.00273991
-0.0071249
-0.00192165
-0.00171757
0.0185084
0.0186896
0.0188708
0.0140738
0.0242772
0.0193906
0.00445795
-0.000564098
0.00939035
0.0143909
-0.0106997
-0.0207677
-0.0359492
-0.0412207
-0.0565381
-0.0718546
-0.0621262
-0.0474205
-0.0477819
-0.0432343
-0.0536423
-0.0590048
-0.0593896
-0.0647736
-0.0750685
-0.0752501
-0.0554314
-0.0706129
-0.080771
-0.0709295
-0.0758848
-0.0807261
-0.0955
-0.08007
-0.079504
-0.0739155
-0.0833945
-0.0678515
-0.0622172
-0.0464931
-0.0506558
-0.00988579
0.0558157
0.0865626
0.6524
0.828237
0.539029
0.324798
0.330658
0.366564
0.407401
0.43317
0.458804
0.494392
0.514958
0.520569
0.531157
0.5467
0.582063
0.592447
0.572922
0.538398
0.473917
0.389369
0.294867
0.225365
0.100795
-0.0338435
-0.0634589
-0.0979838
-0.0673952
-0.0567617
-0.0711522
-0.120654
-0.160201
-0.194681
-0.189093
-0.188595
-0.198052
-0.197441
-0.20183
-0.19622
-0.210722
-0.205269
-0.219681
-0.224093
-0.248506
-0.222918
-0.202398
-0.196832
-0.20129
-0.18568
-0.185001
-0.18439
-0.188758
-0.188192
-0.167649
-0.162106
-0.181562
-0.186042
-0.1855
-0.179979
-0.184459
-0.204006
-0.203554
-0.187965
-0.202354
-0.21172
-0.19111
-0.180454
-0.179775
-0.174051
-0.163327
-0.147626
-0.137015
-0.141449
-0.120929
-0.100476
-0.0900006
-0.0895939
-0.0742311
-0.0540051
-0.0337334
-0.0285525
-0.0234847
0.00653887
0.0215158
0.0314708
0.0313578
0.0461087
0.0653162
0.0624657
0.0381227
0.0437102
0.0569005
0.0453391
0.0285292
0.0267191
0.029819
0.0277829
0.00563335
0.00343943
0.0112448
0.00393629
-0.0235524
-0.0311995
-0.0288014
-0.0365162
-0.0492082
-0.0566516
-0.05371
-0.0554976
-0.0668545
-0.0874205
-0.0722847
-0.0642762
-0.0705433
-0.0682359
-0.0669007
-0.0552263
-0.0630999
-0.0755663
-0.0577383
-0.0447063
-0.041471
-0.0532136
-0.054842
-0.0313811
-0.0178294
-0.0341187
-0.0302725
-0.00638056
-0.0075345
-0.0140953
-0.0261087
-0.00357533
0.0036869
-0.00468349
-0.0187106
-0.00789595
-0.00721741
-0.0114484
-0.0356565
-0.0249104
-0.00936699
-0.0240507
-0.0389371
-0.0188017
-0.0136657
-0.0285764
-0.0385752
-0.0385981
-0.0185528
-0.0185752
-0.0486202
-0.0438008
-0.0389581
-0.0492296
-0.0494781
-0.064682
-0.0448856
-0.0551114
-0.0703154
-0.0756321
-0.0659947
-0.0463796
-0.0618553
-0.0673304
-0.0627604
-0.0533257
-0.058959
-0.0746379
-0.0753384
-0.0661077
-0.0669451
-0.0828724
-0.0887327
-0.0796375
-0.0855427
-0.0914021
-0.0972624
-0.0880313
-0.0887327
-0.0844116
-0.0700903
-0.050633
-0.0461531
-0.0466056
-0.0569673
-0.0322156
-0.0174189
-0.0125775
-0.0326447
-0.0275998
-0.007442
-0.0122375
-0.0168991
-0.00151491
0.0288925
0.0593443
0.184818
0.630361
0.955994
0.971537
0.39208
0.327713
0.383346
0.403957
0.409478
0.429953
0.465474
0.470949
0.466379
0.476831
0.532284
0.567714
0.563121
0.578461
0.588777
0.539094
0.469343
0.404592
0.349931
0.240316
0.115611
0.0457911
0.0610399
0.0862894
0.0866284
0.0169454
-0.0477376
-0.097466
-0.137239
-0.156968
-0.166606
-0.151154
-0.170723
-0.180384
-0.185021
-0.184614
-0.204207
-0.233868
-0.258438
-0.233008
-0.217511
-0.212081
-0.221628
-0.206153
-0.195655
-0.190271
-0.194863
-0.184434
-0.178981
-0.183574
-0.188167
-0.177714
-0.167352
-0.167013
-0.166627
-0.166243
-0.145881
-0.145496
-0.155225
-0.154885
-0.144433
-0.129071
-0.138777
-0.138482
-0.118279
-0.108007
-0.102781
-0.10251
-0.0923057
-0.0670791
-0.0569663
-0.0568533
-0.0366044
-0.0163326
-0.0210609
-0.0108347
-0.000676155
0.00952673
0.019731
0.0298667
0.0249796
0.0451384
0.0452967
0.0404549
0.0306587
0.0407495
0.0508623
0.030817
0.0207715
0.0256581
0.0404325
0.0200701
0.00930119
0.0119028
0.00764942
-0.0111513
-0.0231652
-0.0196357
-0.0210614
-0.0275779
-0.049026
-0.0554743
-0.0570579
-0.0537767
-0.0503831
-0.0617404
-0.0528946
-0.0485277
-0.0672832
-0.0645003
-0.0513783
-0.0554962
-0.064455
-0.0728264
-0.0510163
-0.0334373
-0.0401793
-0.046423
-0.0326457
-0.0240479
-0.0254965
-0.0417409
-0.0378499
-0.0140038
-0.0101347
-0.0163794
-0.00296307
0.00500107
-0.012464
-0.0302696
-0.0285273
0.0128522
0.00398302
-0.00486279
-0.023551
-0.0171709
-0.00610781
-0.00545216
-0.0100455
-0.00479603
-0.0146146
-0.0345025
-0.0444117
-0.0294118
-0.0144114
-0.0144801
-0.0346379
-0.019886
-0.0202255
-0.0255876
-0.050837
-0.0510402
-0.0362668
-0.0364933
-0.0517201
-0.0419903
-0.0373073
-0.0426912
-0.053031
-0.0683918
-0.0586634
-0.0539346
-0.0493188
-0.059772
-0.0502472
-0.0455861
-0.055903
-0.0712428
-0.0466952
-0.0421939
-0.0676913
-0.0783024
-0.0589132
-0.0546141
-0.0452933
-0.0609713
-0.0667181
-0.0574641
-0.0532565
-0.0740261
-0.0547276
-0.0454068
-0.0560861
-0.0767188
-0.0823302
-0.0680089
-0.0435295
-0.0589142
-0.074276
-0.0595922
-0.044909
-0.0552716
-0.070611
-0.0758605
-0.0760188
-0.056222
-0.0663576
-0.0363803
-0.0263572
-0.0113802
0.01862
0.0636659
0.173711
0.538779
0.948802
0.838689
0.468507
0.36344
0.358395
0.358282
0.348124
0.367897
0.392647
0.417422
0.40724
0.382172
0.367014
0.376833
0.406721
0.39154
0.331381
0.246223
0.14602
0.0708156
0.0505896
-0.114501
-0.244546
-0.319591
-0.319683
-0.284706
-0.264751
-0.254819
-0.249955
-0.245113
-0.235137
-0.20016
-0.175228
-0.145273
-0.115295
-0.0954094
-0.105522
-0.150636
-0.165523
-0.155455
-0.165431
-0.180432
-0.180431
-0.155409
-0.15034
-0.155317
-0.160272
-0.155249
-0.135249
-0.135294
-0.145317
-0.135317
-0.115204
-0.115159
-0.125091
-0.145022
-0.145
-0.140046
-0.130091
-0.140091
-0.125091
-0.105046
-0.0900006
-0.079978
-0.079978
-0.0700006
-0.095046
-0.100113
-0.0651135
-0.0400457
-0.0350008
-0.0650005
-0.0699553
-0.0449095
-0.0198412
-0.0197959
-0.0197277
0.0152497
0.0301814
0.0402269
0.0352039
0.055295
0.0803628
0.0853853
0.0953851
0.100385
0.110407
0.115498
0.115612
0.125657
0.140679
0.150702
0.12568
0.105748
0.11077
0.11077
0.12077
0.125771
0.14068
0.120476
0.0949779
0.094028
0.0866065
0.067286
0.0333714
0.0310411
0.0294352
0.0329647
0.0115843
-0.0043211
0.0113802
0.0438466
0.0457473
0.0108829
0.0106792
0.0254765
0.0302949
0.0249567
0.0247989
0.0198879
0.0152044
-0.00434303
0.00635815
0.0223985
0.0138006
0.0106788
0.00807619
0.0206103
0.0278735
0.0195704
0.0157695
0.00692368
0.012444
0.00246716
0.00215054
-0.00312138
0.00681019
0.00662947
0.00128984
0.00590515
-0.0044117
-0.00468302
-0.00486422
6.86646e-05
0.000204563
0.000566483
-0.0190492
-0.0187774
-0.0286646
-0.0286422
-0.0285745
-0.043642
-0.0387778
-0.0338464
-0.0437779
-0.0386419
-0.0384607
-0.0431666
-0.0578728
-0.0575109
-0.0471702
-0.0367851
-0.0613322
-0.0657887
-0.0552464
-0.054636
-0.0490708
-0.0585499
-0.0579395
-0.0522614
-0.0515828
-0.0758815
-0.0650902
-0.0541625
-0.0531893
-0.0572391
-0.0662665
-0.0505195
-0.0597506
-0.068891
-0.0730085
-0.0521488
-0.0564704
-0.0658817
-0.0852933
-0.0546374
-0.0540495
-0.058507
-0.0580091
-0.0624886
-0.0419912
-0.0565839
-0.0662451
-0.0608377
-0.0454535
-0.040091
-0.0647745
-0.0595479
-0.0542545
-0.0489597
-0.0636654
-0.0683489
-0.0429645
-0.0375571
-0.0423083
-0.0520601
-0.0367198
-0.0212669
-0.0108147
-0.000293732
0.060113
0.160543
0.505995
0.916425
0.856787
0.517103
0.372419
0.37269
0.398007
0.403302
0.41355
0.433845
0.449207
0.469615
0.439954
0.435248
0.43052
0.455949
0.436356
0.406696
0.381968
0.342262
0.26251
0.17276
0.103076
0.0283475
-0.101313
-0.190973
-0.215657
-0.190317
-0.154978
-0.164639
-0.18939
-0.209118
-0.20887
-0.218553
-0.228326
-0.183056
-0.137716
-0.122354
-0.131991
-0.131743
-0.116449
-0.116109
-0.13077
-0.150431
-0.135046
-0.119728
-0.129435
-0.124208
-0.124004
-0.10371
-0.103483
-0.118257
-0.123008
-0.132805
-0.147533
-0.177284
-0.172081
-0.166877
-0.161673
-0.181491
-0.186266
-0.186107
-0.185926
-0.210723
-0.220496
-0.210225
-0.225021
-0.229886
-0.239727
-0.229524
-0.229366
-0.244252
-0.244094
-0.238958
-0.233754
-0.208619
-0.21846
-0.203347
-0.183257
-0.173121
-0.162986
-0.14785
-0.122714
-0.112669
-0.0975332
-0.0874205
-0.0423303
-0.0321488
-0.0170588
-0.00194597
0.0331445
0.0432572
0.053371
0.0684834
0.0836186
0.11371
0.103755
0.1038
0.113822
0.1238
0.118731
0.0887089
0.103663
0.108573
0.088233
0.0727358
0.0767174
0.0741611
0.0749307
0.0414019
0.0348177
0.0354285
0.0378494
0.0199528
0.0204501
0.0302696
0.0250669
0.00984001
0.00461435
0.00947857
0.0245018
0.0145693
-0.0053401
0.00461483
0.0247283
-0.00513649
-0.00475264
0.0109706
0.0219893
0.0131884
0.00450134
0.0160174
0.0174656
0.0185971
-0.000837326
-0.00592804
0.0086422
0.00825739
-0.00192404
-0.00685596
0.00325727
0.00321293
-0.00203609
-0.0173755
-0.00271559
-0.00307703
-0.0182357
-0.0282588
-0.023191
-0.00796461
-0.0177155
-0.0275121
-0.0223989
-0.0222855
-0.0322628
-0.0372634
-0.0321727
-0.0271058
-0.0220828
-0.0421739
-0.0421968
-0.0371513
-0.0370841
-0.0371284
-0.0472651
-0.0425138
-0.0378532
-0.0531921
-0.0535321
-0.0388265
-0.0391197
-0.0494142
-0.0597534
-0.0551152
-0.0604315
-0.0657029
-0.0609055
-0.0461097
-0.0463128
-0.0565386
-0.0717649
-0.0520592
-0.0523977
-0.0477142
-0.068099
-0.0635514
-0.0539141
-0.054276
-0.0596828
-0.0751362
-0.0555439
-0.0609956
-0.0714703
-0.0719004
-0.0623293
-0.0577593
-0.05828
-0.0787101
-0.0641623
-0.0495238
-0.0598636
-0.075089
-0.0703149
-0.0554729
-0.055541
-0.0705409
-0.0554051
-0.0502925
-0.0401568
-0.0449524
-0.0397038
-0.0244775
-0.0142517
-0.00900364
0.0362902
0.0864701
0.216605
0.566786
0.947035
0.852306
0.522511
0.382668
0.392805
0.402918
0.418009
0.423121
0.428257
0.45837
0.463415
0.453461
0.438484
0.443619
0.458732
0.458822
0.418913
0.409071
0.379139
0.284207
0.189297
0.12441
0.0595007
-0.0653858
-0.140251
-0.140115
-0.0899334
-0.0747523
-0.0896392
-0.124481
-0.144322
-0.164322
-0.1843
-0.174187
-0.149006
-0.128779
-0.138621
-0.143485
-0.143304
-0.1281
-0.132942
-0.177965
-0.182987
-0.157987
-0.137965
-0.152942
-0.152965
-0.133032
-0.138101
-0.143123
-0.128191
-0.10319
-0.098258
-0.113349
-0.133394
-0.113462
-0.103462
-0.0935302
-0.103529
-0.0985284
-0.0935969
-0.0986643
-0.11871
-0.12371
-0.113732
-0.108778
-0.14389
-0.164049
-0.16923
-0.184388
-0.189524
-0.194705
-0.184864
-0.170068
-0.175158
-0.180203
-0.160226
-0.140338
-0.135452
-0.145565
-0.1207
-0.0908132
-0.0910625
-0.0712433
-0.0513563
-0.036469
-0.0265822
-0.0117636
0.0180335
0.0428524
0.0575356
0.0521731
0.0618339
0.0714941
0.0809064
0.0749788
0.0682821
0.0645485
0.0594811
0.050703
0.0433502
0.0363369
0.0342779
0.0321283
9.25064e-05
0.00810194
0.00113392
0.00432444
-0.00232744
-0.00825405
-0.0225081
-0.0199289
-0.0325985
-0.0266037
-0.0209703
-0.0149522
-0.028481
-0.031558
-0.024137
-0.0210152
-0.0173502
-0.0185494
-0.00508785
-0.0118523
-0.01373
-0.0256534
-0.0126667
-0.00481606
-0.0120783
-0.00965738
0.00224304
0.00846434
0.00432444
-0.0101318
-0.00520039
-0.00556135
-0.015924
-0.0361276
-0.0263309
-0.0216713
-0.0221009
0.00231028
-0.00850439
-0.0195003
-0.0353379
-0.0510612
-0.0516725
-0.0323286
-0.0431209
-0.0640025
-0.0647945
-0.0205412
-0.00640106
-0.0223742
-0.0383463
-0.0342741
-0.0252466
-0.0261965
-0.032124
-0.0382104
-0.0242724
-0.0352235
-0.0411286
-0.0370793
-0.0431209
-0.0392976
-0.0553832
-0.0514693
-0.0624652
-0.058506
-0.0595918
-0.0607228
-0.0519676
-0.0631437
-0.0693207
-0.0755205
-0.0569
-0.0535283
-0.0552254
-0.056922
-0.0486865
-0.0405192
-0.0573969
-0.064229
-0.0709262
-0.0826006
-0.0844326
-0.0863333
-0.0830073
-0.0745234
-0.0710397
-0.0824876
-0.0688677
-0.0651116
-0.0862432
-0.0972385
-0.0981212
-0.073936
-0.064661
-0.0702496
-0.0607252
-0.0361094
-0.0264273
-0.0366983
0.00307512
0.0829396
0.267894
0.717782
0.997601
0.727466
0.417376
0.35224
0.357036
0.381855
0.371742
0.371425
0.371109
0.380747
0.395452
0.365271
0.345023
0.319706
0.279434
0.244186
0.183938
0.108666
0.0184398
-0.0668316
-0.172102
-0.322397
-0.412713
-0.437939
-0.373211
-0.33846
-0.308777
-0.284094
-0.264411
-0.274615
-0.259751
-0.219955
-0.200204
-0.145453
-0.130658
-0.125839
-0.116066
-0.12627
-0.126518
-0.111745
-0.0970616
-0.0822878
-0.0975137
-0.0826941
-0.0527844
-0.0328746
-0.0580335
-0.0582819
-0.0635753
-0.0638466
-0.039073
-0.0193667
-0.0247054
-0.0400457
-0.060204
-0.0402722
-0.015408
-0.00552034
-0.0107241
-0.0158377
-0.000973701
0.0288906
0.0187092
0.00855112
0.0234151
0.0383015
0.043189
0.0530076
0.0528717
0.062736
0.052578
0.0523286
0.0671248
0.0820122
0.101899
0.0667858
0.0615821
0.0764017
0.121175
0.140971
0.13579
0.130677
0.130541
0.14036
0.145202
0.144907
0.129342
0.11821
0.145382
0.17554
0.141173
0.108616
0.0966029
0.104522
0.11726
0.0849752
0.0775766
0.0650425
0.0524635
0.044929
0.037509
0.0350881
0.0327582
0.0255404
0.00348186
0.00169468
0.000314713
-0.0104551
-0.0355911
-0.0245042
-0.00570345
-0.0100918
-0.0206347
-0.0127387
-0.000227451
-0.00269365
-0.0149107
0.0028944
0.01579
0.0236406
0.0164018
-0.0109062
0.00162697
0.00409269
-0.00359964
-0.0215178
-0.0145497
-0.00273991
-0.00626945
-0.0102286
-0.0146179
-0.00448179
-9.29832e-05
-0.0211792
-0.0174232
-0.0133505
-0.00909805
-0.0147991
-0.0304551
-0.0459757
-0.056519
-0.0520163
-0.0424008
-0.0326276
-0.0375814
-0.0474691
-0.0524011
-0.0522656
-0.0422206
-0.0571518
-0.0570836
-0.0669703
-0.0617666
-0.0715404
-0.0662465
-0.0758615
-0.0703859
-0.0649567
-0.0696173
-0.0742774
-0.0639381
-0.0584183
-0.0678072
-0.0672412
-0.0618114
-0.0664716
-0.0661092
-0.0857248
-0.0603404
-0.0699787
-0.0647745
-0.0695257
-0.0641856
-0.0539827
-0.068892
-0.0788469
-0.0737567
-0.0636888
-0.068553
-0.0834622
-0.0733938
-0.0633936
-0.0683713
-0.0883031
-0.0881906
-0.077919
-0.0677609
-0.0776253
-0.0723987
-0.0569463
-0.0563574
-0.0707693
-0.0651579
-0.0445924
-0.0388908
-0.0231438
0.0325575
0.153191
0.518915
0.964729
0.86068
0.466494
0.35724
0.377964
0.408687
0.429501
0.460225
0.470927
0.471537
0.462124
0.462713
0.473324
0.448867
0.434478
0.425066
0.375564
0.276039
0.181469
0.121944
0.0373297
-0.112264
-0.231879
-0.246518
-0.21111
-0.19068
-0.190273
-0.219865
-0.234481
-0.254028
-0.243554
-0.213033
-0.182513
-0.177105
-0.181698
-0.171245
-0.160792
-0.170408
-0.195069
-0.194616
-0.189164
-0.178711
-0.178304
-0.162919
-0.14749
-0.137104
-0.141765
-0.146403
-0.126018
-0.110566
-0.120203
-0.124932
-0.119706
-0.104412
-0.119095
-0.123778
-0.123484
-0.10819
-0.112917
-0.102714
-0.10742
-0.0921707
-0.0869675
-0.0917859
-0.111605
-0.111447
-0.101265
-0.10113
-0.116016
-0.0958581
-0.100699
-0.100586
-0.11545
-0.115292
-0.110111
-0.0949521
-0.0948167
-0.0797038
-0.059545
-0.0494995
-0.0494089
-0.0193415
-0.0142508
-0.00415993
0.0158849
0.0309753
0.0559978
0.0609756
0.07093
0.0658617
0.0757942
0.0907035
0.0954771
0.0900922
0.0943227
0.0972867
0.0779657
0.0631247
0.0585771
0.0514731
0.0445499
0.03265
0.0257945
0.0138702
0.0219479
-2.0504e-05
-0.0069437
0.00129175
-0.000111103
-0.0311065
-0.0203829
-0.012464
-0.00983953
-0.0238671
-0.0281653
-0.0169215
-0.0201793
-0.0280752
-0.0253158
-0.0119901
-0.0133476
-0.0149088
-0.0217867
-0.00373268
-0.0158591
-0.0130305
-0.0102706
-0.00273609
0.00932264
-0.00923014
-0.0133476
-0.00791788
0.0119691
0.0064497
-0.0191836
-0.0195904
-0.00490713
-0.0102692
-0.020834
-0.0215354
-0.0172815
-0.0229602
-0.0335488
-0.0390925
-0.0295448
-0.0400205
-0.0504498
-0.0558119
-0.0412192
-0.0566721
-0.0621691
-0.0677118
-0.0632095
-0.0486164
-0.0539789
-0.0643635
-0.0496578
-0.0499296
-0.0502005
-0.0704494
-0.0656309
-0.0608344
-0.0610828
-0.0713773
-0.0666494
-0.0569663
-0.0572829
-0.0676455
-0.0680075
-0.0534148
-0.0638447
-0.0693431
-0.0598183
-0.0652714
-0.0608139
-0.0664926
-0.0672841
-0.0680537
-0.0588903
-0.064795
-0.0706773
-0.0666499
-0.0626006
-0.0636415
-0.0797505
-0.0758362
-0.0668545
-0.0678272
-0.0787563
-0.0746155
-0.0604076
-0.0661087
-0.0666742
-0.0721941
-0.0576234
-0.0579176
-0.0581436
-0.0582333
-0.0483012
-0.0331874
-0.0380969
-0.0479836
-0.00775719
0.0375361
0.117786
0.377944
0.883148
1.0084
0.9536
0.403736
0.36885
0.378917
0.368962
0.36894
0.37394
0.404008
0.399007
0.378962
0.353985
0.38403
0.36903
0.32912
0.289278
0.259459
0.209594
0.109707
0.0297966
-0.0301127
-0.145023
-0.259954
-0.329819
-0.294683
-0.224525
-0.199367
-0.184141
-0.189027
-0.183755
-0.183461
-0.178213
-0.137963
-0.0727367
-0.0574884
-0.0872393
-0.116922
-0.106606
-0.121357
-0.121199
-0.110972
-0.0957685
-0.0805202
-0.0902705
-0.0950894
-0.0848856
-0.0647268
-0.0795469
-0.0793657
-0.0793204
-0.0842295
-0.0840936
-0.0989585
-0.0888901
-0.0738225
-0.0736866
-0.0936189
-0.0884376
-0.068347
-0.0783243
-0.0882568
-0.0932117
-0.0781212
-0.0780759
-0.0829854
-0.0779181
-0.0628495
-0.0527596
-0.0577145
-0.0627141
-0.0527143
-0.0377364
-0.0327144
-0.0177145
-0.00769186
0.00233126
0.00246716
0.0175576
0.027648
0.0527387
0.0578294
0.0727611
0.0727391
0.087739
0.102761
0.0976706
0.102444
0.117172
0.116697
0.11586
0.103959
0.10656
0.106311
0.097466
0.0752258
0.0732355
0.0661769
0.0541182
0.0420818
0.0399556
0.0328074
0.0306578
-0.00144672
-0.00336933
-0.00022459
-0.0121703
-0.0240254
-0.0206995
0.00298786
-0.00203419
-0.0245233
-0.0210843
-0.0025773
-0.0010848
0.00574732
0.00287437
0.0150013
0.00192404
-0.0011754
-0.00411701
0.00307751
0.000363827
-0.00228405
-0.0197949
-0.0273743
-0.0350666
-0.0379405
-0.0409493
-0.0391626
-0.0228953
-0.0269675
-0.0362659
-0.0310178
-0.0361981
-0.0416956
-0.0522161
-0.0624871
-0.062623
-0.0527139
-0.0878725
-0.0930767
-0.0782356
-0.068326
-0.0832353
-0.0928736
-0.0874209
-0.0821042
-0.0870147
-0.0969915
-0.0769691
-0.076901
-0.0767884
-0.0966077
-0.0963359
-0.0760422
-0.0858159
-0.0855675
-0.0952511
-0.0850916
-0.0650692
-0.0851817
-0.100272
-0.0852265
-0.0852485
-0.0903168
-0.110452
-0.0906105
-0.100904
-0.0862894
-0.0816064
-0.0769691
-0.0724664
-0.0830998
-0.0938239
-0.0996165
-0.0903854
-0.0911098
-0.106833
-0.0925345
-0.0732365
-0.0740743
-0.0798888
-0.0906358
-0.071269
-0.0867677
-0.0922198
-0.10765
-0.103034
-0.0982833
-0.103578
-0.103758
-0.0688486
-0.0688257
-0.0788937
-0.0889163
-0.0588031
-0.0235538
-0.013237
0.0171022
0.102464
0.347849
0.458189
1.07848
0.773777
0.434049
0.374229
0.389388
0.384705
0.395021
0.415248
0.42027
0.420293
0.420429
0.395406
0.375384
0.385406
0.405384
0.410294
0.410203
0.385339
0.330542
0.250519
0.180406
0.0753608
-0.0345712
-0.0894351
-0.0994353
-0.0545034
-0.0446386
-0.0498652
-0.0851598
-0.125432
-0.165725
-0.165929
-0.166156
-0.181427
-0.181767
-0.182128
-0.187558
-0.172987
-0.178191
-0.188327
-0.203372
-0.223441
-0.223644
-0.183847
-0.168961
-0.174052
-0.169278
-0.159505
-0.144844
-0.155093
-0.165319
-0.165478
-0.160681
-0.165885
-0.166134
-0.146405
-0.121654
-0.136879
-0.147061
-0.147242
-0.1474
-0.152649
-0.167966
-0.158146
-0.153373
-0.148531
-0.12878
-0.0990067
-0.0691199
-0.0793467
-0.109641
-0.109912
-0.0902066
-0.0604553
-0.0557723
-0.046021
-0.021338
-0.0165644
-0.0167451
0.00302839
0.0278244
0.0626216
0.0774174
0.0670557
0.0617161
0.0763764
0.081037
0.0756521
0.100291
0.104861
0.104341
0.0834584
0.0666251
0.0625987
0.062305
0.0481429
0.0304275
0.0481195
0.0458121
0.0283914
0.0159707
0.0334826
0.0359254
0.0183687
-0.0190516
-0.031179
-0.0231247
-0.0298896
-0.0362468
-0.0364046
-0.0209069
-0.0124002
-0.00997925
-0.0087347
-0.00262499
-0.0408154
-0.0484633
-0.035522
0.0128489
0.01122
-0.010613
-0.00264835
0.000292301
-0.00176668
0.00135612
0.0095458
0.0176229
-0.00441313
-0.0216303
0.00579119
0.027782
0.0294108
0.00556517
-0.00387001
0.0214467
0.0468316
0.0475326
0.0632334
0.0737538
0.0740938
0.0743203
0.049252
0.0340939
0.0339575
0.0387759
0.0385942
0.0483685
0.0481415
0.0130057
-0.00706244
-0.037221
-0.027492
-0.00283146
-0.00810289
-0.0383062
-0.0534196
-0.02351
-0.0135098
-0.0234871
-0.048419
-0.0384192
-0.0433965
-0.0484643
-0.0585775
-0.0436902
-0.0338936
-0.0440288
-0.059164
-0.0494804
-0.0498199
-0.0552049
-0.0557251
-0.0412908
-0.0519466
-0.0526705
-0.06844
-0.0592542
-0.0550008
-0.0606565
-0.0562444
-0.0569682
-0.0478277
-0.0436425
-0.0594797
-0.0651593
-0.0608377
-0.0563588
-0.0617881
-0.0672855
-0.0527616
-0.0530329
-0.0631685
-0.073236
-0.0431452
-0.0380774
-0.0379863
-0.0528502
-0.027669
-0.0124202
0.00300932
0.0184402
0.0888476
0.319209
0.789549
1.06487
0.80016
0.485477
0.400749
0.396111
0.421428
0.456654
0.471925
0.477287
0.467627
0.467898
0.438056
0.408214
0.398304
0.393418
0.373553
0.338666
0.293802
0.22896
0.149141
0.119367
-0.020452
-0.145475
-0.265497
-0.340407
-0.335136
-0.289888
-0.24473
-0.264504
-0.284301
-0.314143
-0.308962
-0.278691
-0.253397
-0.238262
-0.213194
-0.197945
-0.187627
-0.187311
-0.167107
-0.166858
-0.191541
-0.216201
-0.205817
-0.170319
-0.164731
-0.17921
-0.153644
-0.133192
-0.137807
-0.142401
-0.14197
-0.131517
-0.135975
-0.1405
-0.160183
-0.149889
-0.139708
-0.144549
-0.159278
-0.134029
-0.138894
-0.148848
-0.163735
-0.1586
-0.153554
-0.148645
-0.163736
-0.143804
-0.128804
-0.133827
-0.113827
-0.108804
-0.0837598
-0.0587587
-0.0637813
-0.053781
-0.0237126
-0.0185318
-0.0133505
0.0117626
0.0269437
0.0420561
0.0471697
0.0572829
0.0723958
0.0926223
0.0927806
0.0829387
0.108119
0.103279
0.108415
0.0835056
0.0885959
0.108686
0.103799
0.0788665
0.0738664
0.093821
0.0736399
0.068346
0.0576906
0.0606084
0.0513783
0.0271931
0.00974989
0.0132565
0.016808
0.00549603
-0.00491142
0.00176382
0.0145454
0.00097084
-0.00409651
-0.00459385
0.00488663
0.00941133
-0.0110869
-0.0116301
-0.00212717
-0.00260305
-0.013124
-0.0235763
0.00124216
-0.00866747
-0.0183277
-0.0125809
-0.00138187
4.33922e-05
-0.0038929
-0.0132818
0.00219393
0.00719309
-0.00330448
-0.0191641
-0.0152726
-0.0160189
-0.0214944
-0.0318117
-0.0271287
-0.0224676
-0.0278974
-0.043395
-0.0437574
-0.0339155
-0.0389152
-0.0538025
-0.0486436
-0.04844
-0.0482593
-0.0681233
-0.0579867
-0.0379868
-0.0480323
-0.058145
-0.0681229
-0.0530553
-0.063055
-0.0629654
-0.0627613
-0.0675802
-0.0673537
-0.0721736
-0.081902
-0.0666757
-0.0664492
-0.0812459
-0.0861101
-0.0709066
-0.070703
-0.0705218
-0.0753188
-0.0702052
-0.0550466
-0.0499568
-0.039957
-0.0349793
-0.0249796
-0.0350251
-0.05516
-0.0602956
-0.050477
-0.0456128
-0.0607486
-0.0659294
-0.0510201
-0.0561552
-0.0763135
-0.101382
-0.0864725
-0.0815849
-0.09654
-0.0965395
-0.0864258
-0.0812898
-0.0861087
-0.105905
-0.0906339
-0.0802941
-0.0799551
-0.0895252
-0.0891185
-0.0736427
-0.0682135
-0.0728292
-0.0823317
-0.0568342
-0.0413365
-0.040885
-0.0203195
0.0351324
0.120676
0.436128
0.896558
0.912011
0.542373
0.347667
0.352939
0.393278
0.423595
0.433889
0.46416
0.499522
0.514862
0.525201
0.525496
0.540789
0.581151
0.6064
0.601582
0.58683
0.597101
0.552395
0.462599
0.39287
0.333074
0.223322
0.088594
-0.00613451
0.00920486
0.0295897
0.0298839
-0.00479889
-0.0194597
-0.0591431
-0.0788946
-0.15369
-0.168464
-0.158261
-0.178012
-0.192831
-0.202582
-0.182288
-0.182085
-0.20188
-0.221654
-0.221451
-0.216202
-0.215976
-0.210817
-0.180659
-0.180501
-0.175297
-0.19007
-0.164798
-0.159504
-0.164278
-0.164074
-0.158893
-0.163689
-0.163508
-0.178372
-0.168259
-0.178055
-0.172874
-0.177693
-0.19258
-0.167467
-0.172377
-0.177263
-0.187172
-0.167059
-0.151856
-0.171652
-0.171471
-0.14629
-0.135973
-0.135656
-0.140294
-0.0999994
-0.0847511
-0.0795021
-0.0692987
-0.064095
-0.0289593
-0.0238013
-0.0185518
-0.00337124
0.00678682
0.0167637
0.0267644
0.0168324
0.0418549
0.0318551
0.0317645
0.0316749
0.0415382
0.046289
0.0310407
0.0207686
0.0254745
0.0250449
0.014502
-0.00119925
0.0126696
0.00509119
-0.00466013
-0.034615
-0.0327821
-0.0398188
-0.036696
-0.0633702
-0.0546365
-0.0444555
-0.0521932
-0.0499983
-0.0495234
-0.0398631
-0.0501337
-0.0553379
-0.0605865
-0.0508132
-0.0608816
-0.0708365
-0.0756326
-0.0652933
-0.0544109
-0.0633025
-0.0566278
-0.039207
-0.0412426
-0.0431657
-0.0552239
-0.0426221
-0.0303597
-0.0231647
-0.0411282
-0.0393634
-0.0280061
-0.0420785
-0.0561733
-0.0452228
-0.0342731
-0.0334582
-0.0378022
-0.0373502
-0.0219202
-0.0267167
-0.0265355
-0.0462861
-0.0261507
-0.036128
-0.0512409
-0.0463543
-0.0464683
-0.0417395
-0.0421467
-0.0676446
-0.0581193
-0.0435939
-0.0440464
-0.0643854
-0.0646791
-0.0499287
-0.0701551
-0.0854259
-0.080698
-0.0610151
-0.0664001
-0.0718069
-0.0672822
-0.0627804
-0.0582557
-0.0838218
-0.0894327
-0.0750437
-0.0606098
-0.07622
-0.0767856
-0.0673518
-0.0630074
-0.0688
-0.0946364
-0.0905418
-0.0715604
-0.0675774
-0.0885048
-0.0844774
-0.0854959
-0.0816045
-0.0925326
-0.0983477
-0.0791397
-0.0749092
-0.0757909
-0.0866275
-0.0924196
-0.0831437
-0.0987773
-0.0843658
-0.0749092
-0.0852938
-0.090724
-0.0861545
-0.0565619
-0.0518565
-0.0471053
-0.0423088
-0.0274215
-0.0125346
-0.00766945
0.0122175
0.0371499
0.0870824
0.186834
0.501517
0.971178
1.041
0.660816
0.410703
0.395476
0.40525
0.399933
0.394662
0.394277
0.42387
0.433598
0.418282
0.407942
0.432626
0.472354
0.47706
0.471743
0.481427
0.461042
0.44068
0.320273
0.284911
0.199548
0.0592089
-0.0661535
-0.10647
-0.0667644
-0.0371037
-0.0525112
-0.107918
-0.133167
-0.183416
-0.228666
-0.22896
-0.209322
-0.199775
-0.200182
-0.205544
-0.185883
-0.1812
-0.196471
-0.221743
-0.231969
-0.237037
-0.232263
-0.222535
-0.202852
-0.183146
-0.183373
-0.168645
-0.158872
-0.139076
-0.139369
-0.139663
-0.139935
-0.135139
-0.145434
-0.15075
-0.171021
-0.136384
-0.131745
-0.127108
-0.112424
-0.10274
-0.0930347
-0.0882835
-0.108532
-0.0787811
-0.0790749
-0.0744138
-0.0897079
-0.0949116
-0.0801601
-0.0853863
-0.0706577
-0.0509295
-0.0211782
0.00855064
0.0132108
0.012939
0.017736
0.0374866
0.0471926
0.0618753
0.061604
0.051333
0.0510392
0.0557899
0.0855637
0.11036
0.105112
0.0947943
0.0895009
0.0891619
0.088913
0.063664
0.0633016
0.087985
0.0726905
0.0474195
0.0371032
0.0367641
0.0211763
0.00518036
-0.00224018
-0.00676489
-0.0212893
-0.0339355
-0.0103836
0.0187111
0.0192089
-0.018302
-0.040678
-0.0497956
-0.0300674
-0.0254302
-0.0306787
-0.0308599
0.0039134
-0.0013361
-0.031404
-0.0212455
-0.00588369
-0.0201364
-0.0339136
-0.0322847
-0.0152483
-0.022646
-0.0145693
-0.0213561
0.00176573
0.00414181
-0.00382185
-0.00217104
0.0188694
0.00454855
-0.00495291
-0.00945568
0.0161104
0.0265617
-0.00321198
-0.0231214
-0.0231895
-0.00341558
-0.00343847
0.00160646
0.00174284
0.00183344
-0.00312042
-0.0130301
-0.0228934
-0.00787067
-0.0228925
-0.0580287
-0.0432324
-0.0133452
-0.0134134
-0.0333905
-0.0433226
-0.0332775
-0.0380735
-0.0428476
-0.0476213
-0.0373726
-0.0270786
-0.0417619
-0.041513
-0.036242
-0.0309477
-0.0307894
-0.0455403
-0.0403371
-0.0300884
-0.0348177
-0.0445466
-0.0492978
-0.0440712
-0.0389128
-0.0537543
-0.048687
-0.0435963
-0.0485954
-0.0537314
-0.0588899
-0.0390935
-0.0342751
-0.044456
-0.0646148
-0.0446825
-0.0397496
-0.0498633
-0.0600214
-0.0451121
-0.0402026
-0.0452027
-0.0552263
-0.055294
-0.0452714
-0.0452266
-0.0500684
-0.0497966
-0.0394797
-0.034163
-0.0388913
-0.0435519
-0.0331898
-0.0179181
-0.0326695
-0.0322852
-0.0069232
0.00834846
0.0185752
0.0787559
0.183938
0.514119
0.984277
1.00432
0.614368
0.399391
0.379549
0.384775
0.415025
0.455115
0.46007
0.46498
0.469979
0.455047
0.43507
0.440047
0.445205
0.435341
0.395364
0.335454
0.240544
0.160567
0.110657
0.0257025
-0.10414
-0.19905
-0.248915
-0.248802
-0.203667
-0.163464
-0.163283
-0.168079
-0.212785
-0.212559
-0.172333
-0.157129
-0.146858
-0.151542
-0.146315
-0.161088
-0.170885
-0.215659
-0.210432
-0.220115
-0.209822
-0.204572
-0.194324
-0.199051
-0.188826
-0.203599
-0.188441
-0.178373
-0.193215
-0.193012
-0.192763
-0.182514
-0.17731
-0.197152
-0.192039
-0.171925
-0.176767
-0.186655
-0.191496
-0.171315
-0.186157
-0.196021
-0.185885
-0.170704
-0.155591
-0.160523
-0.15041
-0.140297
-0.125207
-0.115139
-0.120094
-0.0899577
-0.0699353
-0.0698905
-0.064868
-0.0398455
-0.019846
-0.0148458
-0.00484562
0.0151997
0.0401759
0.0500855
0.0549951
0.0648823
0.0797248
0.0844297
0.0939779
0.0881863
0.0912862
0.087079
0.06183
0.0582781
0.0604043
0.0584817
0.0413995
0.0292501
0.032145
0.0149727
0.00771046
0.000471115
0.00336599
-0.00376034
-0.0159097
-0.0229688
-0.0248694
-0.016521
-0.0324936
-0.0476069
-0.0458417
-0.01652
-0.0215425
-0.0229449
-0.025321
-0.00790024
-0.0105467
-0.013103
-0.00543308
-0.00267363
0.000222683
-0.00688171
0.000743389
0.0131865
0.0106306
0.0130744
0.0104041
0.00764418
0.0246806
0.0263553
-0.00239992
0.00854969
-0.000839233
0.00427485
-0.0010643
-0.00660753
0.0078721
-0.00742245
-0.0125809
-0.0177617
-0.0178976
-0.0181923
-0.0285096
-0.0286007
-0.0185785
-0.0184884
-0.0283756
-0.0482402
-0.0431271
-0.0280366
-0.0281715
-0.0433521
-0.0385556
-0.0287142
-0.0338044
-0.0489173
-0.0490985
-0.0342574
-0.034483
-0.0497546
-0.0550489
-0.0354104
-0.0458169
-0.0663371
-0.0668573
-0.0474005
-0.0431013
-0.0488715
-0.0646405
-0.045455
-0.0464048
-0.0675139
-0.0636678
-0.0549798
-0.0512919
-0.062582
-0.0639167
-0.0501838
-0.0514517
-0.0577402
-0.0640521
-0.0652289
-0.0563145
-0.0723548
-0.0633492
-0.0642099
-0.0550022
-0.0606809
-0.0612922
-0.0667667
-0.0471745
-0.0524464
-0.0476041
-0.0527177
-0.0327625
-0.0226946
-0.022604
-0.002491
0.047668
0.12794
0.368234
0.868483
1.09873
0.733913
0.584116
0.369276
0.404456
0.429638
0.424797
0.43491
0.449977
0.455113
0.440227
0.430272
0.435296
0.440341
0.420341
0.375295
0.28525
0.200182
0.115092
0.0200467
-0.104931
-0.18993
-0.18993
-0.164976
-0.144976
-0.134908
-0.144795
-0.159682
-0.184592
-0.179524
-0.134501
-0.114411
-0.109344
-0.104254
-0.0891638
-0.109005
-0.123938
-0.138847
-0.123666
-0.108599
-0.118621
-0.13878
-0.133869
-0.138869
-0.143937
-0.148914
-0.138959
-0.13396
-0.148891
-0.158915
-0.153983
-0.164119
-0.174323
-0.179503
-0.189662
-0.189775
-0.199934
-0.205159
-0.200363
-0.185543
-0.190791
-0.190994
-0.201108
-0.186267
-0.176515
-0.171763
-0.171899
-0.14699
-0.132104
-0.132285
-0.122467
-0.097693
-0.0879869
-0.0783486
-0.0637565
-0.0440726
-0.0243435
-0.0196819
4.673e-05
0.0297532
0.0592551
0.0786438
0.0678301
0.0716763
0.0938478
0.088757
0.0788927
0.0908608
0.103621
0.0862899
0.0738239
0.0564022
0.0738459
0.0612898
0.0437107
0.021245
0.0288916
0.016561
0.00416231
-0.0181456
-0.0253401
-0.0123534
-0.0189371
-0.0400462
-0.0356345
-0.0257249
-0.0302272
-0.0443444
-0.0531449
-0.0358601
-0.0312667
-0.0304518
-0.0311308
-0.0123067
-0.0144787
-0.0266509
-0.0288687
-0.0111766
-0.0136652
-0.0311542
-0.028688
-0.00635815
-0.00393724
-0.0164256
-0.00893736
0.00341606
0.0155196
0.00712585
-0.00183392
-0.0112228
-0.0010643
-0.00649405
-0.0124435
-0.00837135
-0.00411797
-0.0247288
-0.0404973
-0.0364022
-0.0323296
-0.0283027
-0.0292988
-0.0400906
-0.0257468
-0.0362668
-0.0366964
-0.0570135
-0.0422397
-0.0324435
-0.0528059
-0.0582581
-0.0286212
-0.00902843
-0.0195489
-0.0451145
-0.0356808
-0.0412459
-0.0418787
-0.0575128
-0.0782361
-0.0589604
-0.0497742
-0.0456557
-0.0316963
-0.0277605
-0.0339828
-0.0554085
-0.0668564
-0.0483718
-0.0399551
-0.0465851
-0.0482817
-0.0550466
-0.0668111
-0.0636439
-0.0604544
-0.0621743
-0.0738029
-0.0853648
-0.0968804
-0.0883284
-0.0697088
-0.0709982
-0.0772195
-0.0633507
-0.0343466
-0.0502052
-0.0659966
-0.0666981
-0.0623765
-0.0578742
-0.0332589
-0.00352955
0.0513115
0.131176
0.491086
0.991063
0.956086
0.551176
0.371289
0.386424
0.416537
0.416673
0.43174
0.441852
0.446942
0.43201
0.402009
0.396987
0.406897
0.406852
0.376717
0.341535
0.2414
0.15631
0.0511961
-0.0589395
-0.169097
-0.204256
-0.194368
-0.194504
-0.204662
-0.244798
-0.279911
-0.320001
-0.315046
-0.280114
-0.245227
-0.23034
-0.180363
-0.165431
-0.150544
-0.135611
-0.165679
-0.180747
-0.170792
-0.160769
-0.150769
-0.130746
-0.0907006
-0.080678
-0.0757914
-0.070859
-0.040904
-0.0459261
-0.060904
-0.0709033
-0.0259256
-0.00592613
-0.0159717
-0.0310621
-0.0210848
-0.02104
-0.0310178
-0.0559497
-0.0709047
-0.0807924
-0.120725
-0.140589
-0.120341
-0.0852051
-0.0901146
-0.0900469
-0.0848889
-0.0697312
-0.0746403
-0.0795045
-0.0694361
-0.0593233
-0.0342326
-0.0492549
-0.0392332
-0.0192332
0.00576639
0.000812531
0.0307903
0.0657902
0.0708356
0.0759487
0.086153
0.101244
0.131199
0.141063
0.140974
0.145884
0.155838
0.145702
0.130453
0.114978
0.129231
0.128236
0.111222
0.0971498
0.102422
0.0890732
0.0668106
0.0497961
0.0527825
0.0507464
0.048552
0.0261083
0.0286651
0.031425
0.0242987
0.00728416
0.000655174
0.0108142
0.00343847
-0.0139146
-0.00287342
0.00778341
-0.00108624
-0.0145926
-0.0127831
-0.000294209
-0.00230789
-0.00920868
-0.011313
0.00640202
0.0141172
-0.00312233
-0.000272751
0.00757837
0.0152712
0.00246525
-0.0109282
6.77109e-05
0.0155435
0.0104527
-0.0149322
-0.0202479
-0.000452042
-0.00563335
-0.0160866
-0.0268097
-0.0227599
-0.0237331
-0.0296159
-0.035408
-0.0411315
-0.0366292
-0.0471487
-0.0575786
-0.0379639
-0.0384388
-0.0590491
-0.069705
-0.0552936
-0.0508137
-0.0662885
-0.0716724
-0.0519443
-0.0521479
-0.0623069
-0.0723972
-0.0775557
-0.06776
-0.0828958
-0.10285
-0.0876918
-0.0725331
-0.0823746
-0.0972157
-0.102103
-0.0969896
-0.101989
-0.117125
-0.127351
-0.127781
-0.143301
-0.138799
-0.134229
-0.0997272
-0.100157
-0.110655
-0.121175
-0.121741
-0.112375
-0.122985
-0.133641
-0.12923
-0.119863
-0.105406
-0.100904
-0.0964012
-0.0768085
-0.0870566
-0.117102
-0.142147
-0.142103
-0.106877
-0.0816503
-0.0612206
-0.0757685
-0.085135
-0.0895243
-0.0639353
-0.0383024
0.00233078
0.0528283
0.0984163
0.334005
0.809615
0.955181
0.645746
0.42129
0.396787
0.382217
0.372647
0.408077
0.468575
0.474005
0.454412
0.459842
0.490294
0.485702
0.451019
0.406404
0.366743
0.317036
0.222399
0.132784
0.0831904
0.013598
-0.12104
-0.220768
-0.240429
-0.210112
-0.199772
-0.20441
-0.204025
-0.223663
-0.253346
-0.252961
-0.242644
-0.197328
-0.167033
-0.161761
-0.146422
-0.11606
-0.120766
-0.145518
-0.160223
-0.139953
-0.114636
-0.104365
-0.0941162
-0.078845
-0.0635285
-0.0632353
-0.0629869
-0.0426931
-0.0473766
-0.0421739
-0.0519257
-0.0367212
-0.0165176
-0.021337
-0.0261564
-0.0159974
0.00416088
-0.0106583
-0.0204315
-0.025228
-0.0100474
0.000133991
-0.0047307
-0.0295959
-0.0245051
-0.0294371
-0.0393462
-0.0542331
-0.0441427
-0.0340524
-0.0439849
-0.0440068
-0.0290074
-0.0190744
-0.0141649
-0.0143003
0.000495434
0.0203605
0.0302248
0.0152245
0.0352244
0.0552015
0.0601563
0.0700221
0.0748863
0.0947509
0.104571
0.0993676
0.0890741
0.0988026
0.123395
0.0976267
0.0905452
0.076519
0.0773792
0.059618
0.027627
0.0407491
0.0238938
0.0270157
-0.0150661
-0.00732851
0.00531816
-0.0168986
-0.0340471
-0.0210609
-0.0278478
-0.0294995
-0.0500884
-0.0484819
-0.036015
-0.0395675
-0.0487976
-0.0478702
-0.0419207
-0.0401106
-0.0527806
-0.0551338
-0.0424867
-0.0400658
-0.0476446
-0.0500422
-0.0322371
-0.0344319
-0.0317626
-0.0392957
-0.0421467
-0.0353818
-0.0489564
-0.0628018
-0.0519423
-0.021626
-0.0416718
-0.0467401
-0.0566273
-0.0464463
-0.0463333
-0.0612426
-0.0512652
-0.0614467
-0.0416055
-0.0568089
-0.066854
-0.0517178
-0.0515137
-0.0613103
-0.0709925
-0.0656528
-0.0553136
-0.0551319
-0.0749726
-0.0747008
-0.0643387
-0.0689769
-0.0835247
-0.0829592
-0.0773706
-0.081738
-0.0960588
-0.0804482
-0.0697689
-0.0590682
-0.0782771
-0.0823498
-0.0664229
-0.0554729
-0.0695457
-0.0785503
-0.067646
-0.0617871
-0.0660176
-0.0752707
-0.0695243
-0.0587997
-0.0632563
-0.0778484
-0.0675097
-0.0572381
-0.0621252
-0.077147
-0.077147
-0.0521474
-0.0622163
-0.0623741
-0.0675783
-0.0577364
-0.0578499
-0.067986
-0.0630765
-0.0581446
-0.0581446
-0.0630999
-0.0680327
-0.0478063
-0.0374446
-0.0471048
-0.0466976
-0.0362225
-0.0057025
0.00481844
0.0403395
0.12595
0.436539
0.857105
0.852556
0.523009
0.353462
0.363847
0.384186
0.409481
0.439843
0.470069
0.485296
0.480544
0.490726
0.500952
0.501178
0.516337
0.516563
0.506722
0.461835
0.376971
0.302152
0.24231
0.222469
0.0226045
-0.0572596
-0.0670781
-0.0618968
-0.0317841
-0.0266252
-0.03649
-0.0863767
-0.121196
-0.136083
-0.130902
-0.110676
-0.120563
-0.135449
-0.12536
-0.130315
-0.145202
-0.164977
-0.179819
-0.189661
-0.194548
-0.184435
-0.1793
-0.17421
-0.169052
-0.173962
-0.15378
-0.143644
-0.153599
-0.163486
-0.148351
-0.143192
-0.153101
-0.178011
-0.157898
-0.132739
-0.132626
-0.142581
-0.13249
-0.137422
-0.147354
-0.152331
-0.162308
-0.152263
-0.14224
-0.152194
-0.167172
-0.172104
-0.182081
-0.187104
-0.197059
-0.181991
-0.176923
-0.171877
-0.1719
-0.156855
-0.13681
-0.126787
-0.126787
-0.111787
-0.0768318
-0.066854
-0.0618539
-0.0418992
-0.00196695
0.00298834
-0.0071249
0.00780773
0.0427179
0.0626731
0.0575151
0.0472889
0.0668817
0.0762472
0.0799809
0.0469718
0.0521755
0.0628314
0.0301619
0.00828362
0.0164509
0.0196195
0.0128322
-0.00397778
-0.0157428
-0.00755262
-0.00415945
-0.0253587
-0.0251546
-0.00805092
-0.000946999
-0.0152678
-0.0302906
-0.00501919
-0.00925064
-0.0180283
-0.0263996
-0.0141826
-0.00133181
-0.0030961
-0.0248837
-0.00685215
0.00602055
-0.00608349
-0.00823307
0.00459576
0.0122876
-0.000336647
-0.00343657
-0.00198841
0.009233
0.00959492
-0.0152917
-0.0202012
0.00497913
-0.00459051
-0.00918293
-0.0088892
-0.0087986
0.00113344
-0.0140247
-0.0342054
-0.0142961
-0.00938654
-0.0195222
-0.0246348
-0.0298381
-0.0250874
-0.0303364
-0.0357437
-0.0361733
-0.0266032
-0.0319433
-0.0372825
-0.0426445
-0.0379839
-0.0383005
-0.0435495
-0.0337753
-0.0340924
-0.0394316
-0.0547261
-0.0500884
-0.0454731
-0.040926
-0.0513325
-0.0616727
-0.0470576
-0.0474648
-0.0478497
-0.0633926
-0.0540032
-0.0495915
-0.0602694
-0.0710163
-0.0617628
-0.0475774
-0.0484366
-0.0594544
-0.0555868
-0.0567412
-0.052918
-0.0691404
-0.0754294
-0.0516963
-0.0629187
-0.0690942
-0.0752482
-0.0663118
-0.0573287
-0.0533013
-0.0742064
-0.0700207
-0.0507669
-0.0514917
-0.0720119
-0.0574641
-0.0429163
-0.048347
-0.0586638
-0.0388675
-0.0140262
0.0258389
0.0657701
0.210702
0.600815
0.995814
0.890837
0.515972
0.360994
0.361084
0.351265
0.341446
0.35665
0.376809
0.396945
0.387035
0.382194
0.38233
0.382466
0.377602
0.362782
0.347986
0.2931
0.203281
0.128439
0.0686421
-0.0311322
-0.155906
-0.245679
-0.230386
-0.18016
-0.144912
-0.134686
-0.124528
-0.12928
-0.144008
-0.158737
-0.128533
-0.0882845
-0.0579681
-0.0676737
-0.0923562
-0.0971074
-0.111858
-0.136518
-0.126202
-0.110908
-0.115636
-0.115364
-0.110093
-0.0998211
-0.0995955
-0.109346
-0.114074
-0.108804
-0.0935316
-0.0982375
-0.118034
-0.0978308
-0.102582
-0.107356
-0.11713
-0.111903
-0.101677
-0.101496
-0.111338
-0.106157
-0.100953
-0.0907264
-0.0955009
-0.0903196
-0.0701385
-0.0749798
-0.0848436
-0.0746408
-0.0644822
-0.0543237
-0.0591664
-0.0540524
-0.0238709
-0.018713
-0.0286002
-0.0185099
0.00655842
0.0166259
0.021739
0.0168519
0.0470099
0.0621691
0.062305
0.0573721
0.0825081
0.102599
0.102644
0.0927792
0.097847
0.11296
0.102959
0.0929818
0.0980725
0.118208
0.108275
0.0982533
0.113298
0.108298
0.0981855
0.0879364
0.0974841
0.106919
0.0993629
0.0797253
0.0602236
0.0627127
0.07131
0.0356541
0.0316038
0.0393639
0.031672
0.0272374
-0.00801182
-0.0183063
-0.0135317
-0.023736
-0.0290303
-0.0343018
-0.0144153
-0.0245061
-0.039619
-0.0394826
-0.0239849
-0.0281925
-0.0471745
-0.0407715
-0.0294137
-0.0280557
-0.0471959
-0.0617661
-0.0517659
-0.0421286
-0.0628295
-0.0733275
-0.0634413
-0.0483274
-0.0481462
-0.07301
-0.0678515
-0.0626936
-0.0626259
-0.0774899
-0.0921502
-0.07654
-0.0808845
-0.0903869
-0.0950255
-0.0897317
-0.0945058
-0.0943475
-0.0891204
-0.0889397
-0.0786233
-0.0933294
-0.103035
-0.0877633
-0.0874691
-0.0972199
-0.101948
-0.111608
-0.0862689
-0.0909982
-0.105681
-0.100387
-0.0901155
-0.0949345
-0.0997534
-0.0945721
-0.0843458
-0.0891647
-0.0989838
-0.0938473
-0.0936661
-0.0884628
-0.103327
-0.0931921
-0.0831242
-0.0930567
-0.0930567
-0.10308
-0.0880809
-0.0780807
-0.0931263
-0.103194
-0.083262
-0.0733757
-0.0785332
-0.088624
-0.0887146
-0.0737596
-0.0838718
-0.0939174
-0.0838947
-0.0689173
-0.0789394
-0.0838952
-0.0788045
-0.0736461
-0.0685105
-0.0834198
-0.0632391
-0.0580802
-0.0628538
-0.067605
-0.0722427
-0.0469489
-0.0415864
-0.0311561
-0.0257707
0.0196137
0.0799761
0.100384
0.530769
1.0112
1.00663
0.606991
0.40233
0.382692
0.417941
0.413235
0.408507
0.418711
0.44387
0.45396
0.428983
0.414005
0.448983
0.464006
0.449006
0.434051
0.434073
0.379097
0.299052
0.229051
0.164119
0.0641418
0.0191188
-0.0709486
-0.0360847
-0.00124359
-0.0065155
-0.051764
-0.0670137
-0.0972843
-0.132625
-0.147918
-0.153121
-0.133257
-0.143483
-0.158777
-0.154026
-0.139319
-0.144523
-0.174772
-0.194908
-0.184953
-0.159953
-0.160044
-0.170157
-0.145384
-0.14552
-0.140633
-0.170815
-0.160883
-0.15095
-0.14604
-0.161131
-0.1562
-0.156222
-0.156245
-0.161379
-0.166448
-0.156493
-0.156538
-0.156674
-0.14681
-0.141991
-0.132103
-0.142194
-0.142216
-0.137262
-0.122352
-0.122511
-0.132738
-0.112919
-0.0930538
-0.0831218
-0.0932126
-0.0683708
-0.0534616
-0.048552
-0.0536652
-0.0387778
-0.00391388
0.000928402
0.000837803
0.020792
0.0308142
0.0407243
0.0355654
0.0454068
0.0602031
0.060113
0.0700221
0.0649543
0.0748181
0.0846601
0.0695238
