ekg
0
0
0
0.00285721
0.00111055
-0.01091
-0.0130777
-0.0116673
0.00411749
-0.00684214
-0.012619
-0.021522
-0.0211997
-0.022778
-0.0362072
-0.0474195
-0.0493937
-0.0532846
-0.0667562
-0.090384
-0.083293
-0.0655813
-0.0814443
-0.0803194
-0.0660205
-0.0595102
-0.029057
-0.0109091
0.0144734
0.0613561
0.0890985
0.11246
0.141077
0.189702
0.213189
0.22669
0.249863
0.2732
0.295974
0.308544
0.315556
0.33247
0.343883
0.350517
0.336629
0.337967
0.323925
0.305158
0.261083
0.252424
0.248713
0.19
0.141381
0.112897
0.094358
0.0609465
0.0327425
0.0145206
-0.00359058
-0.0167236
-0.0246701
-0.0428867
-0.0408401
-0.0439768
-0.0620933
-0.060802
-0.0547748
-0.0541482
-0.0636497
-0.0684175
-0.0632277
-0.0582175
-0.0628967
-0.0722108
-0.0713754
-0.065794
-0.0447054
-0.0532579
-0.046433
-0.0243077
-0.0320187
-0.0297241
-0.0175457
-0.00532961
0.00174618
-0.0111403
-0.00904655
0.0137715
0.0174294
0.0144138
-0.00632572
0.00196743
-0.0248652
-0.0482621
-0.0533338
-0.0398688
-0.0280571
-0.0464869
-0.0595679
-0.052412
-0.0450249
-0.0425124
-0.0499997
-0.0524149
-0.0449042
-0.0474176
-0.0599298
-0.0525126
-0.0451384
-0.0479684
-0.0608606
-0.0705891
-0.0653186
-0.070024
-0.0698204
-0.0796623
-0.0796394
-0.0795717
-0.084549
-0.0995708
-0.0946836
-0.0797968
-0.0899997
-0.105317
-0.105679
-0.101108
-0.0966735
-0.10733
-0.103076
-0.0838685
-0.059773
-0.0657463
-0.0516963
-0.0376916
-0.0337553
-0.0248413
-0.0359955
-0.0219684
-0.00791836
-0.00886869
-0.0196605
-0.00536203
-0.000926971
-0.0113797
-0.0416059
-0.0516734
-0.056561
-0.0662661
-0.0657687
-0.0500441
-0.0440493
-0.067873
-0.101515
-0.109954
-0.113167
-0.126312
-0.154389
-0.167489
-0.160542
-0.168733
-0.186946
-0.180227
-0.178666
-0.167286
-0.176064
-0.184978
-0.169028
-0.168169
-0.167399
-0.176721
-0.17111
-0.170522
-0.180024
-0.209617
-0.274232
-0.303938
-0.338644
-0.258373
-0.0981236
0.252102
0.782329
1.30251
1.76267
2.03783
2.04301
1.64814
0.943234
0.268415
-0.141358
-0.281154
-0.265904
-0.165678
-0.0754066
-0.0750899
-0.124773
-0.134433
-0.139071
-0.148664
-0.178235
-0.187828
-0.192376
-0.196946
-0.216449
-0.215951
-0.205499
-0.215001
-0.229458
-0.223893
-0.213395
-0.21792
-0.222445
-0.22197
-0.226494
-0.225928
-0.21543
-0.229932
-0.209435
-0.198959
-0.203416
-0.212895
-0.182398
-0.1819
-0.181492
-0.186063
-0.165679
-0.155226
-0.134773
-0.144434
-0.129072
-0.0987096
-0.0833707
-0.0830083
-0.062624
-0.0273075
-0.00703573
0.00814581
0.043304
0.0783944
0.113349
0.128304
0.148348
0.188529
0.218643
0.228733
0.258824
0.288892
0.31905
0.314141
0.329232
0.354436
0.364731
0.370115
0.360568
0.361065
0.356494
0.34181
0.312015
0.292308
0.267671
0.238145
0.18871
0.154345
0.129933
0.0954313
0.0509291
0.0213819
0.00683451
-0.00280333
-0.0325098
-0.0472383
-0.0520129
-0.0418315
-0.0666056
-0.0764031
-0.071177
-0.0609736
-0.065793
-0.0756345
-0.0754533
-0.0751591
-0.0745482
-0.0785747
-0.0776238
-0.0570579
-0.0572839
-0.0595002
-0.0644097
-0.0620565
-0.0663548
-0.0810151
-0.0942736
-0.0818529
-0.0682559
-0.0648632
-0.0693197
-0.0487309
-0.0252919
-0.0204954
-0.038754
-0.0287089
-0.0191836
-0.02459
-0.0345674
-0.0339794
-0.0232558
-0.0226674
-0.0421696
-0.0516944
-0.0361743
-0.0307446
-0.0454059
-0.0551343
-0.0448852
-0.0496583
-0.0494781
-0.0642743
-0.064116
-0.0589805
-0.0638452
-0.0737319
-0.0686183
-0.0635509
-0.0635509
-0.0935731
-0.0836186
-0.0786185
-0.0837545
-0.0938897
-0.104071
-0.0942736
-0.0945454
-0.109794
-0.100179
-0.100632
-0.0961747
-0.111808
-0.122464
-0.098166
-0.104003
-0.109931
-0.120791
-0.121877
-0.113008
-0.109162
-0.115316
-0.0964699
-0.0875783
-0.0686646
-0.049706
-0.0456786
-0.0465379
-0.0523305
-0.0429864
-0.0234623
-0.00880146
0.0011301
-0.00877905
-0.00348473
0.0120811
0.00284958
-0.0161777
-0.0450459
-0.0436888
-0.0471954
-0.0405884
-0.0439825
-0.0273085
-0.0506568
-0.0740504
-0.0975342
-0.101132
-0.109865
-0.123756
-0.137806
-0.147015
-0.141404
-0.155929
-0.165566
-0.165227
-0.155001
-0.154819
-0.164729
-0.169639
-0.164639
-0.159639
-0.164639
-0.169662
-0.149662
-0.154685
-0.179777
-0.259844
-0.33498
-0.330071
-0.255138
-0.110206
0.264703
0.82968
1.39964
1.84464
2.08463
2.1247
1.39972
0.554748
-0.0451393
-0.245004
-0.249936
-0.169868
-0.069777
-0.0696864
-0.104551
-0.129415
-0.129233
-0.124053
-0.158872
-0.18869
-0.208442
-0.198192
-0.197965
-0.217807
-0.227581
-0.217331
-0.20706
-0.206856
-0.221653
-0.211448
-0.2062
-0.205974
-0.215792
-0.210543
-0.195271
-0.200023
-0.194774
-0.179524
-0.179253
-0.174094
-0.173891
-0.158687
-0.138506
-0.118392
-0.118347
-0.113302
-0.0882339
-0.0581656
-0.043098
-0.0280528
0.0119014
0.0267653
0.0564713
0.0762448
0.110973
0.125724
0.190407
0.2
0.224571
0.259232
0.278892
0.283508
0.313214
0.338033
0.358056
0.348192
0.353351
0.363486
0.353667
0.33387
0.304096
0.299502
0.285
0.220566
0.191155
0.171765
0.147399
0.102942
0.0635529
0.0391636
0.0348201
0.0054307
-0.018959
-0.0284162
-0.0328956
-0.0374894
-0.0571728
-0.0569234
-0.0467653
-0.046607
-0.0514936
-0.051403
-0.041358
-0.0462451
-0.0508142
-0.0552263
-0.0396609
-0.0295248
-0.0352249
-0.0476456
-0.0473957
-0.0394092
-0.0583234
-0.0729389
-0.0667858
-0.0776668
-0.0654049
-0.081378
-0.086627
-0.0665379
-0.0614238
-0.0749993
-0.0658813
-0.0590034
-0.0450215
-0.0549989
-0.0397491
-0.0176229
-0.0242519
-0.0335736
-0.0338221
-0.0240722
-0.0139136
-0.0133257
-0.042738
-0.032331
-0.0319915
-0.0366974
-0.0464253
-0.0462675
-0.0511994
-0.0512223
-0.066268
-0.0613132
-0.0614262
-0.0615396
-0.0817661
-0.0769696
-0.0671735
-0.0723772
-0.0826492
-0.0929656
-0.0832596
-0.0935984
-0.104028
-0.109412
-0.104932
-0.100497
-0.106132
-0.111901
-0.112693
-0.108597
-0.109548
-0.105544
-0.101562
-0.0926471
-0.0988693
-0.115113
-0.106335
-0.102581
-0.0788016
-0.0749555
-0.0511765
-0.0422854
-0.0383492
-0.0493217
-0.0453172
-0.0259733
-0.0115166
-0.0269928
-0.0322866
-0.00242281
-0.0124226
-0.0171733
-0.0417209
-0.0609736
-0.0651593
-0.0641632
-0.0630541
-0.0468774
-0.0356112
-0.0643663
-0.0930996
-0.101878
-0.090837
-0.104887
-0.12905
-0.138326
-0.152692
-0.157195
-0.161878
-0.156585
-0.141358
-0.151268
-0.171223
-0.171224
-0.156202
-0.151247
-0.146337
-0.161405
-0.161495
-0.151609
-0.156745
-0.181858
-0.251971
-0.277153
-0.272378
-0.187582
-0.00769424
0.377125
0.8969
1.39167
1.80649
1.98129
1.80606
1.12588
0.350657
-0.114457
-0.26966
-0.269886
-0.129999
-0.0451121
-0.0752711
-0.115474
-0.13561
-0.1257
-0.135859
-0.171018
-0.186085
-0.191131
-0.186199
-0.19129
-0.201359
-0.196336
-0.196224
-0.191291
-0.201293
-0.191247
-0.181202
-0.191179
-0.201202
-0.201224
-0.186179
-0.186201
-0.191224
-0.201269
-0.166268
-0.161314
-0.161404
-0.176426
-0.151427
-0.13645
-0.141563
-0.141654
-0.116767
-0.111879
-0.0870376
-0.0722637
-0.0424223
-0.0125356
-0.00271654
0.0220346
0.0467854
0.0764909
0.101129
0.115699
0.15027
0.179862
0.204342
0.223822
0.233279
0.257804
0.287397
0.292012
0.301605
0.316288
0.336016
0.325813
0.31079
0.32088
0.315903
0.300812
0.275835
0.250925
0.231128
0.186264
0.161332
0.126513
0.111739
0.0869203
0.047215
0.0225992
0.0129623
0.00812101
-0.0167427
-0.0265388
-0.0213804
-0.0213351
-0.0463343
-0.056448
-0.0415163
-0.0416298
-0.0567656
-0.0518107
-0.0518785
-0.0468106
-0.0564489
-0.0608616
-0.0505447
-0.0457931
-0.0426264
-0.046948
-0.0488257
-0.0528297
-0.0680566
-0.0681701
-0.0707498
-0.064528
-0.0750937
-0.0639625
-0.0610442
-0.0515194
-0.0400486
-0.0366549
-0.027288
-0.0136232
-0.00303411
-0.0108614
-0.00572681
-0.00624704
-0.0117221
-0.00654078
-0.0110202
0.00445461
-0.0102057
-0.0150247
-0.0198212
-0.0146403
-0.0196176
-0.0346622
-0.0397077
-0.03473
-0.0297523
-0.0398431
-0.0600019
-0.0501604
-0.0552735
-0.0654321
-0.0705905
-0.0757709
-0.06602
-0.0712905
-0.0866761
-0.0870376
-0.0824442
-0.0779185
-0.0884619
-0.0989814
-0.0845251
-0.0901361
-0.100996
-0.106878
-0.0978069
-0.0937791
-0.0999331
-0.111155
-0.107467
-0.0887561
-0.100114
-0.116517
-0.107829
-0.0942082
-0.0905881
-0.0820141
-0.0633945
-0.0446153
-0.0358367
-0.0470138
-0.038054
-0.0289817
-0.0196824
-0.0103607
-0.020926
-0.00119781
0.0137787
-0.00115347
-0.0209045
-0.030385
-0.0496836
-0.05896
-0.0580997
-0.0371051
-0.0309968
-0.054956
-0.0839601
-0.0930552
-0.097218
-0.126358
-0.135701
-0.125091
-0.134547
-0.144118
-0.168847
-0.15362
-0.158372
-0.163191
-0.168124
-0.168078
-0.167988
-0.157943
-0.173033
-0.168124
-0.158191
-0.163304
-0.168463
-0.218642
-0.283778
-0.318913
-0.254117
-0.124321
0.210499
0.760341
1.33518
1.79996
2.04478
1.94959
1.3645
0.529391
-0.0956993
-0.290835
-0.300835
-0.135926
-0.0709486
-0.0809493
-0.120903
-0.140926
-0.140881
-0.160768
-0.175678
-0.18561
-0.195541
-0.200452
-0.190271
-0.210136
-0.219978
-0.204865
-0.199708
-0.204527
-0.204346
-0.204188
-0.209053
-0.208917
-0.213826
-0.208691
-0.188464
-0.188328
-0.193237
-0.193169
-0.183101
-0.167965
-0.162897
-0.167829
-0.142739
-0.132716
-0.122694
-0.112648
-0.10758
-0.0775118
-0.0675116
-0.0524898
-0.0125122
0.0173974
0.042284
0.0471029
0.0868535
0.126537
0.151153
0.170723
0.200362
0.239933
0.249412
0.273914
0.298461
0.332986
0.352602
0.342263
0.357082
0.382037
0.382059
0.382172
0.35224
0.357308
0.357489
0.32267
0.273032
0.263485
0.239005
0.199503
0.149954
0.130407
0.110905
0.0764484
0.0370364
0.0276923
0.0132589
0.0136886
-0.0159721
-0.0456553
-0.0354743
-0.0402708
-0.0500665
-0.0649762
-0.0548859
-0.0548406
-0.0646372
-0.0741844
-0.0584831
-0.0478272
-0.0576468
-0.0734839
-0.0547061
-0.0451136
-0.058032
-0.07267
-0.0678277
-0.071877
-0.0828948
-0.095655
-0.0865598
-0.0765142
-0.0761075
-0.0747042
-0.071085
-0.0446372
-0.0408587
-0.0360174
-0.0366282
-0.0197501
-0.0115376
-0.0111303
-0.0316505
-0.0121264
-0.0218101
-0.0211992
-0.0356793
-0.0203404
-0.0300236
-0.0396619
-0.0444579
-0.0343223
-0.0342541
-0.0441628
-0.0591407
-0.054141
-0.0442085
-0.0492764
-0.0643439
-0.0744348
-0.069571
-0.0696845
-0.0797982
-0.0850687
-0.0703402
-0.0756345
-0.105973
-0.106335
-0.0867424
-0.0872169
-0.0977826
-0.118415
-0.109004
-0.0997043
-0.110587
-0.111447
-0.112375
-0.113394
-0.114479
-0.125723
-0.121967
-0.11328
-0.109592
-0.105927
-0.107194
-0.083416
-0.0646605
-0.0558143
-0.0519004
-0.0379181
-0.0338454
-0.0296602
-0.0253172
-0.0209274
-0.0162892
-0.00651598
-0.0164924
-0.00633478
-0.0209045
-0.040339
-0.0645471
-0.0735517
-0.0523295
-0.041131
-0.0547957
-0.063303
-0.0819001
-0.0856104
-0.114321
-0.128167
-0.127103
-0.146153
-0.165317
-0.174571
-0.163983
-0.17344
-0.177942
-0.17758
-0.167241
-0.16697
-0.16688
-0.181744
-0.171631
-0.156518
-0.166518
-0.181585
-0.201631
-0.261721
-0.321856
-0.316969
-0.21206
0.0128269
0.107691
1.01758
1.57744
1.96735
2.07729
1.8272
1.10711
0.322015
-0.123053
-0.268121
-0.218165
-0.103256
-0.0432563
-0.0932789
-0.143256
-0.133279
-0.128211
-0.158165
-0.183098
-0.188031
-0.177895
-0.197827
-0.207714
-0.207579
-0.197443
-0.197308
-0.212128
-0.22206
-0.206947
-0.206789
-0.201631
-0.216496
-0.20636
-0.191247
-0.196111
-0.205998
-0.190862
-0.180726
-0.175612
-0.180521
-0.180476
-0.150409
-0.150341
-0.150205
-0.135159
-0.110159
-0.100182
-0.0902038
-0.0701814
-0.0451589
-0.0402045
-0.0102496
0.0247049
0.0446143
0.0695238
0.0993195
0.123958
0.163596
0.193212
0.217805
0.232352
0.276878
0.291471
0.306018
0.315634
0.33534
0.360091
0.369864
0.369683
0.374638
0.37966
0.379819
0.349999
0.345113
0.325272
0.315385
0.245611
0.230837
0.206109
0.161312
0.111539
0.0868778
0.0623069
0.0277376
0.0131669
-0.0114484
-0.0210643
-0.0157475
-0.0354757
-0.0602946
-0.0551815
-0.0551362
-0.0551586
-0.0852036
-0.0852036
-0.0702939
-0.065362
-0.0804067
-0.0704741
-0.0705194
-0.0704517
-0.0800452
-0.0692987
-0.0436435
-0.0483489
-0.0488701
-0.0510192
-0.045568
-0.0472646
-0.0606136
-0.0795951
-0.0736904
-0.0576496
-0.0713372
-0.0749121
-0.0470386
-0.0328074
-0.0316539
-0.0442562
-0.0343242
-0.0302968
-0.0209308
-0.0409527
-0.0356135
-0.0254326
-0.0204091
-0.0453868
-0.0502281
-0.0451155
-0.0400472
-0.0550027
-0.0598893
-0.0498896
-0.0648894
-0.0649347
-0.0799799
-0.0749583
-0.0599356
-0.0800037
-0.0950265
-0.0850716
-0.0800261
-0.0900946
-0.100117
-0.100116
-0.0851398
-0.0951848
-0.110253
-0.11532
-0.105342
-0.0953202
-0.11041
-0.115409
-0.115409
-0.100431
-0.120409
-0.115363
-0.0953393
-0.105271
-0.115181
-0.120113
-0.110136
-0.100045
-0.099864
-0.0997515
-0.0745935
-0.039412
-0.0392308
-0.0440273
-0.0337558
-0.013484
-0.00321245
-0.0129409
-0.00271511
0.00753403
0.00778294
0.00796366
0.00812197
0.0132804
-0.0115833
-0.0215378
-0.0465608
-0.0465608
-0.0266514
-0.0268097
-0.027081
-0.0423298
-0.0577598
-0.0881896
-0.0986648
-0.114299
-0.119887
-0.130452
-0.146018
-0.156629
-0.167103
-0.172533
-0.187963
-0.193303
-0.173642
-0.178936
-0.184208
-0.179434
-0.164593
-0.184772
-0.170022
-0.175225
-0.170292
-0.165361
-0.170383
-0.210473
-0.275564
-0.335632
-0.325655
-0.260588
-0.100521
0.199524
0.669546
1.14955
1.61961
1.98461
2.10462
1.87964
1.27471
0.534707
0.324708
-0.22527
-0.26527
-0.220292
-0.120359
-0.0653815
-0.0904269
-0.110427
-0.130494
-0.145563
-0.160585
-0.150585
-0.175676
-0.195789
-0.210925
-0.211038
-0.216151
-0.211264
-0.221332
-0.211467
-0.201581
-0.216716
-0.23192
-0.222056
-0.217214
-0.212373
-0.227531
-0.217666
-0.217824
-0.207961
-0.20812
-0.213255
-0.193369
-0.183483
-0.188642
-0.203801
-0.178869
-0.168983
-0.169118
-0.164255
-0.159346
-0.139436
-0.124481
-0.124436
-0.109458
-0.0794582
-0.0545025
-0.0495024
-0.0344796
0.000543118
0.0156565
0.0408378
0.066155
0.101494
0.116856
0.142196
0.15758
0.203032
0.228508
0.239005
0.249526
0.285046
0.315566
0.326041
0.331403
0.356629
0.376742
0.371743
0.361675
0.371675
0.376653
0.361585
0.331336
0.316041
0.300612
0.290137
0.229548
0.198983
0.173508
0.148123
0.102715
0.0671492
0.0565619
0.0409508
0.0203624
-0.0150676
-0.0154071
-0.025701
-0.0409727
-0.0661321
-0.0513344
-0.0463791
-0.071424
-0.0864925
-0.0865149
-0.0714469
-0.0715375
-0.0869441
-0.0876679
-0.0833459
-0.0887313
-0.0834594
-0.0768304
-0.0580525
-0.0620794
-0.0440259
-0.0442972
-0.0238681
-0.00409412
0.00309992
-0.00323582
0.0139813
0.0226464
0.0191622
0.00861883
0.00284958
0.00418472
-0.0052948
-0.0189829
-0.0200458
-0.0230322
-0.0238471
-0.0284853
-0.0280104
-0.01792
-0.0184183
-0.0341191
-0.0396175
-0.0399337
-0.0402508
-0.0456128
-0.0558167
-0.0359745
-0.0361328
-0.0512691
-0.0664039
-0.0565395
-0.0566525
-0.061676
-0.0767665
-0.0718565
-0.0618572
-0.0768795
-0.0918341
-0.0867896
-0.0767217
-0.0866766
-0.091609
-0.0915184
-0.091383
-0.0861793
-0.106043
-0.110862
-0.11059
-0.105296
-0.120024
-0.114661
-0.114208
-0.10871
-0.108235
-0.127647
-0.117013
-0.11129
-0.115543
-0.124729
-0.108892
-0.0980101
-0.102173
-0.116269
-0.110341
-0.104391
-0.103554
-0.102716
-0.0918789
-0.0610194
-0.0552726
-0.0395713
-0.0388923
-0.0233269
-0.0178738
-0.0124898
-0.00221825
0.0229855
0.018054
0.0180087
0.0177603
0.0274205
0.016923
-0.0137324
-0.0495019
-0.0553613
-0.0311985
-0.0320587
-0.0429416
-0.053688
-0.0693221
-0.0950003
-0.110657
-0.111177
-0.121607
-0.132106
-0.15249
-0.157784
-0.148078
-0.153372
-0.178644
-0.183824
-0.178983
-0.169187
-0.169344
-0.169502
-0.15466
-0.154727
-0.159772
-0.164794
-0.154885
-0.159907
-0.194952
-0.275019
-0.310042
-0.269997
-0.160042
0.0749354
0.509958
1.00998
1.16
1.85496
2.00993
1.81489
1.21487
0.519821
0.0247078
-0.225405
-0.275542
-0.210678
-0.0957913
-0.0509048
-0.100995
-0.136108
-0.146334
-0.126538
-0.151741
-0.177013
-0.192148
-0.18733
-0.182511
-0.177736
-0.198008
-0.208234
-0.19346
-0.183687
-0.203936
-0.20414
-0.199389
-0.189637
-0.199908
-0.210112
-0.190361
-0.185565
-0.195723
-0.205926
-0.186084
-0.176265
-0.181447
-0.186696
-0.166899
-0.15708
-0.152238
-0.15742
-0.137601
-0.127715
-0.122873
-0.118032
-0.0981688
-0.0783048
-0.0684624
-0.0535989
-0.0287347
0.00115156
0.0210161
0.0258803
0.0607224
0.0955868
0.125496
0.130405
0.160384
0.195316
0.220181
0.240045
0.254932
0.279797
0.309683
0.309616
0.309457
0.319322
0.349253
0.359141
0.33405
0.338936
0.338778
0.333574
0.283348
0.25319
0.248032
0.202851
0.157625
0.132399
0.127195
0.0869913
0.0518332
0.0416517
0.0314708
0.0163345
-0.00882339
-0.0239139
-0.0290046
-0.0341854
-0.0393887
-0.0445929
-0.054728
-0.0498409
-0.0549307
-0.0700216
-0.0701346
-0.0602026
-0.0552702
-0.060338
-0.0653381
-0.0501118
-0.0499077
-0.0651569
-0.0558128
-0.0470796
-0.0494099
-0.0524416
-0.0605631
-0.0493865
-0.0451336
-0.0383234
-0.0439334
-0.0311279
-0.0128927
-0.0116715
-0.0120559
-0.0130963
-0.00891066
-0.00895596
-0.0287299
-0.0287528
-0.00386572
-0.00886583
-0.0137529
-0.00877523
-0.0188422
-0.00893307
-0.0239778
-0.0290461
-0.00909138
-0.0191808
-0.0243163
-0.0394516
-0.0295424
-0.0296783
-0.034791
-0.0499496
-0.0400848
-0.0452433
-0.0454245
-0.0605602
-0.0707641
-0.060945
-0.0661492
-0.0813527
-0.0865569
-0.071806
-0.0771003
-0.0973721
-0.0976892
-0.0930295
-0.0883918
-0.103822
-0.11432
-0.104817
-0.105315
-0.110882
-0.11656
-0.107261
-0.09794
-0.108664
-0.119433
-0.115157
-0.106017
-0.111854
-0.122692
-0.113461
-0.0992532
-0.0849767
-0.0556335
-0.0562668
-0.0468554
-0.0373755
-0.0378733
-0.0382352
0.00644779
-0.00377798
-0.0189366
-0.00893641
-0.0037322
-0.008461
-0.0280995
-0.0525784
-0.0518999
-0.0412436
-0.0405869
-0.0448856
-0.0443883
-0.0587778
-0.088212
-0.102646
-0.112194
-0.116809
-0.126402
-0.156063
-0.155768
-0.160519
-0.165316
-0.17018
-0.170066
-0.164953
-0.169795
-0.174749
-0.179681
-0.164591
-0.159569
-0.174569
-0.179592
-0.169593
-0.189593
-0.274638
-0.349706
-0.284819
-0.154954
0.0899553
0.559886
1.14977
1.66975
1.97471
1.98964
1.57957
0.81457
0.564548
-0.22543
-0.275407
-0.17034
-0.0752487
-0.0601807
-0.115135
-0.130068
-0.125022
-0.140022
-0.174886
-0.17975
-0.174501
-0.189275
-0.199139
-0.203958
-0.193731
-0.193527
-0.203279
-0.203052
-0.187804
-0.1876
-0.197351
-0.202103
-0.186831
-0.181605
-0.186335
-0.191108
-0.180838
-0.160544
-0.175363
-0.180137
-0.159934
-0.149752
-0.144639
-0.139412
-0.124254
-0.104117
-0.0939817
-0.0938911
-0.0588007
-0.03371
-0.0286646
-0.0237103
0.0111771
0.0559282
0.0706563
0.0803404
0.115046
0.154706
0.164345
0.198915
0.228463
0.263033
0.277512
0.287037
0.30163
0.32138
0.34138
0.351403
0.351448
0.371493
0.371562
0.361742
0.342173
0.33758
0.3331
0.298734
0.25939
0.245069
0.210725
0.171359
0.126947
0.0975804
0.0832596
0.083961
0.0146394
0.000227928
-0.00431967
-0.0189347
-0.038641
-0.0534825
-0.0482564
-0.0531206
-0.0679393
-0.0727811
-0.062397
-0.0615602
-0.0657239
-0.0802717
-0.0650005
-0.0665612
-0.0804524
-0.0867872
-0.0902267
-0.0851359
-0.0950689
-0.107987
-0.107467
-0.0890956
-0.0797515
-0.0898643
-0.0895481
-0.0835304
-0.070724
-0.085114
-0.077014
-0.0474434
-0.0327382
-0.0348878
-0.0354533
-0.0320597
-0.0171051
-0.0273995
-0.0321732
-0.0265174
-0.0157933
-0.0202956
-0.034934
-0.0245271
-0.0291657
-0.033917
-0.0637808
-0.0536222
-0.0435095
-0.0434422
-0.0684643
-0.0684867
-0.0585308
-0.0635085
-0.0735531
-0.0786433
-0.0787106
-0.0788689
-0.0890956
-0.0943217
-0.0945253
-0.0897741
-0.100091
-0.120454
-0.105771
-0.106224
-0.10679
-0.1174
-0.10808
-0.118781
-0.109595
-0.125546
-0.126495
-0.112491
-0.108622
-0.124753
-0.125884
-0.0970831
-0.0833278
-0.0595493
-0.0607486
-0.0419025
-0.0380559
-0.039187
-0.0451822
-0.0262003
-0.0120602
-0.0227842
-0.01335
-0.0138254
-0.0141644
-0.0343461
-0.059391
-0.0642095
-0.0587797
-0.0482364
-0.0524669
-0.0765386
-0.0854754
-0.0893221
-0.128122
-0.141878
-0.140656
-0.149457
-0.163349
-0.182308
-0.171402
-0.170679
-0.180091
-0.189548
-0.18396
-0.178665
-0.178462
-0.178303
-0.168212
-0.143189
-0.168211
-0.178234
-0.188302
-0.188369
-0.243505
-0.348732
-0.348958
-0.259206
-0.224478
0.175318
0.685002
1.23966
1.70939
2.01905
2.01871
1.5834
0.803168
0.0878739
-0.202397
-0.257579
-0.222783
-0.132986
-0.0583034
-0.0885754
-0.118802
-0.139005
-0.154164
-0.154254
-0.164345
-0.184436
-0.214571
-0.209639
-0.219639
-0.219684
-0.219684
-0.224661
-0.209548
-0.214524
-0.219457
-0.229412
-0.209298
-0.209276
-0.214297
-0.214275
-0.19923
-0.189208
-0.184207
-0.209185
-0.194229
-0.16923
-0.174207
-0.164207
-0.154252
-0.139298
-0.139344
-0.134457
-0.124548
-0.104706
-0.0949316
-0.0801806
-0.0604978
-0.0309272
-0.0063796
0.00316811
0.0326257
0.0771275
0.0965166
0.115838
0.145182
0.17957
0.203891
0.223166
0.237601
0.267148
0.307012
0.311923
0.321832
0.351764
0.361674
0.376651
0.376787
0.377037
0.377354
0.372738
0.353168
0.333598
0.324028
0.29439
0.249752
0.225113
0.195544
0.160973
0.121312
0.0815382
0.0668097
0.0519457
0.0219455
-0.0130997
-0.00816727
-0.0282807
-0.0384388
-0.0435524
-0.0433493
-0.0477829
-0.0572624
-0.0621266
-0.0576696
-0.0546608
-0.0590277
-0.070837
-0.084548
-0.0895028
-0.0943446
-0.116947
-0.111064
-0.082603
-0.0833044
-0.0838251
-0.094141
-0.09482
-0.0689607
-0.0706568
-0.0797291
-0.0516739
-0.0271039
-0.0224895
-0.0398202
-0.0155663
0.000473976
-0.00975227
-0.0152268
-0.0155439
0.0145693
0.0151124
-0.0145254
-0.0193672
-0.00925446
-0.0191402
-0.0291181
-0.034163
-0.0242758
-0.0245247
-0.049819
-0.0452256
-0.0505881
-0.0459499
-0.0712891
-0.0666742
-0.0671039
-0.067534
-0.0880318
-0.0985303
-0.0790954
-0.079639
-0.0852489
-0.105927
-0.101607
-0.0972624
-0.0881219
-0.109027
-0.119932
-0.115905
-0.106855
-0.117941
-0.124095
-0.110407
-0.111764
-0.10819
-0.114706
-0.0962667
-0.0828052
-0.0593443
-0.0658822
-0.0573525
-0.0488453
-0.0503163
-0.0416293
-0.0278959
-0.0191412
-0.0252495
-0.0262227
-0.0170827
-0.0228071
-0.0333495
-0.0787115
-0.0887346
-0.0685987
-0.0681915
-0.0625806
-0.0817657
-0.0957928
-0.104617
-0.128372
-0.132037
-0.140634
-0.139185
-0.157782
-0.166425
-0.170204
-0.164073
-0.168032
-0.172104
-0.176404
-0.160815
-0.175386
-0.185046
-0.16973
-0.159526
-0.164504
-0.169526
-0.179685
-0.179843
-0.250024
-0.340273
-0.340567
-0.250906
-0.0961785
0.223459
0.74812
1.29778
1.74246
1.99215
1.95678
1.45145
0.681038
0.0556531
-0.234641
-0.274957
-0.230206
-0.115477
-0.0557718
-0.0859752
-0.111156
-0.111314
-0.136427
-0.14654
-0.151608
-0.176721
-0.181743
-0.191789
-0.191812
-0.19179
-0.196766
-0.216563
-0.206359
-0.191177
-0.201042
-0.215906
-0.195815
-0.190702
-0.195566
-0.19543
-0.180272
-0.165112
-0.174932
-0.174796
-0.184683
-0.159637
-0.154524
-0.159456
-0.154365
-0.134342
-0.11932
-0.129251
-0.114228
-0.0842056
-0.0742731
-0.0743184
-0.054409
-0.0294542
-0.00465822
0.00497913
0.00954914
0.0491867
0.0787568
0.113259
0.127738
0.152173
0.191629
0.211109
0.220634
0.240159
0.269864
0.279638
0.294525
0.319524
0.329525
0.339547
0.354569
0.354615
0.359751
0.360044
0.35043
0.325837
0.316267
0.281606
0.251922
0.20233
0.187782
0.153347
0.133845
0.0892067
0.0745239
0.0547729
0.0350218
0.00515652
-0.00470734
-0.00457191
-0.00448132
-0.0294814
-0.034481
-0.0394354
-0.0241861
-0.0386658
-0.0429192
-0.03758
-0.0478292
-0.0543904
-0.0530553
-0.0440507
-0.0420141
-0.0614486
-0.0711546
-0.0660863
-0.0674667
-0.0706797
-0.0914264
-0.065567
-0.0631685
-0.0589151
-0.0627604
-0.0595932
-0.0351138
-0.0256352
-0.0184631
-0.00975275
0.00119686
0.00599337
-0.00939131
-0.014595
-0.00923252
-0.00353098
-0.0129204
-0.0324678
-0.0220375
-0.00663042
-0.0213361
-0.0360651
-0.0359287
-0.0157475
-0.0305882
-0.0455208
-0.0454521
-0.0553846
-0.0554299
-0.0804753
-0.0754976
-0.0655203
-0.0655651
-0.0806332
-0.0907016
-0.0807924
-0.0859046
-0.110996
-0.111087
-0.106223
-0.0963364
-0.106608
-0.11688
-0.107151
-0.112445
-0.11783
-0.128259
-0.118645
-0.10921
-0.114798
-0.115431
-0.116155
-0.101901
-0.102648
-0.0884171
-0.0641632
-0.0449777
-0.0508604
-0.0466981
-0.0375118
-0.0182357
-0.00891399
-0.00957012
-0.0200911
-0.0105429
0.00407314
-0.0112443
-0.0314484
-0.0465388
-0.0614252
-0.0611081
-0.0556784
-0.0401583
-0.034276
-0.0582356
-0.0920372
-0.100702
-0.109231
-0.122783
-0.14629
-0.149909
-0.148553
-0.157309
-0.176178
-0.18016
-0.164164
-0.163349
-0.172602
-0.176991
-0.161448
-0.160973
-0.180543
-0.180136
-0.164682
-0.15932
-0.174003
-0.223799
-0.288527
-0.323325
-0.248188
-0.128075
0.17697
0.652039
1.16211
1.59211
1.90717
1.96722
1.94731
1.07242
0.372534
-0.0823302
-0.282262
-0.302104
-0.186923
-0.056787
-0.0566282
-0.0964932
-0.131335
-0.126131
-0.130859
-0.145588
-0.180249
-0.179909
-0.17457
-0.184207
-0.198845
-0.208461
-0.198053
-0.192714
-0.212351
-0.196921
-0.196491
-0.19113
-0.205722
-0.210202
-0.18975
-0.189275
-0.193891
-0.188574
-0.178212
-0.167873
-0.177557
-0.187263
-0.161902
-0.15654
-0.156247
-0.150976
-0.140749
-0.125568
-0.125365
-0.130229
-0.105093
-0.0800247
-0.0750923
-0.0752726
-0.0504313
-0.0206118
-0.0157704
0.0139585
0.0336418
0.073348
0.103122
0.107783
0.127489
0.15724
0.177149
0.202262
0.222511
0.252806
0.2781
0.293349
0.298711
0.319163
0.329796
0.335453
0.331086
0.336901
0.34276
0.328575
0.299344
0.280068
0.265837
0.256697
0.192534
0.158348
0.129163
0.0998197
0.0603852
0.0409064
0.0213594
0.0116987
-0.0130076
-0.0377359
-0.0274196
-0.0368762
-0.0510163
-0.0549307
-0.0538898
-0.0435734
-0.0493655
-0.0671945
-0.0723076
-0.0745468
-0.0935287
-0.108325
-0.112466
-0.099412
-0.103032
-0.104231
-0.0944805
-0.0841861
-0.0787106
-0.0873976
-0.0790491
-0.0431671
-0.0402265
-0.0358143
-0.0361314
-0.0164018
-0.0054965
-0.00775862
-0.0120792
-0.00726032
-0.012464
-0.00214815
-0.0162663
-0.0153842
-0.00461435
-0.0139585
-0.0283709
-0.0228281
-0.0273533
-0.0219913
-0.0367212
-0.0463815
-0.0411096
-0.0408611
-0.0557256
-0.0605888
-0.055408
-0.0552497
-0.0701361
-0.0700908
-0.0799994
-0.0849991
-0.0850663
-0.105134
-0.0852237
-0.0803595
-0.0905857
-0.110835
-0.101084
-0.0864458
-0.101899
-0.117374
-0.112917
-0.0984836
-0.0942078
-0.110044
-0.115926
-0.0967865
-0.0878267
-0.0839133
-0.0650663
-0.0312433
-0.0424881
-0.0437546
-0.0599761
-0.0262213
-0.00737524
-0.0185289
-0.0345697
-0.01052
-0.00637913
-0.0171704
-0.037827
-0.0583019
-0.0685053
-0.0835276
-0.0783014
-0.057826
-0.0621467
-0.0712876
-0.110224
-0.123957
-0.10751
-0.130926
-0.154274
-0.16251
-0.165722
-0.168981
-0.177351
-0.190744
-0.169138
-0.157781
-0.181628
-0.180632
-0.169749
-0.169003
-0.168302
-0.167737
-0.162262
-0.156833
-0.176539
-0.246267
-0.321086
-0.355928
-0.345769
-0.195656
0.044435
0.509527
1.01457
1.46462
1.84962
2.04462
1.90462
1.40457
0.619596
0.0196185
-0.225359
-0.270246
-0.190155
-0.0700426
-0.0448842
-0.0946579
-0.119341
-0.129048
-0.128686
-0.158437
-0.188233
-0.188007
-0.187735
-0.197419
-0.212079
-0.21174
-0.206311
-0.205949
-0.22061
-0.230204
-0.209774
-0.204412
-0.204006
-0.213666
-0.193259
-0.202853
-0.197468
-0.207129
-0.191789
-0.181449
-0.18611
-0.200839
-0.175498
-0.16016
-0.164797
-0.159525
-0.149277
-0.129005
-0.123802
-0.118508
-0.0932131
-0.0779643
-0.0677834
-0.0526476
-0.0424895
-0.0124445
0.00751114
0.0123968
0.0523067
0.087194
0.112036
0.10681
0.141539
0.176267
0.216132
0.226041
0.241019
0.271042
0.291155
0.301313
0.311629
0.332059
0.347443
0.357736
0.343143
0.34864
0.349229
0.329818
0.295316
0.275813
0.251311
0.221922
0.192579
0.158236
0.133914
0.0994573
0.0648651
0.0303407
0.0207024
0.00101948
-0.0187092
-0.038528
-0.033392
-0.0432563
-0.0531664
-0.0630078
-0.052804
-0.0476913
-0.0524879
-0.0620356
-0.0712886
-0.0605202
-0.0500679
-0.0652947
-0.0618777
-0.0507245
-0.0469689
-0.0653405
-0.0800233
-0.0798879
-0.072897
-0.0822854
-0.0868101
-0.0832806
-0.0604529
-0.0606785
-0.0553169
-0.0310855
-0.0192533
-0.0158138
-0.0149989
-0.0252485
-0.0106773
-0.010745
-0.0302248
-0.0395017
-0.0289583
-0.0284386
-0.0480313
-0.0326018
-0.0122852
-0.0120816
-0.0268555
-0.0416751
-0.041472
-0.0463133
-0.0561547
-0.0560417
-0.0509281
-0.0558829
-0.0708828
-0.0708604
-0.0757704
-0.0656567
-0.0755897
-0.0904989
-0.0954995
-0.0804543
-0.0804548
-0.0954547
-0.100432
-0.0804543
-0.0954995
-0.110545
-0.115658
-0.105771
-0.105884
-0.111042
-0.116199
-0.116313
-0.111539
-0.111765
-0.117037
-0.0973086
-0.0876255
-0.0780783
-0.0734849
-0.0538921
-0.0443449
-0.034729
-0.0401368
-0.0304985
-0.000928402
0.00870991
-0.0166063
-0.00683308
0.0129404
-0.00721836
-0.0273309
-0.052331
-0.0522857
-0.0571284
-0.0569024
-0.0516086
-0.0511332
-0.0655675
-0.0948887
-0.114164
-0.113463
-0.122626
-0.136788
-0.155996
-0.145182
-0.14939
-0.163734
-0.173147
-0.157649
-0.157241
-0.156924
-0.171652
-0.171471
-0.156358
-0.15129
-0.1612
-0.166177
-0.161177
-0.161132
-0.166042
-0.185997
-0.230975
-0.295953
-0.300999
-0.231066
-0.0760665
0.228866
0.708775
1.16871
1.56369
1.81864
1.8686
1.60851
1.04848
0.438462
0.268417
-0.231673
-0.276719
-0.211855
-0.101945
-0.0720139
-0.10715
-0.127195
-0.137196
-0.142263
-0.142309
-0.152286
-0.172354
-0.182467
-0.202603
-0.187737
-0.192851
-0.197851
-0.202851
-0.207805
-0.197715
-0.212647
-0.217692
-0.217737
-0.202783
-0.202806
-0.202783
-0.202806
-0.187784
-0.197761
-0.202761
-0.202739
-0.18767
-0.177648
-0.182648
-0.182603
-0.167557
-0.162512
-0.157489
-0.167443
-0.142444
-0.112444
-0.117465
-0.112489
-0.0925117
-0.0724664
-0.0774212
-0.0474434
-0.0224652
0.0025568
0.0126476
0.0377603
0.0779414
0.0981684
0.118463
0.133733
0.158915
0.199141
0.214276
0.224389
0.244615
0.269886
0.290044
0.300158
0.300316
0.320385
0.315385
0.315227
0.300001
0.304775
0.304662
0.274595
0.239527
0.219503
0.209391
0.194164
0.128869
0.108575
0.0933485
0.0580549
0.0328736
0.0277147
0.0175791
0.00248814
-0.0125556
-0.0275555
-0.0274649
-0.0274196
-0.0323744
-0.0423069
-0.0421934
-0.0370359
-0.0418773
-0.0617642
-0.0616293
-0.046494
-0.0464711
-0.0567207
-0.0522404
-0.0377612
-0.0429416
-0.0424438
-0.0304985
-0.0161095
-0.0092082
-0.00545263
-0.000746727
0.0288014
0.0365391
0.0352049
0.0338926
0.0395947
0.036088
0.0359526
0.0109296
0.0115409
0.0265856
0.00473022
-0.00533772
0.000182629
0.0107708
-0.00393534
-0.00423002
-0.00472736
0.00995541
0.00966072
-0.0155425
-0.0257454
-0.0059042
-0.0160179
-0.0410628
-0.0509953
-0.0259953
-0.0309725
-0.0409722
-0.0458593
-0.0507693
-0.0456333
-0.0704756
-0.0702944
-0.0701585
-0.0649996
-0.0848646
-0.0897059
-0.089457
-0.0842304
-0.0840263
-0.0988011
-0.0985518
-0.0832801
-0.0880537
-0.102783
-0.102376
-0.0919914
-0.0915618
-0.111109
-0.115634
-0.100182
-0.094594
-0.10396
-0.123303
-0.107647
-0.111856
-0.110973
-0.120136
-0.0942531
-0.0633488
-0.0624661
-0.0465155
-0.0305657
-0.0245929
-0.0236883
-0.0228062
-0.00194597
0.00884581
0.00959253
0.00529337
0.0158362
0.031311
0.0266285
0.00185537
-0.00303221
-0.00307751
-0.0283265
-0.0387115
-0.0341868
-0.0197744
-0.0305896
-0.0615172
-0.067513
-0.0836225
-0.0946398
-0.11559
-0.136494
-0.132354
-0.143055
-0.163666
-0.169231
-0.169639
-0.159955
-0.165159
-0.185317
-0.190385
-0.175429
-0.180407
-0.185408
-0.180295
-0.165159
-0.170023
-0.174865
-0.179594
-0.17439
-0.189142
-0.248848
-0.343576
-0.358259
-0.312965
-0.227694
-0.0874224
0.252895
0.743212
1.23355
1.66385
1.97912
2.01946
1.98977
1.04007
0.320473
-0.094233
-0.234007
-0.253804
-0.188509
-0.0683293
-0.0430799
-0.0928988
-0.117673
-0.122469
-0.127287
-0.142197
-0.156994
-0.176858
-0.191744
-0.191676
-0.20154
-0.196359
-0.206179
-0.200997
-0.210884
-0.215771
-0.20568
-0.205566
-0.215453
-0.21034
-0.200204
-0.210114
-0.21
-0.204865
-0.194638
-0.194479
-0.194321
-0.194117
-0.178913
-0.178732
-0.178529
-0.183325
-0.168144
-0.152962
-0.152826
-0.152622
-0.137442
-0.117283
-0.10717
-0.112012
-0.0919213
-0.0618081
-0.0517178
-0.0415597
-0.01122
0.014142
0.0296164
0.0350685
0.0704761
0.100928
0.126403
0.151856
0.162217
0.192556
0.222873
0.238235
0.258551
0.283844
0.30898
0.314025
0.324049
0.333935
0.343755
0.353642
0.338642
0.343619
0.343528
0.333551
0.288506
0.268392
0.248143
0.222848
0.172599
0.137395
0.127192
0.0920572
0.0669446
0.031899
0.0218768
0.00685406
-0.00312328
-0.0381012
-0.0330787
-0.0430112
-0.0479441
-0.0578079
-0.0576954
-0.067605
-0.0574913
-0.0674009
-0.067378
-0.0525813
-0.0631924
-0.063962
-0.0644822
-0.0445952
-0.0540524
-0.0569487
-0.0573559
-0.0301609
-0.0109296
-0.00570345
-0.00586224
0.0175314
0.0144548
0.0156989
0.0129609
0.0139794
-0.00631428
-0.00522852
-0.0256128
-0.012423
-0.00726461
-0.00160933
-0.0209074
-0.0104556
-0.015523
-0.0108166
-0.0310431
-0.0312476
-0.0213838
-0.0364523
-0.0465198
-0.0516334
-0.0415883
-0.0365434
-0.0564981
-0.0614076
-0.0612936
-0.0561571
-0.0809989
-0.0758619
-0.0807948
-0.0806136
-0.100432
-0.100296
-0.100093
-0.0948434
-0.0996623
-0.109459
-0.114233
-0.103984
-0.0987797
-0.118599
-0.11335
-0.113124
-0.102807
-0.107558
-0.117287
-0.112038
-0.101745
-0.106451
-0.111089
-0.100703
-0.110319
-0.114911
-0.124548
-0.104142
-0.0887794
-0.0984173
-0.103077
-0.077693
-0.0472856
-0.0419688
-0.0416517
-0.0413117
-0.0159497
-0.0156107
-0.00531721
0.010067
0.0153842
0.0207009
0.0259042
0.0160851
0.00631237
0.00142527
-0.0134845
-0.0433941
-0.043304
-0.0383263
-0.0283947
-0.0384846
-0.0436425
-0.0637331
-0.083869
-0.103891
-0.108914
-0.11387
-0.123869
-0.143869
-0.158801
-0.143643
-0.148598
-0.163553
-0.158485
-0.158395
-0.158259
-0.158145
-0.1681
-0.157987
-0.157896
-0.167783
-0.17267
-0.152579
-0.16242
-0.16733
-0.172194
-0.177126
-0.237036
-0.321991
-0.341878
-0.246787
-0.121696
0.168349
0.648371
1.18339
1.64846
1.78355
2.05364
1.81362
1.15369
0.38871
-0.0962224
-0.231177
-0.246064
-0.195974
-0.0958605
-0.0607924
-0.0957017
-0.115611
-0.130566
-0.155407
-0.150339
-0.150271
-0.18018
-0.190113
-0.194931
-0.194795
-0.199591
-0.214478
-0.214297
-0.199206
-0.194116
-0.219048
-0.214025
-0.19398
-0.208912
-0.218911
-0.203866
-0.193799
-0.198708
-0.203708
-0.198662
-0.178572
-0.178505
-0.17346
-0.193438
-0.163392
-0.148302
-0.133234
-0.148234
-0.128167
-0.113076
-0.107986
-0.0979185
-0.0729184
-0.0379176
-0.0328951
-0.0178723
0.0172853
0.0523767
0.0674891
0.087625
0.117919
0.148259
0.173576
0.18387
0.209187
0.244368
0.249616
0.269865
0.280046
0.315226
0.330407
0.330542
0.340541
0.350451
0.35036
0.340111
0.319863
0.309637
0.29457
0.28457
0.219525
0.194411
0.15914
0.123777
0.0833921
0.0580754
0.0478048
0.0175333
-0.0128284
-0.0231004
-0.0183034
-0.0335078
-0.0436211
-0.0638027
-0.0589614
-0.0540743
-0.0592098
-0.0643458
-0.0694594
-0.054595
-0.0597305
-0.0748439
-0.0600019
-0.0501151
-0.0452733
-0.0554767
-0.0509748
-0.0468116
-0.0326939
-0.0382595
-0.0383267
-0.0170374
-0.0185299
-0.0176477
-0.00947952
0.00970554
0.0352254
0.034276
0.0346384
0.0412908
0.047173
0.0298204
0.00522661
-0.000270844
-0.00472784
-0.0111313
-0.0340276
-0.0244799
-0.0391626
-0.0339589
-0.0442305
-0.0549316
-0.0407004
-0.0612893
-0.0718999
-0.092556
-0.0731444
-0.083642
-0.0890489
-0.084434
-0.0847511
-0.0751581
-0.100543
-0.105927
-0.0913801
-0.096787
-0.107149
-0.122511
-0.107941
-0.108325
-0.113687
-0.129049
-0.119456
-0.114772
-0.110179
-0.125541
-0.130926
-0.111174
-0.116491
-0.126807
-0.132147
-0.117464
-0.112736
-0.118031
-0.133258
-0.113483
-0.128664
-0.123777
-0.133913
-0.114026
-0.119139
-0.124252
-0.119365
-0.1145
-0.0946593
-0.0648403
-0.0700665
-0.0553832
-0.0356779
-0.0309944
-0.0263343
-0.0266728
-0.00705719
0.00758076
-0.00784922
-0.00336981
-0.00393581
-0.00454664
-0.0302019
-0.0559258
-0.0516052
-0.0574422
-0.0433698
-0.0443649
-0.0454736
-0.0664697
-0.0874195
-0.108347
-0.104252
-0.110157
-0.130994
-0.146763
-0.162555
-0.148279
-0.154026
-0.16475
-0.170429
-0.161062
-0.166673
-0.172352
-0.177986
-0.16362
-0.164277
-0.179955
-0.175633
-0.171268
-0.166901
-0.177512
-0.188169
-0.163779
-0.14939
-0.160069
-0.170658
-0.161291
-0.201902
-0.292536
-0.318215
-0.233848
-0.079504
-0.0251832
0.764161
1.3435
1.8228
2.07208
1.94136
1.30059
0.489887
-0.0708599
-0.256606
-0.257465
-0.148257
-0.0540485
-0.0699091
-0.120701
-0.121584
-0.112422
-0.133327
-0.169187
-0.190069
-0.180929
-0.191722
-0.197536
-0.198283
-0.17912
-0.179934
-0.200726
-0.196517
-0.187354
-0.178168
-0.193937
-0.194752
-0.175476
-0.166245
-0.182059
-0.182828
-0.163552
-0.144299
-0.160068
-0.160792
-0.141562
-0.122262
-0.123009
-0.123733
-0.0944114
-0.0750904
-0.070837
-0.0664701
-0.0472393
-0.00794077
0.00133562
0.02068
0.049933
0.0792089
0.108508
0.122716
0.151878
0.196154
0.220385
0.234592
0.248869
0.288167
0.302466
0.311697
0.31595
0.340272
0.359571
0.35887
0.348192
0.347604
0.347083
0.326427
0.295681
0.28991
0.269254
0.258665
0.193145
0.157601
0.142058
0.106493
0.075995
0.0504971
0.0399542
0.0293884
0.00377798
-0.0118103
-0.0124207
-0.0179858
-0.0336637
-0.0442972
-0.0349307
-0.0305424
-0.0361533
-0.0466733
-0.0272393
-0.0178967
-0.0235071
-0.0341854
-0.0347962
-0.0204983
-0.0162001
-0.0218558
-0.00746584
-0.00803185
-0.00355196
-0.0137324
-0.00877762
0.0106568
0.0145483
0.00780678
0.0046854
-0.000813007
0.00497866
0.00169754
-0.00975132
-0.00497723
0.0141859
0.00391436
-0.00350571
0.00683355
0.0160418
0.00470638
-0.00633383
-0.00174046
-0.00212526
-0.00269032
-0.0232334
-0.0286403
-0.0190253
-0.0245457
-0.0351343
-0.0457215
-0.0413103
-0.0468535
-0.0524197
-0.0629401
-0.0533934
-0.0588913
-0.0594349
-0.0799098
-0.0753393
-0.0658379
-0.0913582
-0.0968561
-0.0772858
-0.0827842
-0.0882821
-0.0987797
-0.0992088
-0.0896606
-0.0851355
-0.110588
-0.10604
-0.0964699
-0.101922
-0.107329
-0.107736
-0.113143
-0.0985732
-0.109047
-0.114455
-0.109861
-0.0952921
-0.105722
-0.106152
-0.0814919
-0.0518308
-0.0472383
-0.0425773
-0.0228491
-0.0180759
-0.0183249
-0.013483
0.00131321
0.0161324
0.0159292
0.00574732
0.0106339
0.00552082
-0.0145702
-0.0547056
-0.0498195
-0.0248189
-0.0248637
-0.0348639
-0.0498643
-0.0647283
-0.0797057
-0.0997281
-0.114705
-0.124774
-0.129728
-0.139728
-0.149772
-0.154772
-0.144795
-0.144795
-0.164795
-0.144795
-0.144773
-0.149772
-0.159795
-0.164841
-0.169796
-0.15975
-0.15466
-0.159569
-0.139457
-0.149366
-0.139321
-0.14923
-0.134095
-0.128936
-0.1488
-0.168756
-0.233665
-0.30353
-0.278462
-0.183327
0.0418997
0.502104
1.08228
1.58742
1.9626
2.03781
2.01801
0.918189
0.153392
-0.181404
-0.246314
-0.181133
-0.0609298
-0.0157037
-0.0604773
-0.0802965
-0.0901151
-0.0949121
-0.114753
-0.13955
-0.144345
-0.149165
-0.138961
-0.148825
-0.163689
-0.158508
-0.148304
-0.1631
-0.172828
-0.157602
-0.162263
-0.161969
-0.161743
-0.156495
-0.141268
-0.145997
-0.145658
-0.145409
-0.125138
-0.119844
-0.129595
-0.124325
-0.108963
-0.0886464
-0.0932851
-0.087945
-0.067606
-0.0472441
-0.0419049
-0.0316329
-0.00127077
0.0240917
0.0344758
0.059793
0.0902009
0.120631
0.131129
0.146649
0.192283
0.223007
0.233753
0.239477
0.260156
0.280834
0.306468
0.312056
0.322644
0.343255
0.348844
0.349386
0.334885
0.345292
0.340518
0.295789
0.276197
0.261717
0.242329
0.202894
0.163301
0.138573
0.113776
0.0990701
0.0443416
0.029635
0.029952
0.0103369
-0.0093236
-0.0289164
-0.028441
-0.0329657
-0.0523996
-0.0568781
-0.0413132
-0.0307698
-0.0552945
-0.0648422
-0.0543666
-0.0437789
-0.0532131
-0.0575576
-0.0469699
-0.0412688
-0.045568
-0.0549121
-0.0342112
-0.0136228
-0.0181026
-0.0379219
-0.0180802
-0.0130577
-0.0275145
-0.0257044
-0.0164962
0.000337124
0.0091157
0.0139117
0.0126905
0.0292292
0.0386872
0.017714
0.0239587
0.00466013
0.00210381
-0.0168328
-0.0275116
-0.0117421
-0.0103617
-0.0138683
-0.0228958
-0.0374651
-0.0271716
-0.0267415
-0.0413342
-0.0359263
-0.030406
-0.0448179
-0.0541849
-0.0634613
-0.0678501
-0.0622177
-0.0864925
-0.0958371
-0.0751586
-0.0693893
-0.0886655
-0.102919
-0.0971956
-0.0814037
-0.0906119
-0.104797
-0.0939603
-0.0881233
-0.102286
-0.116404
-0.120454
-0.104527
-0.108531
-0.117536
-0.111473
-0.100342
-0.104234
-0.113035
-0.121767
-0.100477
-0.104029
-0.117604
-0.13111
-0.109595
-0.102988
-0.116291
-0.114571
-0.0877838
-0.0711093
-0.0694804
-0.0528517
-0.0262451
-0.00968456
-0.0131235
-0.0166526
-0.000226498
0.00615311
0.00739717
0.00855112
0.00461483
0.000406742
-0.0239158
-0.0534401
-0.0581007
-0.0379205
-0.0229206
-0.0281239
-0.0634408
-0.0687571
-0.0792546
-0.0947518
-0.120226
-0.11577
-0.121177
-0.136562
-0.156833
-0.156992
-0.147038
-0.162037
-0.166879
-0.156608
-0.156314
-0.150997
-0.170659
-0.17016
-0.169685
-0.164142
-0.178577
-0.187943
-0.16231
-0.166654
-0.160975
-0.165205
-0.154435
-0.148689
-0.162897
-0.182082
-0.236358
-0.305588
-0.304797
-0.229028
-0.0782809
0.222466
0.69819
1.16387
1.59959
1.88027
1.93604
1.61672
0.937353
0.262918
-0.101515
-0.255882
-0.290361
-0.179796
-0.0792532
-0.0738235
-0.108371
-0.107828
-0.0973525
-0.131833
-0.161357
-0.16595
-0.175475
-0.165091
-0.179705
-0.184299
-0.173913
-0.178574
-0.198166
-0.182714
-0.172284
-0.171876
-0.186492
-0.186017
-0.170496
-0.169999
-0.179501
-0.174003
-0.168506
-0.163076
-0.16267
-0.172217
-0.151742
-0.146267
-0.155747
-0.140204
-0.129706
-0.119164
-0.113688
-0.123145
-0.0875793
-0.0720816
-0.0666056
-0.0711312
-0.045588
-0.0200448
-0.0245247
0.00604105
0.0366521
0.0572848
0.0879188
0.103507
0.114073
0.154639
0.170205
0.18077
0.196246
0.226766
0.242354
0.257942
0.263417
0.293756
0.30405
0.29939
0.299888
0.320498
0.321132
0.306517
0.291833
0.277173
0.272602
0.268033
0.218462
0.19396
0.169458
0.13991
0.0954533
0.0810418
0.0616298
0.0471725
0.0177603
0.00332689
0.00889206
-0.0155425
-0.0200229
-0.0395246
-0.0339823
-0.0434618
-0.0480323
-0.0625567
-0.0470586
-0.0464482
-0.0508375
-0.0650229
-0.0538006
-0.0525336
-0.046833
-0.0570817
-0.0592537
-0.0487561
-0.0503621
-0.063303
-0.0759277
-0.0609055
-0.0615845
-0.0619011
-0.0582137
-0.0379429
-0.0139151
-0.00821352
-0.0160875
-0.0157704
0.00898123
-0.00633574
-0.0111318
-0.000407696
0.00542927
-0.0138011
-0.0130324
-0.0171728
-0.00138092
-0.000611782
-0.0249782
-0.0143905
-0.0187111
-0.0180774
-0.0375342
-0.0369687
-0.0313811
-0.0358601
-0.0502949
-0.0597296
-0.0491414
-0.0536213
-0.0731239
-0.082603
-0.0720825
-0.0665402
-0.0810204
-0.0805678
-0.0801153
-0.0746403
-0.0842562
-0.093894
-0.098464
-0.0931015
-0.0877161
-0.107354
-0.102037
-0.0966983
-0.10645
-0.106178
-0.115908
-0.0957265
-0.10559
-0.120567
-0.115567
-0.100612
-0.0956345
-0.100635
-0.0857477
-0.0507703
-0.030838
-0.0359731
-0.0410647
-0.026154
-0.00124502
-0.011313
-0.0263352
-0.0313816
-0.0113368
-0.0063138
-0.0262003
-0.0410872
-0.0558839
-0.0656343
-0.0752501
-0.0548429
-0.0443225
-0.058712
-0.0931005
-0.117376
-0.111539
-0.130702
-0.14482
-0.153983
-0.173214
-0.172467
-0.186675
-0.181018
-0.180295
-0.174616
-0.168983
-0.188327
-0.177807
-0.172242
-0.176653
-0.186088
-0.175612
-0.160137
-0.169685
-0.18921
-0.193735
-0.228282
-0.312875
-0.337469
-0.232084
-0.0766988
0.278754
0.794138
1.33455
1.77995
2.01034
1.90068
1.41606
0.6664
0.0617394
-0.232944
-0.27765
-0.222289
-0.106881
-0.0715189
-0.101202
-0.120795
-0.12541
-0.140026
-0.15964
-0.179234
-0.17885
-0.188442
-0.208057
-0.23265
-0.207175
-0.206813
-0.216406
-0.221021
-0.205591
-0.200183
-0.209731
-0.214346
-0.208938
-0.198509
-0.203078
-0.202671
-0.197287
-0.186947
-0.186608
-0.201291
-0.190928
-0.170589
-0.16525
-0.16991
-0.159571
-0.134254
-0.143938
-0.138597
-0.12828
-0.112873
-0.0925555
-0.0922394
-0.0819001
-0.0516062
-0.0362668
-0.0109954
-0.00565624
0.0446606
0.0749321
0.0802712
0.105633
0.131017
0.17638
0.186788
0.212285
0.237873
0.268416
0.283891
0.29423
0.304636
0.325021
0.34536
0.340609
0.350881
0.361152
0.371378
0.346514
0.336492
0.326402
0.321379
0.281515
0.24674
0.231989
0.20208
0.17199
0.1219
0.0868092
0.071764
0.0567641
0.0166283
-0.00841713
0.0015831
-0.028327
-0.0482144
-0.0530334
-0.0528069
-0.0476255
-0.0624442
-0.0872407
-0.0770369
-0.066833
-0.0716071
-0.0813351
-0.0710645
-0.0708833
-0.0707474
-0.0759063
-0.0664039
-0.0620146
-0.0570827
-0.0813131
-0.0635986
-0.0483494
-0.0358834
-0.0269694
-0.0131907
0.00291824
0.0143218
0.00500011
-0.00373316
0.000995636
-0.00780582
-0.0229869
-0.0244126
-0.0138693
-0.00803232
-0.0172853
-0.0219231
-0.0118103
-0.0120821
-0.0272632
-0.0323987
-0.0325565
-0.0227828
-0.0380096
-0.0381231
-0.0381684
-0.0382147
-0.0482368
-0.0632591
-0.0732369
-0.0532136
-0.0631461
-0.0831232
-0.0930781
-0.0780334
-0.0779419
-0.0878525
-0.0977387
-0.0826035
-0.087513
-0.0973768
-0.0972419
-0.097106
-0.0919256
-0.0967441
-0.106541
-0.116383
-0.106179
-0.120953
-0.120704
-0.115409
-0.115138
-0.114821
-0.124527
-0.119209
-0.113734
-0.118304
-0.122807
-0.132286
-0.121766
-0.121178
-0.120657
-0.114978
-0.0993671
-0.0987792
-0.0931902
-0.0826244
-0.0370135
-0.026516
-0.0311546
-0.0357924
-0.0203843
-0.00504541
0.00027132
-0.00952578
-0.00432158
0.0157461
0.0207462
-0.00438976
-0.0196152
-0.0299993
-0.0504298
-0.0509734
-0.0365844
-0.032217
-0.0529408
-0.0787778
-0.0995922
-0.090271
-0.11095
-0.136628
-0.152126
-0.157715
-0.168167
-0.173529
-0.18389
-0.174094
-0.174275
-0.179502
-0.189751
-0.184864
-0.179954
-0.190044
-0.190135
-0.185203
-0.155248
-0.165293
-0.165361
-0.180406
-0.210406
-0.285475
-0.33052
-0.280565
-0.155589
0.104456
0.584479
1.13946
1.65446
2.02452
2.06957
1.69957
0.954592
0.239615
-0.160385
-0.255363
-0.255294
-0.175249
-0.135272
-0.0702939
-0.110361
-0.120474
-0.125565
-0.130723
-0.155791
-0.155904
-0.171019
-0.181154
-0.191334
-0.176493
-0.181696
-0.191923
-0.207059
-0.19224
-0.187443
-0.192669
-0.202873
-0.198054
-0.193212
-0.198416
-0.203619
-0.203777
-0.183959
-0.179095
-0.194275
-0.184433
-0.164546
-0.16466
-0.169818
-0.164954
-0.155135
-0.145294
-0.140475
-0.1407
-0.105859
-0.0959949
-0.106153
-0.0913115
-0.0564699
-0.0315833
-0.0267415
-0.0169225
0.0228744
0.0327158
0.0575571
0.0874901
0.112399
0.147354
0.152376
0.18749
0.227671
0.247852
0.258033
0.268213
0.283372
0.31853
0.328689
0.333734
0.338802
0.358847
0.373802
0.368621
0.343327
0.352965
0.337535
0.312173
0.281834
0.271381
0.250838
0.205249
0.164684
0.139119
0.108508
0.0978742
0.0471053
0.021245
0.0203633
-0.0105186
-0.0312662
-0.046968
-0.0326018
-0.0531225
-0.0635972
-0.0740719
-0.0645933
-0.0699997
-0.0753613
-0.0806103
-0.0659046
-0.0661077
-0.0714011
-0.0818763
-0.072691
-0.0636635
-0.0643873
-0.0796356
-0.068686
-0.0455413
-0.0348625
-0.0469441
-0.0323744
0.00251293
0.00577116
0.000837803
0.00789738
0.0133047
0.00800991
0.00226355
0.0110416
0.0183039
0.0237112
0.0119019
-0.00676346
-0.000949383
-0.0207686
-0.0340939
-0.0393877
-0.0367637
-0.0273743
-0.0423741
-0.0473523
-0.0527143
-0.0535731
-0.0545006
-0.0702925
-0.0759945
-0.0665827
-0.0721259
-0.0877366
-0.0882792
-0.0737095
-0.0890937
-0.094501
-0.10484
-0.0951338
-0.0954051
-0.110677
-0.12088
-0.121084
-0.116242
-0.121378
-0.126536
-0.116627
-0.106718
-0.121786
-0.136786
-0.12674
-0.121696
-0.12656
-0.141424
-0.141176
-0.125859
-0.12052
-0.130045
-0.124547
-0.128959
-0.123212
-0.127444
-0.131583
-0.105792
-0.109842
-0.113756
-0.117715
-0.101652
-0.0806098
-0.0745697
-0.0835519
-0.0525789
-0.0366735
-0.0258589
-0.0301576
-0.0144334
0.00122166
-0.00339317
0.0119004
0.011991
0.0119233
0.0166736
0.0112214
0.000565529
0.00468302
-0.0164256
-0.0327606
-0.0442762
-0.0208149
-0.0125346
-0.0143895
-0.0262446
-0.0482125
-0.0601363
-0.0820589
-0.118823
-0.12561
-0.12224
-0.123778
-0.150181
-0.156471
-0.152647
-0.153733
-0.174684
-0.170521
-0.16129
-0.161991
-0.17267
-0.178258
-0.158801
-0.164322
-0.169865
-0.175317
-0.155702
-0.151109
-0.176538
-0.186855
-0.227195
-0.27758
-0.312897
-0.253281
-0.153689
0.030859
0.405519
0.880089
1.3297
1.7293
1.83889
1.97346
1.61798
0.947442
0.286967
-0.113576
-0.259051
-0.249572
-0.170137
-0.0707483
-0.071404
-0.0870595
-0.102715
-0.133462
-0.154163
-0.134864
-0.145611
-0.176358
-0.192081
-0.18785
-0.183575
-0.189368
-0.210137
-0.200861
-0.196607
-0.197377
-0.213169
-0.213915
-0.199616
-0.205295
-0.201018
-0.206652
-0.187308
-0.187963
-0.198574
-0.204208
-0.169796
-0.170406
-0.18104
-0.176606
-0.167149
-0.162579
-0.158053
-0.163642
-0.144162
-0.12966
-0.110157
-0.110654
-0.101153
-0.0716047
-0.06708
-0.0525775
-0.0379171
0.0017662
0.0214262
0.0411777
0.0659513
0.110748
0.120567
0.13034
0.165114
0.194865
0.224638
0.234366
0.244027
0.278733
0.303349
0.307851
0.317331
0.341743
0.351087
0.345409
0.334844
0.339413
0.339119
0.333824
0.303326
0.287737
0.267058
0.251311
0.205632
0.175044
0.154523
0.123981
0.093461
0.0679865
0.0525565
0.0270591
0.00660658
-0.0188007
-0.0141401
-0.0245476
-0.0349555
-0.0553632
-0.040771
-0.0411558
-0.0515857
-0.0669928
-0.0573549
-0.0577846
-0.0582142
-0.0588927
-0.069571
-0.0500236
-0.0499096
-0.0445933
-0.0588694
-0.0272627
-0.0252042
-0.0236201
-0.0326471
-0.0132356
-0.0142083
-0.00662899
-0.024796
-0.00993204
-0.0162668
-0.0218101
-0.017149
-0.0123305
-0.00253391
-0.00294113
-0.0183482
-0.00366497
-0.00407171
-0.00952435
-0.0148635
-0.0151348
-0.00543022
-0.0107017
-0.026041
-0.0213122
-0.0165839
-0.0269003
-0.0371947
-0.0424891
-0.0377827
-0.0430994
-0.0584383
-0.0687332
-0.0490499
-0.0593209
-0.0696158
-0.0848875
-0.0851812
-0.075521
-0.0908828
-0.101132
-0.0964041
-0.0967436
-0.0970831
-0.132468
-0.117829
-0.0981913
-0.108575
-0.118982
-0.124367
-0.0997286
-0.10509
-0.120565
-0.120995
-0.10147
-0.116945
-0.117511
-0.123032
-0.113484
-0.103981
-0.0995698
-0.110113
-0.0856791
-0.0712671
-0.0718102
-0.0623755
-0.0529184
-0.0384617
-0.0440273
-0.029593
-0.0151358
-0.00565624
-0.0111537
-0.0116286
-0.0170584
-0.0174651
-0.0378947
-0.0683022
-0.0785952
-0.0537319
-0.0438676
-0.0439801
-0.0640483
-0.0840926
-0.0990024
-0.113935
-0.133866
-0.143798
-0.148731
-0.158708
-0.163685
-0.168685
-0.168753
-0.183889
-0.179002
-0.184183
-0.164341
-0.169568
-0.179772
-0.174975
-0.160202
-0.165496
-0.17579
-0.186084
-0.171356
-0.221582
-0.306854
-0.372126
-0.317351
-0.2226
-0.0429173
0.331789
0.88654
1.42129
1.876
2.0957
2.06045
1.55525
1.32998
0.0897303
-0.230542
-0.265723
-0.220881
-0.116108
-0.0712438
-0.0863113
-0.121448
-0.131605
-0.141764
-0.146877
-0.171899
-0.196967
-0.217012
-0.197035
-0.207081
-0.212103
-0.222126
-0.217149
-0.212194
-0.212194
-0.22224
-0.217218
-0.212196
-0.212196
-0.217151
-0.217173
-0.202219
-0.197287
-0.197376
-0.197399
-0.187467
-0.182557
-0.177647
-0.17276
-0.152874
-0.153055
-0.148213
-0.148304
-0.123462
-0.11362
-0.0988235
-0.0989594
-0.0640731
-0.0441856
-0.0293441
-0.0145025
0.0202708
0.0499773
0.0545697
0.0840945
0.128664
0.163235
0.17776
0.192239
0.216787
0.251358
0.275996
0.285565
0.300249
0.334978
0.354887
0.354932
0.360046
0.380113
0.380159
0.370113
0.365136
0.365272
0.340363
0.30043
0.270588
0.250905
0.221289
0.201628
0.126832
0.10199
0.0821486
0.0522394
0.0222392
0.00721693
-0.00780582
-0.0278063
-0.0329189
-0.043077
-0.0432582
-0.038394
-0.0535522
-0.0586658
-0.048779
-0.0483489
-0.0527382
-0.0523763
-0.042625
-0.0441413
-0.0529881
-0.0693679
-0.0781016
-0.0687356
-0.0898671
-0.0891657
-0.0944147
-0.0703874
-0.0780125
-0.072876
-0.0654554
-0.0365415
-0.0369482
-0.0274234
-0.0200033
0.00146723
0.00234938
-0.0231705
-0.0238266
-0.00423431
-0.0140977
-0.0287356
-0.0284643
-0.00828266
-0.00807905
-0.0229435
-0.0479212
-0.0379887
-0.0331016
-0.0433283
-0.0534859
-0.0537119
-0.0488939
-0.0591421
-0.0644588
-0.0797977
-0.0650692
-0.0853863
-0.100725
-0.106064
-0.0964041
-0.0917439
-0.0971732
-0.107604
-0.102988
-0.108441
-0.113938
-0.119504
-0.115116
-0.110704
-0.111383
-0.132129
-0.122967
-0.11885
-0.114822
-0.125909
-0.122039
-0.113216
-0.124461
-0.140727
-0.132062
-0.113373
-0.114708
-0.100998
-0.0822878
-0.0585771
-0.0597987
-0.0558848
-0.0569024
-0.0228744
-0.0237575
-0.0294814
-0.0350471
-0.0103855
-0.0205665
-0.0355897
-0.0603867
-0.0748658
-0.0791426
-0.0732832
-0.0672197
-0.051043
-0.0647306
-0.10835
-0.126925
-0.130569
-0.124324
-0.148147
-0.162039
-0.171088
-0.160205
-0.164572
-0.179051
-0.18369
-0.17344
-0.173259
-0.183191
-0.193213
-0.173304
-0.163281
-0.173416
-0.178643
-0.178869
-0.169117
-0.174344
-0.304615
-0.339909
-0.270248
-0.140565
0.129118
0.633756
1.20842
1.67803
2.0126
2.05722
1.70683
0.906516
0.141176
-0.224095
-0.27939
-0.249616
-0.124865
-0.0550909
-0.0753174
-0.11543
-0.130522
-0.13559
-0.145612
-0.150702
-0.160816
-0.175793
-0.180814
-0.175928
-0.19095
-0.205904
-0.200882
-0.180882
-0.185949
-0.201017
-0.196108
-0.191175
-0.186175
-0.201242
-0.196311
-0.176401
-0.166401
-0.181469
-0.181515
-0.171606
-0.166697
-0.166878
-0.172081
-0.152217
-0.137353
-0.14249
-0.127694
-0.117898
-0.0930786
-0.0782142
-0.0783949
-0.0536432
-0.0188694
0.00079155
0.0153389
0.0347733
0.0842538
0.103711
0.128078
0.142399
0.181698
0.215973
0.22525
0.244548
0.268892
0.298326
0.302896
0.317601
0.332397
0.352354
0.357263
0.352172
0.342105
0.34215
0.317286
0.292558
0.272785
0.258034
0.208237
0.163373
0.138553
0.113825
0.0891867
0.0495944
0.029911
0.0200462
0.0100913
-0.00493145
-0.0199094
-0.025022
-0.0202031
-0.0254064
-0.0456324
-0.0458589
-0.0311084
-0.0362887
-0.0512209
-0.0408592
-0.0354972
-0.040565
-0.0713792
-0.0487323
-0.0333471
-0.0352936
-0.0541849
-0.074049
-0.063416
-0.065814
-0.0648184
-0.0711317
-0.0612898
-0.049684
-0.0563354
-0.0508385
-0.0331235
-0.0136662
-0.0139151
-0.0107927
-0.00122309
0.0100217
0.00465918
-0.010951
-0.00640345
0.00877762
-0.000701904
-0.0253396
-0.0301809
-0.0199995
-0.0298409
-0.0397954
-0.0348177
-0.0448861
-0.0449314
-0.0400438
-0.0601797
-0.0554061
-0.050632
-0.060904
-0.0711303
-0.0614018
-0.0516958
-0.0670357
-0.0924654
-0.0778961
-0.0733938
-0.0788913
-0.104434
-0.104932
-0.0955424
-0.106221
-0.12199
-0.107873
-0.093801
-0.104841
-0.110995
-0.122239
-0.103596
-0.109976
-0.121492
-0.138008
-0.124502
-0.106086
-0.112669
-0.109253
-0.0758138
-0.0473294
-0.0538688
-0.0602026
-0.0364699
-0.0175557
-0.0235062
-0.0342526
-0.0247502
-0.0100222
-0.0200438
-0.024909
-0.0344791
-0.0388227
-0.057941
-0.0869226
-0.0757232
-0.0393658
-0.0429182
-0.0714936
-0.0950227
-0.0986199
-0.0972629
-0.11595
-0.129706
-0.128643
-0.14276
-0.157013
-0.171471
-0.166018
-0.160702
-0.165476
-0.165384
-0.155317
-0.160294
-0.155316
-0.155453
-0.160612
-0.145747
-0.150996
-0.161245
-0.181471
-0.226721
-0.291992
-0.302263
-0.217513
-0.0328074
0.316854
0.806582
1.31638
1.74624
1.97099
1.85572
1.29052
0.505337
-0.0197768
-0.14489
-0.265048
-0.145093
-0.0451155
-0.0651379
-0.115092
-0.135069
-0.125024
-0.139979
-0.169933
-0.17982
-0.179707
-0.184616
-0.199502
-0.204367
-0.189253
-0.184117
-0.204004
-0.203868
-0.188755
-0.178619
-0.17846
-0.198392
-0.188324
-0.178188
-0.173097
-0.188052
-0.172961
-0.162894
-0.157825
-0.167758
-0.152667
-0.127598
-0.122621
-0.122598
-0.117576
-0.087553
-0.0876207
-0.0777569
-0.0629611
-0.0332327
-0.00366306
0.00590658
0.0254769
0.070024
0.104571
0.124005
0.143439
0.182872
0.207283
0.216582
0.235903
0.26036
0.294907
0.309568
0.314432
0.339387
0.344296
0.349182
0.334205
0.319409
0.314659
0.294976
0.255361
0.220836
0.211289
0.176877
0.13242
0.0978961
0.0833702
0.0637999
0.0342078
0.00975084
0.00529289
-0.00420904
-0.0138702
-0.0285988
-0.0383501
-0.0381474
-0.047966
-0.0528755
-0.0478525
-0.0278301
-0.0326262
-0.0421062
-0.0414047
-0.0208611
-0.0258846
-0.0320153
-0.0403414
-0.0244136
-0.0224452
-0.0423775
-0.0477614
-0.0570374
-0.0532813
-0.0559964
-0.0665846
-0.0567656
-0.0569696
-0.052309
-0.0722861
-0.0606346
-0.0515618
-0.0550685
-0.03163
-0.027173
-0.0130792
-0.00642776
-0.0133057
-0.0175595
0.00266695
-0.0126266
-0.0273776
-0.0267439
-0.0311561
-0.015749
-0.0304775
-0.0352054
-0.0299559
-0.0347977
-0.0397072
-0.0497293
-0.0497522
-0.0397973
-0.0448651
-0.0749555
-0.0750008
-0.0701585
-0.0753174
-0.0904536
-0.0906572
-0.0808387
-0.0811105
-0.0914502
-0.101812
-0.0871968
-0.0926261
-0.098124
-0.108712
-0.0993457
-0.0951142
-0.105974
-0.111834
-0.107852
-0.103915
-0.110114
-0.11629
-0.102602
-0.0789595
-0.0754085
-0.0568333
-0.04319
-0.0295024
-0.0357919
-0.0419912
-0.0281224
-0.00914001
-0.0150676
-0.0208597
-0.0115843
-0.00217342
-0.0125799
-0.0378284
-0.0578284
-0.0677385
-0.0573087
-0.0516295
-0.0508151
-0.0548196
-0.073689
-0.0875349
-0.111335
-0.115114
-0.118937
-0.122829
-0.156788
-0.15586
-0.145023
-0.164321
-0.183666
-0.168169
-0.162738
-0.167353
-0.187059
-0.176856
-0.166652
-0.161493
-0.171402
-0.181335
-0.161357
-0.161312
-0.176222
-0.231154
-0.296085
-0.331018
-0.301018
-0.176041
0.0789595
0.558959
0.728914
1.60389
2.01889
2.13389
1.88396
1.20396
0.403981
-0.110929
-0.265861
-0.270792
-0.155703
-0.0505672
-0.0605445
-0.105499
-0.130432
-0.130409
-0.130273
-0.165183
-0.190093
-0.194889
-0.194685
-0.204526
-0.2093
-0.209119
-0.193961
-0.203802
-0.213689
-0.203531
-0.193395
-0.203236
-0.213055
-0.207852
-0.182648
-0.18749
-0.197377
-0.197196
-0.176991
-0.181901
-0.176833
-0.176743
-0.166675
-0.141628
-0.146583
-0.146561
-0.121447
-0.106357
-0.0963125
-0.101267
-0.0712676
-0.0412445
-0.0262675
-0.00626707
0.0287333
0.0537558
0.0937562
0.103778
0.138778
0.163845
0.193823
0.213733
0.24862
0.273484
0.288507
0.288506
0.303528
0.328551
0.348482
0.343482
0.343504
0.353526
0.363526
0.343526
0.323617
0.313707
0.293797
0.288865
0.218911
0.18891
0.163933
0.129046
0.0841599
0.0642729
0.0494094
0.024478
-0.00545454
-0.0254092
-0.0202956
-0.0302501
-0.0551372
-0.0600243
-0.0649791
-0.0499568
-0.0648894
-0.079844
-0.0647988
-0.0547075
-0.0646176
-0.0695496
-0.0645266
-0.0595036
-0.0494804
-0.0694585
-0.0743675
-0.0490961
-0.0536437
-0.0633492
-0.0485306
-0.0241413
-0.0354991
-0.0430098
-0.040906
-0.0302043
-0.0270371
-0.0374441
-0.0462909
-0.0306802
-0.0223775
-0.0352273
-0.0396395
-0.0296621
-0.0348878
-0.0401368
-0.0351596
-0.0299788
-0.0298429
-0.0297756
-0.0397301
-0.0345941
-0.0295033
-0.0544128
-0.0643897
-0.0593672
-0.0543442
-0.0592756
-0.0692306
-0.0691404
-0.0640497
-0.058959
-0.0688906
-0.0788445
-0.0788217
-0.0887766
-0.0937314
-0.0936408
-0.0835729
-0.0884595
-0.0984364
-0.103459
-0.0985055
-0.0985055
-0.0985055
-0.108506
-0.108484
-0.0934386
-0.113416
-0.118416
-0.118394
-0.103348
-0.0983701
-0.108393
-0.108393
-0.10337
-0.0983253
-0.113326
-0.11337
-0.113257
-0.103235
-0.123234
-0.108257
-0.0782113
-0.0480986
-0.0380306
-0.0529633
-0.0329175
-0.0228953
-0.0278726
-0.0129175
-0.0128951
0.00208235
-0.00296354
-0.00300884
0.0069685
-0.00298691
-0.0129638
-0.0380087
-0.0530996
-0.0580087
-0.0380998
-0.0381675
-0.0582805
-0.0634837
-0.0835524
-0.103643
-0.11371
-0.118755
-0.118733
-0.138733
-0.15871
-0.173666
-0.163665
-0.168665
-0.183733
-0.178734
-0.168734
-0.17371
-0.203688
-0.193643
-0.178553
-0.163439
-0.173371
-0.183348
-0.163235
-0.178236
-0.233258
-0.328235
-0.358213
-0.288167
-0.163167
0.126901
0.636923
1.20204
1.68206
2.01208
2.11215
1.88219
1.75222
0.477239
-0.0677161
-0.237671
-0.257626
-0.217626
-0.0976028
-0.0426259
-0.0975804
-0.132513
-0.142444
-0.137354
-0.157286
-0.182264
-0.207196
-0.197264
-0.197241
-0.207196
-0.222173
-0.217105
-0.21206
-0.222037
-0.231992
-0.216902
-0.201743
-0.206675
-0.221584
-0.216539
-0.201425
-0.201313
-0.221177
-0.201153
-0.171086
-0.171018
-0.17595
-0.175927
-0.165814
-0.145679
-0.155543
-0.150363
-0.12025
-0.110092
-0.104979
-0.0948658
-0.0646849
-0.0394816
-0.0293007
-0.0141878
0.0309706
0.0661058
0.0712419
0.101355
0.141491
0.171558
0.186694
0.191921
0.23717
0.262374
0.282443
0.287601
0.302737
0.342873
0.348145
0.353303
0.358484
0.36862
0.373802
0.338938
0.323938
0.32896
0.31896
0.27396
0.243982
0.209141
0.194322
0.179368
0.10439
0.089345
0.0693679
0.0394807
-0.0054965
-0.0203843
-0.0202713
-0.0351796
-0.0502481
-0.0552258
-0.0451126
-0.0450673
-0.0600219
-0.0799766
-0.0649314
-0.0599995
-0.0799994
-0.0899758
-0.074863
-0.0597715
-0.0697494
-0.0647044
-0.0647264
-0.0498848
-0.0554509
-0.0709033
-0.0456772
-0.0348849
-0.0331883
-0.0549984
-0.0259714
-0.00721598
-0.00934315
-0.0129628
-0.0184155
-0.00373268
-0.00717163
-0.024683
-0.0306106
-0.0110626
-0.020678
-0.0152025
-0.0249987
-0.0250669
-0.0250893
-0.0301123
-0.0351348
-0.0202026
-0.0252247
-0.0202918
-0.0503144
-0.0503368
-0.0403366
-0.0553598
-0.0603819
-0.0554051
-0.0554047
-0.0604496
-0.085494
-0.0754485
-0.0803804
-0.0803804
-0.100426
-0.100448
-0.0954485
-0.0754709
-0.0954714
-0.100403
-0.0952902
-0.0851994
-0.105132
-0.12004
-0.11986
-0.114725
-0.119612
-0.134454
-0.124363
-0.109205
-0.119047
-0.133957
-0.128776
-0.108527
-0.113278
-0.123006
-0.122644
-0.117305
-0.111899
-0.116468
-0.116015
-0.105517
-0.0802011
-0.0598612
-0.0445228
-0.0440931
-0.0287089
-0.033392
-0.0480518
-0.0227122
-0.0123725
-0.00710106
-0.0168967
0.00330639
0.0233517
0.0082612
-0.0117841
-0.0268297
-0.0370326
-0.0473042
-0.0526433
-0.0429153
-0.0430746
-0.0484138
-0.0837073
-0.114024
-0.099432
-0.119794
-0.140156
-0.15545
-0.135676
-0.145813
-0.170994
-0.171175
-0.166311
-0.156447
-0.161582
-0.166718
-0.171786
-0.161876
-0.167058
-0.172216
-0.167329
-0.152465
-0.152555
-0.177691
-0.182758
-0.237849
-0.318007
-0.318075
-0.228143
-0.0482345
0.331675
0.871675
1.39665
1.82663
2.00161
1.84152
1.25645
0.506359
-0.0137548
-0.138913
-0.284027
-0.184163
-0.069231
-0.0643444
-0.109457
-0.119593
-0.114707
-0.12482
-0.159865
-0.174956
-0.174978
-0.175091
-0.190182
-0.200318
-0.195521
-0.190633
-0.205747
-0.205904
-0.191041
-0.196198
-0.206312
-0.20647
-0.191606
-0.181764
-0.186899
-0.20208
-0.187171
-0.172238
-0.182283
-0.182328
-0.177351
-0.172396
-0.172487
-0.1726
-0.162669
-0.142781
-0.11794
-0.128121
-0.118279
-0.0734601
-0.0685964
-0.0737777
-0.0588903
-0.018959
-0.00407219
0.00581408
0.0207014
0.0556111
0.0805426
0.0854297
0.130271
0.170181
0.195113
0.195067
0.209931
0.239795
0.274683
0.279524
0.284343
0.304162
0.329071
0.334003
0.333935
0.348889
0.343798
0.333731
0.323662
0.308572
0.288505
0.258414
0.2183
0.183143
0.158007
0.142894
0.132713
0.0775776
0.0623741
0.0471935
0.0170808
-0.0180554
-0.0132146
-0.00341797
-0.013577
-0.0287127
-0.0488486
-0.0339618
-0.0440302
-0.059166
-0.0493016
-0.0394602
-0.0345736
-0.0397091
-0.0448227
-0.0349579
-0.0350938
-0.0352521
-0.0356817
-0.03127
-0.0215416
-0.0163832
-0.0407271
-0.0338488
-0.0104556
-0.0114737
-0.01265
6.4373e-05
0.0105629
0.0125313
-0.00366783
-0.005229
0.000811577
-0.0060668
-0.0160661
-0.0152292
-0.0144153
-0.00948238
-0.0199127
-0.025229
-0.0254331
-0.0206146
-0.0309539
-0.041316
-0.0465879
-0.0267229
-0.0269489
-0.0521302
-0.0472655
-0.037446
-0.0476274
-0.0676951
-0.0678539
-0.0630116
-0.068193
-0.0833054
-0.088419
-0.0735321
-0.0736446
-0.0987802
-0.108849
-0.103984
-0.099052
-0.114098
-0.119142
-0.114256
-0.119346
-0.114392
-0.119437
-0.104392
-0.0943689
-0.0993919
-0.124301
-0.10921
-0.10412
-0.118984
-0.118803
-0.118598
-0.11335
-0.113078
-0.122829
-0.112603
-0.0923309
-0.0819907
-0.0666294
-0.0562897
-0.0359507
-0.0206575
-0.0303631
-0.035069
-0.00486612
0.00533772
-0.00941324
-0.02421
-0.00405121
0.0110621
0.00619793
-0.0188022
-0.0338926
-0.0390282
-0.0542092
-0.0545721
-0.0401144
-0.030725
-0.0414042
-0.0821733
-0.0979204
-0.093554
-0.0992775
-0.124979
-0.155658
-0.131427
-0.137038
-0.152535
-0.162942
-0.163236
-0.153485
-0.163801
-0.17896
-0.169164
-0.159322
-0.159458
-0.174503
-0.164548
-0.154549
-0.149548
-0.174548
-0.17457
-0.169548
-0.214458
-0.284368
-0.289277
-0.219163
-0.109163
0.0957689
0.490791
0.955746
1.37579
1.70584
1.90084
1.85088
1.41093
0.710972
0.105949
-0.209074
-0.279142
-0.269233
-0.119368
-0.0494366
-0.0695047
-0.104572
-0.144731
-0.124889
-0.120048
-0.140206
-0.1855
-0.175725
-0.180839
-0.186065
-0.191313
-0.191539
-0.201788
-0.187015
-0.19724
-0.192512
-0.192784
-0.183011
-0.18826
-0.203508
-0.183712
-0.183961
-0.179233
-0.194527
-0.194775
-0.190002
-0.175182
-0.180431
-0.180725
-0.160928
-0.156108
-0.161267
-0.141425
-0.121538
-0.116719
-0.121809
-0.116922
-0.0870805
-0.0772161
-0.0773973
-0.0675554
-0.027668
0.00221872
-0.0028491
0.0271511
0.0621963
0.0923548
0.092514
0.117718
0.147966
0.183193
0.208351
0.213509
0.223644
0.258689
0.273666
0.283689
0.293734
0.31871
0.328553
0.328281
0.322918
0.342511
0.352104
0.326765
0.306472
0.301245
0.280973
0.245634
0.210249
0.189819
0.169277
0.158688
0.0882583
0.0679412
0.0576463
0.0224209
-0.0028286
-0.00800943
-0.0281458
-0.0282822
-0.0533266
-0.0483727
-0.0583949
-0.053463
-0.0685306
-0.073576
-0.0635986
-0.0586667
-0.0687351
-0.0838709
-0.0791879
-0.0697765
-0.0703425
-0.0704775
-0.0496855
-0.0476489
-0.0340967
-0.054029
-0.0383501
-0.0133276
-0.014956
-0.0242319
-0.0222406
-0.00371075
-0.016448
-0.0221272
-0.0195699
-0.00995541
-0.0192313
-0.0284848
-0.0335069
-0.0138917
-0.00927639
-0.019412
-0.0295024
-0.0046382
0.000135422
-0.0249329
-0.0250468
-0.0151367
-0.0101824
-0.0151372
-0.0401821
-0.0401826
-0.0251598
-0.0300918
-0.0550914
-0.0550914
-0.0400691
-0.0500693
-0.0650239
-0.070024
-0.0600014
-0.0650015
-0.0850468
-0.10016
-0.080205
-0.0751829
-0.0902734
-0.100341
-0.0903645
-0.080409
-0.0954556
-0.1055
-0.110546
-0.100613
-0.105772
-0.110953
-0.101133
-0.101405
-0.111677
-0.121971
-0.12222
-0.117605
-0.117899
-0.128238
-0.118599
-0.109052
-0.104437
-0.109912
-0.100364
-0.0707488
-0.0561557
-0.0516529
-0.0521059
-0.0425134
-0.0328531
-0.0232601
-0.0185995
-0.00880241
0.00603867
0.000902653
0.000880241
0.0010829
0.00133228
-0.0233731
-0.0530119
-0.0525589
-0.0370154
-0.0314946
-0.0309739
-0.0504317
-0.0597754
-0.089345
-0.108984
-0.133644
-0.128441
-0.133214
-0.152988
-0.167875
-0.177762
-0.167739
-0.172671
-0.17774
-0.167717
-0.162716
-0.162739
-0.177808
-0.177854
-0.157921
-0.163056
-0.173237
-0.183419
-0.208577
-0.303735
-0.373849
-0.313985
-0.184075
0.100766
0.575607
1.13545
1.67029
2.05518
2.12006
1.79502
1.02493
0.23993
-0.20507
-0.30007
-0.235093
-0.085115
-0.0401378
-0.0800929
-0.115047
-0.120002
-0.129957
-0.154844
-0.179708
-0.174618
-0.184528
-0.199393
-0.219234
-0.209053
-0.203918
-0.218849
-0.223736
-0.208577
-0.198464
-0.208282
-0.218078
-0.207897
-0.197716
-0.197534
-0.207376
-0.197172
-0.177059
-0.176991
-0.196878
-0.171696
-0.15656
-0.161469
-0.161379
-0.141265
-0.121198
-0.116107
-0.116084
-0.0910616
-0.056016
-0.0459256
-0.0259027
-0.0158572
0.0291419
0.0490742
0.0739613
0.0836897
0.128327
0.163033
0.182693
0.192376
0.242058
0.271674
0.281312
0.291018
0.320768
0.345588
0.350407
0.345315
0.370361
0.380541
0.360791
0.350927
0.341175
0.336538
0.297013
0.262511
0.233078
0.213508
0.174028
0.119502
0.0900445
0.0706549
0.0463562
0.0119672
-0.00753546
-0.0121508
-0.0168338
-0.0215845
-0.0514269
-0.0563364
-0.0512462
-0.0512009
-0.056201
-0.0610428
-0.040432
-0.0546169
-0.0640283
-0.063983
-0.0452957
-0.0490732
-0.060679
-0.0696154
-0.064208
-0.0639372
-0.0758824
-0.0790725
-0.0699096
-0.065249
-0.0655203
-0.0757465
-0.0650449
-0.0420809
-0.0413799
-0.0532131
-0.0383029
-0.0179186
-0.00389147
-0.0183706
-0.0113797
-0.00133467
-0.0066967
-0.0167875
-0.0211992
-0.0154305
-0.00975132
-0.0192766
-0.0288467
-0.0184851
-0.018146
-0.0329871
-0.0328293
-0.0327158
-0.0326481
-0.0427155
-0.0577846
-0.0428748
-0.0380111
-0.053237
-0.0684633
-0.0836673
-0.0738935
-0.0792103
-0.0946169
-0.10007
-0.0854993
-0.100997
-0.101631
-0.107309
-0.0980554
-0.108961
-0.114956
-0.115974
-0.10706
-0.103327
-0.109684
-0.126063
-0.117534
-0.109096
-0.120656
-0.137218
-0.113801
-0.120317
-0.121878
-0.118349
-0.109819
-0.0711536
-0.052443
-0.0785971
-0.0595469
-0.0553164
-0.0509048
-0.0411534
-0.036221
-0.0210629
-0.0156555
-0.0249767
-0.0240493
-0.033031
-0.0517645
-0.0703168
-0.0787334
-0.0421047
-0.0504522
-0.0787792
-0.102128
-0.105589
-0.119142
-0.112806
-0.161585
-0.150545
-0.149685
-0.158961
-0.178328
-0.177853
-0.162514
-0.167265
-0.17213
-0.182016
-0.156926
-0.146903
-0.166948
-0.172016
-0.172061
-0.197129
-0.302219
-0.352288
-0.29247
-0.167628
0.132146
0.66201
1.28687
1.82176
1.96167
1.98158
1.35649
0.50149
-0.113511
-0.293534
-0.248534
-0.128421
-0.0483303
-0.0732398
-0.118058
-0.127854
-0.127673
-0.167492
-0.19231
-0.187129
-0.191881
-0.206654
-0.211382
-0.206088
-0.205793
-0.200453
-0.220114
-0.209797
-0.204435
-0.19914
-0.218801
-0.203462
-0.198122
-0.197782
-0.202511
-0.192239
-0.181967
-0.171695
-0.176402
-0.161039
-0.1457
-0.140407
-0.145226
-0.135044
-0.104931
-0.0847507
-0.0896816
-0.0845466
-0.0444107
-0.0141854
0.000927448
0.0160637
0.0610633
0.0810175
0.0909047
0.130702
0.170475
0.195248
0.219954
0.239683
0.264297
0.298867
0.313415
0.318008
0.337533
0.362081
0.381785
0.376559
0.376582
0.39174
0.381785
0.361831
0.331853
0.307034
0.297441
0.257917
0.213393
0.184004
0.15466
0.140338
0.0809717
0.0665598
0.0471482
0.017714
0.00332403
-0.0111556
-0.0106807
-0.0252962
-0.0399566
-0.0447083
-0.0394368
-0.0393915
-0.0543013
-0.0542336
-0.0541883
-0.0437131
-0.0480571
-0.0475364
-0.0274906
-0.0284181
-0.0313592
-0.0515852
-0.0488706
-0.0480103
-0.062943
-0.0723548
-0.0793233
-0.0683274
-0.0599332
-0.0752044
-0.0596614
-0.0580773
-0.0546837
-0.0585976
-0.0549316
-0.0304751
-0.0108366
-0.0290723
-0.0260863
-0.0108371
-0.0111995
-0.0363803
-0.0411091
-0.0303855
-0.0297294
-0.0392995
-0.0539832
-0.048666
-0.0384622
-0.0333261
-0.0682354
-0.0582132
-0.0581899
-0.068212
-0.078258
-0.0933256
-0.0883932
-0.0785289
-0.0986423
-0.0937781
-0.0938458
-0.0940499
-0.109253
-0.109503
-0.0947747
-0.0950465
-0.105363
-0.120702
-0.111018
-0.121381
-0.13181
-0.137308
-0.127874
-0.118485
-0.109142
-0.13982
-0.120544
-0.121357
-0.137263
-0.158167
-0.139027
-0.134865
-0.115725
-0.111562
-0.0973988
-0.0682583
-0.0590043
-0.0646377
-0.0652041
-0.0607009
-0.0261312
-0.026516
-0.0367651
-0.0218782
-0.0118556
-0.0167198
-0.04638
-0.0508819
-0.0652485
-0.0745025
-0.0735755
-0.0525341
-0.0414028
-0.0702949
-0.109253
-0.118145
-0.102104
-0.126198
-0.145384
-0.149683
-0.148982
-0.158461
-0.178053
-0.182737
-0.157534
-0.14733
-0.167194
-0.172104
-0.167082
-0.16206
-0.162105
-0.162219
-0.162333
-0.157468
-0.162626
-0.277875
-0.318079
-0.273283
-0.17344
0.0363779
0.471175
1.00104
1.46586
1.85568
2.0255
1.91034
1.3452
0.584999
0.0048418
-0.230248
-0.285294
-0.215384
-0.0854969
-0.0555649
-0.0905199
-0.12552
-0.14552
-0.135452
-0.155453
-0.165453
-0.210385
-0.205318
-0.185251
-0.205183
-0.21516
-0.210093
-0.195047
-0.195025
-0.210003
-0.219934
-0.204799
-0.194753
-0.209731
-0.204684
-0.194707
-0.189639
-0.184684
-0.189752
-0.184774
-0.174797
-0.184797
-0.174864
-0.159932
-0.144977
-0.140045
-0.145091
-0.125158
-0.110181
-0.10527
-0.100497
-0.0708594
-0.0412664
-0.0217867
-0.0172849
0.00219536
0.0367875
0.0661993
0.0806336
0.105
0.144322
0.163553
0.172807
0.192082
0.23154
0.25111
0.265815
0.280679
0.295544
0.305362
0.315227
0.320114
0.335272
0.340589
0.325904
0.301312
0.296765
0.277285
0.262715
0.228123
0.203507
0.178892
0.144345
0.104866
0.0803857
0.0707479
0.0459967
0.0211549
0.00631285
-0.00364208
-0.00859737
-0.0235977
-0.0435987
-0.0335531
-0.0332136
-0.0377159
-0.052218
-0.0519686
-0.0423303
-0.044095
-0.0630088
-0.0593214
-0.0476694
-0.0574203
-0.0772395
-0.0803833
-0.0652018
-0.0674419
-0.0730982
-0.0831885
-0.0577812
-0.0520568
-0.0647264
-0.0649529
-0.0478716
-0.028935
-0.029274
-0.0251784
-0.00348186
0.00495672
0.000793457
-0.024478
2.47955e-05
0.00491142
-0.00456905
-0.0389581
-0.0335956
-0.0183473
-0.0231438
-0.0328946
-0.0328045
-0.0327139
-0.0328045
-0.0578947
-0.062963
-0.0430989
-0.0532346
-0.0584159
-0.0685749
-0.0637331
-0.0639372
-0.0742769
-0.0896158
-0.0749092
-0.0802937
-0.0756783
-0.106131
-0.0966058
-0.0870805
-0.087646
-0.10828
-0.108958
-0.0947285
-0.0955648
-0.116492
-0.112465
-0.103461
-0.0995932
-0.120815
-0.122105
-0.083395
-0.064775
-0.0661778
-0.0475802
-0.0439601
-0.0303402
-0.0467429
-0.0380998
-0.0244126
-0.0106568
-0.0168552
-0.0179186
-0.00391388
-0.00477314
-0.025475
-0.0459957
-0.0612898
-0.06638
-0.0562897
-0.0510178
-0.0605655
-0.0599322
-0.0840487
-0.11803
-0.126832
-0.130655
-0.129343
-0.148008
-0.156742
-0.155475
-0.164343
-0.173281
-0.187376
-0.181561
-0.170906
-0.165272
-0.179752
-0.169391
-0.154028
-0.15378
-0.173622
-0.16851
-0.168465
-0.188465
-0.27351
-0.313556
-0.288601
-0.223737
-0.108895
0.195925
0.675744
1.21052
1.66027
1.97016
1.98502
1.61995
0.87984
0.194795
-0.195295
-0.275385
-0.28552
-0.145543
-0.0654969
-0.0754967
-0.120497
-0.14052
-0.130498
-0.120475
-0.155431
-0.19534
-0.200228
-0.190047
-0.194934
-0.209754
-0.219573
-0.209415
-0.189325
-0.199212
-0.209099
-0.208963
-0.193758
-0.203601
-0.208488
-0.203374
-0.188283
-0.193215
-0.203079
-0.188034
-0.177898
-0.177784
-0.182693
-0.162625
-0.147603
-0.14758
-0.142535
-0.137557
-0.112489
-0.102512
-0.0975118
-0.0825343
-0.0625792
-0.0425339
-0.0325565
-0.00757885
0.027421
0.0523758
0.0622849
0.0871496
0.126946
0.156629
0.161222
0.185972
0.220769
0.25061
0.265542
0.270316
0.295158
0.319977
0.339887
0.339728
0.354616
0.364638
0.369706
0.349887
0.335136
0.335317
0.305408
0.275317
0.250249
0.225294
0.195521
0.165747
0.115973
0.101154
0.0662446
0.0563812
0.00144863
-0.00839329
-0.0132575
-0.0281892
-0.033144
-0.0431676
-0.0331893
-0.0482578
-0.0533481
-0.0733933
-0.0584164
-0.0484385
-0.0734844
-0.0634623
-0.0534177
-0.0483952
-0.0483274
-0.0579877
-0.0373316
-0.0370145
-0.0422626
-0.038054
-0.0348186
-0.0230761
-0.0273066
-0.0365148
-0.0249081
-0.0367856
-0.0314007
-0.053165
-0.0329838
-0.0236855
-0.0115809
-0.0162644
-0.0166941
-0.0175543
-0.0279164
-0.0328255
-0.0376902
-0.0227356
-0.0227346
-0.0327115
-0.0425758
-0.0374856
-0.0374856
-0.0574627
-0.0673723
-0.0573277
-0.0522823
-0.0572829
-0.0772829
-0.0772147
-0.0621471
-0.0720787
-0.0970788
-0.0870566
-0.0770116
-0.0769668
-0.0969443
-0.0969214
-0.0918994
-0.0818992
-0.106899
-0.111877
-0.101854
-0.0968089
-0.0967641
-0.111742
-0.101674
-0.0915384
-0.106516
-0.11647
-0.11138
-0.0962658
-0.0911078
-0.13104
-0.115904
-0.100791
-0.105656
-0.115429
-0.100203
-0.0799994
-0.0597954
-0.0545688
-0.0343423
-0.0291615
-0.0189805
-0.0287995
-0.0286422
0.0115614
0.0117426
0.00183296
-0.00809908
0.0220137
0.0270586
-0.00789642
-0.0178962
-0.0279188
-0.0429869
-0.0481901
-0.0484161
-0.0237556
-0.0341396
-0.0495467
-0.0850229
-0.09552
-0.0960183
-0.111561
-0.127059
-0.147624
-0.138031
-0.158507
-0.173983
-0.16939
-0.164797
-0.159955
-0.170114
-0.175204
-0.165339
-0.165317
-0.16543
-0.180543
-0.165475
-0.165453
-0.170408
-0.185363
-0.190318
-0.250182
-0.340159
-0.350023
-0.264888
-0.119775
0.160383
0.605428
1.12552
1.60065
1.95583
2.07102
1.88106
1.26613
0.471195
-0.0737367
-0.273737
-0.268647
-0.183533
-0.0983982
-0.0683532
-0.0883083
-0.10824
-0.11324
-0.143285
-0.138261
-0.153217
-0.178217
-0.198217
-0.208239
-0.213262
-0.20833
-0.223375
-0.22342
-0.213443
-0.208488
-0.218511
-0.228511
-0.213511
-0.203487
-0.218466
-0.223465
-0.21342
-0.198374
-0.203351
-0.208351
-0.193215
-0.188169
-0.188124
-0.198055
-0.177964
-0.157828
-0.167761
-0.17767
-0.147511
-0.12733
-0.127193
-0.127103
-0.121967
-0.0817409
-0.076673
-0.0615826
-0.041492
-0.026401
-0.00128746
0.0138707
0.0389838
0.0742106
0.104482
0.119685
0.144775
0.179934
0.215115
0.220227
0.23043
0.275588
0.305723
0.315813
0.330949
0.346062
0.366062
0.376085
0.36613
0.381153
0.386266
0.381447
0.361651
0.341696
0.331674
0.306765
0.276855
0.237014
0.21215
0.19233
0.147442
0.107555
0.0976686
0.0777593
0.0629168
0.00305271
-0.00678873
-0.0115395
-0.0163584
-0.0562
-0.0460191
-0.030838
-0.0606804
-0.0754995
-0.0703635
-0.0602498
-0.0551367
-0.0750461
-0.0599551
-0.0651584
-0.0649772
-0.0647287
-0.0693445
-0.0387559
-0.0330319
-0.0423751
-0.0568094
-0.0413795
-0.0211983
-0.021152
-0.0464015
-0.0317187
-0.011764
-0.021606
-0.0315385
-0.0364714
-0.0163803
-0.0262671
-0.036109
-0.0259275
-0.000701904
-0.015522
-0.0302958
-0.0300918
-0.0249567
-0.0197296
-0.0395713
-0.0394807
-0.03439
-0.0292988
-0.0392084
-0.0540957
-0.0589366
-0.0487556
-0.0586424
-0.0885067
-0.0783482
-0.0632119
-0.0730767
-0.092896
-0.0877147
-0.0775561
-0.0973744
-0.102216
-0.107012
-0.101809
-0.101696
-0.111537
-0.111379
-0.106244
-0.111176
-0.131018
-0.130837
-0.115703
-0.110545
-0.125454
-0.13025
-0.120113
-0.104956
-0.109842
-0.12482
-0.119729
-0.0895934
-0.0944571
-0.0993433
-0.0642533
-0.0341401
-0.0390944
-0.0540261
-0.0388913
-0.0188012
-0.00871086
-0.0135517
-0.0133715
0.0068326
0.0170808
0.00728416
-0.00746679
-0.0221276
-0.0318556
-0.0565391
-0.0712223
-0.0508375
-0.025476
-0.0250225
-0.0845256
-0.0939369
-0.108326
-0.117761
-0.142241
-0.146584
-0.136042
-0.155521
-0.164933
-0.174367
-0.163847
-0.163576
-0.193282
-0.183011
-0.167784
-0.172603
-0.172422
-0.182174
-0.171969
-0.161766
-0.161608
-0.176494
-0.176358
-0.236267
-0.261109
-0.356018
-0.285995
-0.170905
0.0641398
0.479276
1.01441
1.50948
1.8945
2.06455
1.90468
1.35486
0.574954
-0.0299106
-0.274684
-0.249526
-0.164367
-0.0842767
-0.0591421
-0.0890284
-0.113893
-0.128712
-0.148486
-0.153282
-0.163079
-0.172875
-0.212672
-0.207445
-0.197242
-0.192016
-0.206857
-0.206631
-0.201382
-0.206155
-0.220974
-0.215748
-0.205544
-0.200431
-0.210318
-0.215069
-0.214843
-0.199685
-0.199503
-0.209231
-0.189073
-0.193915
-0.193779
-0.183642
-0.173462
-0.153304
-0.158123
-0.15292
-0.142785
-0.127695
-0.117581
-0.122447
-0.102288
-0.087153
-0.0669947
-0.0568824
-0.0267696
0.00834417
0.0183678
0.0233455
0.0483456
0.0882783
0.123166
0.133212
0.173325
0.20337
0.223324
0.238302
0.248324
0.278438
0.30355
0.308686
0.313889
0.339182
0.34959
0.339975
0.345133
0.350224
0.355336
0.335427
0.320632
0.281016
0.261514
0.216808
0.182079
0.152283
0.137465
0.0877357
0.0679169
0.0330529
0.00814342
-0.00676632
-0.011744
-0.0167441
-0.0316992
-0.0317674
-0.0267892
-0.0567212
-0.0466986
-0.0466533
-0.066608
-0.0815396
-0.0663815
-0.0457931
-0.0451145
-0.0547295
-0.0550466
-0.0463586
-0.0348201
-0.0551367
-0.0568786
-0.0531454
-0.0544806
-0.0532365
-0.0575805
-0.0420594
-0.0331235
-0.0335069
-0.0309286
-0.0221725
-0.0217881
-0.0177155
-0.028326
-0.018508
-0.00823593
-0.0128288
-0.0275578
-0.0273085
-0.0120821
-0.0219007
-0.0367432
-0.0366073
-0.031426
-0.0314713
-0.0465393
-0.0515618
-0.0315614
-0.0414929
-0.0565376
-0.0665603
-0.0616279
-0.0616503
-0.0666499
-0.076673
-0.0666947
-0.0817633
-0.0869212
-0.0921254
-0.0922613
-0.102375
-0.0975103
-0.102647
-0.10285
-0.0980086
-0.108167
-0.113416
-0.118643
-0.118937
-0.109185
-0.119502
-0.124886
-0.115294
-0.115769
-0.126289
-0.136922
-0.117443
-0.103008
-0.108529
-0.104027
-0.0896373
-0.0652943
-0.0559506
-0.0514936
-0.0519915
-0.0374436
-0.0278063
-0.023191
-0.013485
-0.00377893
-0.0141177
-0.019299
-0.0244117
-0.0194349
-0.0293894
-0.0642304
-0.0739594
-0.0386872
-0.0331893
-0.0625787
-0.0718551
-0.0760403
-0.0901809
-0.114412
-0.12862
-0.132918
-0.132239
-0.136651
-0.181086
-0.165725
-0.145363
-0.155068
-0.164934
-0.159888
-0.144798
-0.154684
-0.159684
-0.159707
-0.164662
-0.15973
-0.164798
-0.174911
-0.170092
-0.180295
-0.275453
-0.310566
-0.245703
-0.150816
0.0440025
0.423845
0.903731
1.3336
1.46346
1.89332
1.85819
1.37812
0.688051
0.102961
-0.207175
-0.307312
-0.242447
-0.102606
-0.0577865
-0.1029
-0.113013
-0.133149
-0.138283
-0.138419
-0.158509
-0.168691
-0.178826
-0.178985
-0.184143
-0.204324
-0.194506
-0.184709
-0.18489
-0.185026
-0.215116
-0.190252
-0.19032
-0.185478
-0.210704
-0.210885
-0.196065
-0.191246
-0.191359
-0.176562
-0.166743
-0.166901
-0.172104
-0.177353
-0.157579
-0.147737
-0.157918
-0.148167
-0.118415
-0.103597
-0.0938454
-0.099071
-0.0743203
-0.0445232
-0.0297499
-0.0199533
0.00979757
0.0495491
0.0441647
0.0636897
0.083169
0.112648
0.147218
0.161743
0.186336
0.200974
0.225613
0.225183
0.244821
0.279481
0.279255
0.294074
0.313939
0.308894
0.318893
0.303894
0.293803
0.293644
0.27844
0.268214
0.223213
0.203281
0.183417
0.143507
0.118576
0.0986433
0.0736656
0.0486207
0.0186205
0.00864267
-0.00131178
-0.00644732
-0.0265603
-0.0466056
-0.0367193
-0.0318103
-0.0469012
-0.0569468
-0.0470147
-0.0421052
-0.052196
-0.0573545
-0.047286
-0.0368786
-0.0413356
-0.0509739
-0.0460415
-0.0373092
-0.0353856
-0.0552492
-0.0467653
-0.0492539
-0.0512443
-0.0662446
-0.0630317
-0.0513353
-0.039434
-0.0404973
-0.0379629
-0.018415
-0.00712538
-0.0178494
-0.0240941
-0.0147953
-0.00972795
-0.0194798
-0.0294795
-0.0144567
-0.00434399
-0.00916243
-0.0340042
-0.013936
-0.00886774
-0.0138454
-0.0288682
-0.0239358
-0.0190263
-0.0140266
-0.0340719
-0.0491171
-0.0390491
-0.0391169
-0.0691395
-0.0592303
-0.0392752
-0.0493655
-0.0545239
-0.064683
-0.0697956
-0.0648637
-0.074954
-0.0850902
-0.0752029
-0.0753155
-0.0754976
-0.0956783
-0.090837
-0.0709953
-0.0812211
-0.101448
-0.0916514
-0.0968547
-0.0821257
-0.102466
-0.102737
-0.0980082
-0.0883932
-0.0987997
-0.0791621
-0.0395689
-0.0150437
-0.0205646
-0.0360851
-0.0115161
-0.00192308
-0.00235271
0.00212717
0.0166974
0.0162444
0.0207915
0.000383854
-4.57764e-05
-0.000340462
-0.0305448
-0.0457253
-0.0507936
-0.0257936
-0.0207701
-0.0456114
-0.0503631
-0.0649552
-0.074616
-0.119254
-0.118824
-0.11853
-0.1331
-0.147715
-0.147376
-0.162058
-0.166832
-0.17663
-0.18147
-0.171312
-0.166177
-0.161131
-0.176041
-0.170928
-0.165814
-0.170792
-0.170747
-0.170702
-0.160657
-0.205634
-0.285633
-0.325611
-0.280633
-0.195656
-0.0257239
0.339208
0.799185
1.25912
1.66914
1.93914
1.97916
1.69918
1.05916
0.339161
-0.145817
-0.315817
-0.34584
-0.21084
-0.0757947
-0.0607719
-0.115682
-0.145613
-0.140546
-0.130455
-0.145365
-0.185297
-0.205162
-0.199981
-0.19989
-0.209663
-0.209482
-0.199324
-0.194142
-0.208893
-0.218667
-0.198418
-0.198123
-0.222987
-0.222851
-0.207647
-0.192489
-0.197308
-0.212081
-0.196946
-0.181741
-0.186561
-0.196471
-0.17638
-0.156221
-0.161108
-0.166018
-0.155949
-0.13579
-0.130723
-0.140746
-0.115746
-0.0857911
-0.0759945
-0.0662212
-0.0565605
-0.0167871
-0.00212717
0.0124435
0.0469456
0.0815611
0.11111
0.115724
0.150498
0.180476
0.210521
0.225566
0.235724
0.265883
0.301042
0.306222
0.311539
0.331946
0.357489
0.363032
0.348642
0.349253
0.339751
0.325294
0.295836
0.28147
0.252172
0.217782
0.173371
0.143823
0.119276
0.0845237
0.0747499
0.0199761
0.010066
-0.004776
-0.0246181
-0.0344596
-0.0389848
-0.0381923
-0.0425358
-0.0573549
-0.0581236
-0.060771
-0.0659976
-0.0885534
-0.0879202
-0.0927606
-0.096765
-0.112692
-0.114977
-0.100113
-0.0949998
-0.0902491
-0.10086
-0.0864487
-0.0762448
-0.079186
-0.0800004
-0.0786877
-0.0604753
-0.0509052
-0.0511088
-0.0275121
-0.0168109
-0.0143213
-0.0190725
-0.0196147
-0.0102034
-0.0101352
-0.0145249
-0.0338469
-0.018394
-0.0130329
-0.0277157
-0.0373306
-0.0170598
-0.0219235
-0.0369463
-0.0420146
-0.0520592
-0.0371275
-0.037241
-0.0573545
-0.067513
-0.057694
-0.0579653
-0.0882144
-0.0685315
-0.058938
-0.0744357
-0.0949783
-0.0905209
-0.0811772
-0.071969
-0.0928063
-0.0988021
-0.0848656
-0.0810642
-0.107399
-0.108779
-0.0953169
-0.0918784
-0.113621
-0.115386
-0.0921955
-0.0790963
-0.0809736
-0.067874
-0.0547743
-0.0366297
-0.0485072
-0.0452948
-0.0270143
-0.00862026
-0.025023
-0.0212674
-0.0173082
-0.013123
-0.0335979
-0.0538697
-0.0688472
-0.0686884
-0.0581226
-0.0573306
-0.0562897
-0.0700455
-0.0886655
-0.112127
-0.130453
-0.143665
-0.141878
-0.145091
-0.168303
-0.171629
-0.164978
-0.173417
-0.177014
-0.175769
-0.159729
-0.168802
-0.16801
-0.162445
-0.161902
-0.146585
-0.176358
-0.176268
-0.191291
-0.266291
-0.346292
-0.321383
-0.206472
0.00841475
0.428211
0.982939
1.50269
1.90742
2.00719
1.82199
1.14183
0.346693
-0.173442
-0.308555
-0.268623
-0.143646
-0.0636687
-0.0686455
-0.113578
-0.123487
-0.13342
-0.143329
-0.17317
-0.183034
-0.197853
-0.197626
-0.2074
-0.197061
-0.19172
-0.211381
-0.221018
-0.205611
-0.205226
-0.209932
-0.219547
-0.204185
-0.208846
-0.198528
-0.208144
-0.192714
-0.177351
-0.182057
-0.186876
-0.176695
-0.16656
-0.151582
-0.161764
-0.151922
-0.137104
-0.122375
-0.12767
-0.108033
-0.0834169
-0.0688696
-0.0493445
-0.0348425
-0.0101819
0.039546
0.0492744
0.069139
0.11898
0.148709
0.178438
0.178257
0.228166
0.253098
0.268098
0.278257
0.29855
0.333866
0.344364
0.344952
0.360653
0.381287
0.382056
0.372915
0.363798
0.364613
0.350495
0.306354
0.267213
0.253005
0.218729
0.204385
0.125041
0.106038
0.0875087
0.0491362
0.0253587
0.0108786
0.00501871
-0.0183063
-0.0394611
-0.0479903
-0.0679445
-0.0679908
-0.101158
-0.100547
-0.0987372
-0.0983076
-0.0976968
-0.102403
-0.0976739
-0.0830584
-0.0882387
-0.0932841
-0.0832391
-0.0682611
-0.0632396
-0.0782394
-0.0834427
-0.0639634
-0.069325
-0.0792117
-0.0581484
-0.0401616
-0.039618
-0.0417452
-0.0320845
-0.0219259
-0.0175362
-0.0262914
-0.0236893
-0.0134182
-0.0187573
-0.023984
-0.0336895
-0.0280113
-0.0273099
-0.0368795
-0.0365181
-0.0462022
-0.0509758
-0.0459986
-0.0661349
-0.0613837
-0.0566773
-0.0820847
-0.0875597
-0.0881262
-0.0838041
-0.0946646
-0.0956144
-0.096746
-0.102899
-0.0942793
-0.105727
-0.112334
-0.108917
-0.125704
-0.127605
-0.11955
-0.106564
-0.0936451
-0.0857487
-0.0729432
-0.050138
-0.0473776
-0.0445266
-0.0566764
-0.0337577
-0.0107489
-0.0225368
-0.0291424
-0.0204997
-0.00663137
-0.0325141
-0.0681701
-0.0734644
-0.0885096
-0.0782824
-0.0777168
-0.0770154
-0.08111
-0.0950246
-0.118734
-0.132378
-0.140862
-0.154233
-0.157513
-0.180726
-0.183825
-0.18688
-0.179934
-0.202898
-0.200885
-0.183848
-0.181857
-0.189934
-0.178079
-0.171449
-0.174956
-0.178576
-0.1774
-0.17627
-0.240455
-0.344821
-0.379346
-0.304052
-0.168758
0.1114
0.63649
1.24649
1.77147
2.08142
2.07631
1.65626
0.826218
0.55115
-0.253872
-0.293895
-0.208895
-0.0938721
-0.0688496
-0.108781
-0.138691
-0.1436
-0.158464
-0.168283
-0.178056
-0.207829
-0.217626
-0.227332
-0.217015
-0.21172
-0.216359
-0.225974
-0.220567
-0.210136
-0.219707
-0.234322
-0.218892
-0.208462
-0.213033
-0.212625
-0.197217
-0.18681
-0.191493
-0.201176
-0.185882
-0.180542
-0.18018
-0.169954
-0.144774
-0.129548
-0.119411
-0.109411
-0.0945239
-0.0697732
-0.0449772
-0.040204
-0.0104527
0.0242071
0.0638447
0.0634146
0.10303
0.132622
0.162169
0.166739
0.201308
0.240901
0.265653
0.27554
0.285359
0.300178
0.330042
0.345064
0.345292
0.335631
0.351039
0.351469
0.327012
0.30269
0.288369
0.249161
0.220021
0.180903
0.156673
0.127352
0.082962
0.0434146
0.01898
0.0196128
0.00515604
-0.0343461
-0.0289388
-0.0185537
-0.0382366
-0.0529428
-0.0524673
-0.0315852
-0.0458155
-0.0554767
-0.0408611
-0.042738
-0.0421042
-0.0639825
-0.0727153
-0.0669012
-0.0759735
-0.0775118
-0.0907698
-0.081471
-0.0709734
-0.0754986
-0.0855894
-0.0663815
-0.0525575
-0.0537119
-0.0794816
-0.0646629
-0.053441
-0.0497761
-0.0533276
-0.0394592
-0.0241432
-0.0188026
-0.035409
-0.0207481
-0.0222645
-0.0224223
-0.0278521
-0.0379429
-0.0325127
-0.0268559
-0.036449
-0.0411997
-0.0409284
-0.0356793
-0.0405431
-0.0554981
-0.0555887
-0.0556569
-0.0659056
-0.0711551
-0.0664039
-0.0565853
-0.0668797
-0.0822411
-0.0826039
-0.0730786
-0.0886898
-0.104323
-0.105002
-0.0907707
-0.0965858
-0.102558
-0.0935531
-0.089571
-0.0858159
-0.107151
-0.113643
-0.0952039
-0.0917654
-0.0983262
-0.0999556
-0.0666075
-0.0382361
-0.0349107
-0.0516076
-0.0482135
-0.0398202
-0.0312681
-0.0275798
-0.0137339
-0.0298195
-0.0156112
-0.0162673
-0.0266972
-0.021946
-0.0418553
-0.0765162
-0.0959501
-0.0652719
-0.0492082
-0.0480089
-0.0666742
-0.0852261
-0.103642
-0.112013
-0.125362
-0.123643
-0.126968
-0.135339
-0.163824
-0.167466
-0.156177
-0.155136
-0.169276
-0.15853
-0.137896
-0.152489
-0.167195
-0.146946
-0.141787
-0.136787
-0.15681
-0.15681
-0.161901
-0.216991
-0.31215
-0.312263
-0.222421
-0.0675354
0.267352
0.792193
1.34701
1.77183
1.87163
1.83645
1.28624
0.566152
-0.00398397
-0.274097
-0.269256
-0.144301
-0.0543466
-0.0743918
-0.114392
-0.124347
-0.119324
-0.149302
-0.164233
-0.169143
-0.179007
-0.188871
-0.198667
-0.188531
-0.193373
-0.208214
-0.208078
-0.18792
-0.177692
-0.177579
-0.202444
-0.187308
-0.182127
-0.191923
-0.201741
-0.186606
-0.176424
-0.176289
-0.19113
-0.160994
-0.150903
-0.145813
-0.165746
-0.150609
-0.130496
-0.120406
-0.105406
-0.0903831
-0.0705414
-0.0507898
-0.0361524
-0.0265379
0.0230546
0.037715
0.0373068
0.0768538
0.111379
0.150881
0.165315
0.174818
0.199297
0.228822
0.243437
0.248256
0.273233
0.303324
0.308347
0.313257
0.308188
0.313234
0.318528
0.303913
0.279275
0.279818
0.260428
0.225971
0.186536
0.172125
0.1476
0.133029
0.0585051
0.0440478
0.0446815
0.035202
0.00558615
-0.0141196
-0.00382519
-0.0186224
-0.0334182
-0.0482593
-0.0381007
-0.0429196
-0.0575805
-0.0419245
-0.0261998
-0.0309281
-0.0514259
-0.0435758
-0.0481911
-0.0451822
-0.0490055
-0.0638242
-0.0631676
-0.0651364
-0.0683951
-0.0839152
-0.0686216
-0.0587339
-0.0643902
-0.0851822
-0.0702505
-0.0585527
-0.0443897
-0.0527158
-0.0390735
-0.019866
-0.00570202
-0.0189829
-0.0155892
-0.00972843
0.00997734
-0.0202489
-0.0300226
-0.0093441
-0.00366449
-0.0132575
-0.0329404
-0.0175781
-0.0173292
-0.0221252
-0.0419903
-0.0368996
-0.0468087
-0.0368085
-0.0668087
-0.0568314
-0.0569215
-0.0620122
-0.0820804
-0.0671477
-0.0672383
-0.0624881
-0.0827594
-0.0930543
-0.0883713
-0.0737786
-0.0892758
-0.0947962
-0.10034
-0.0959954
-0.0966516
-0.102399
-0.0931902
-0.0991173
-0.105181
-0.116289
-0.0974431
-0.0935974
-0.0697956
-0.0660849
-0.0423517
-0.0235739
-0.0248408
-0.0460167
-0.0221705
-0.00839186
0.000566483
-0.0154514
-0.00635624
-0.00221634
0.00703716
-0.00855064
-0.0290489
-0.0393653
-0.044569
-0.064569
-0.0644107
-0.0340261
-0.0283923
-0.0426912
-0.0919213
-0.0960164
-0.104953
-0.128912
-0.142804
-0.13674
-0.135632
-0.159659
-0.168777
-0.177986
-0.157194
-0.156651
-0.176221
-0.170815
-0.160429
-0.16009
-0.169886
-0.164682
-0.164547
-0.159434
-0.169388
-0.204365
-0.244365
-0.304389
-0.319344
-0.234275
-0.0542297
0.330747
0.860747
1.3707
1.79568
2.0207
1.92072
1.37577
0.555792
-0.0541854
-0.289185
-0.294163
-0.174141
-0.0541182
-0.0591178
-0.114096
-0.134073
-0.133937
-0.143824
-0.168734
-0.193598
-0.20344
-0.188326
-0.198214
-0.213123
-0.222897
-0.197784
-0.207694
-0.227535
-0.207354
-0.197174
-0.202083
-0.206902
-0.21172
-0.201471
-0.20129
-0.21111
-0.200951
-0.190725
-0.190566
-0.190385
-0.190249
-0.175114
-0.164978
-0.159842
-0.149683
-0.12948
-0.119322
-0.124232
-0.114164
-0.0790281
-0.0639381
-0.0589151
-0.0490289
-0.0192103
0.0105863
0.0253372
0.0350428
0.0797029
0.109386
0.12898
0.143572
0.168188
0.207938
0.222712
0.227553
0.247462
0.27744
0.287462
0.302643
0.302892
0.333209
0.34848
0.353729
0.339115
0.329567
0.340111
0.315654
0.296152
0.27665
0.272147
0.227714
0.178415
0.159116
0.149839
0.125338
0.0757675
0.0560842
0.0413103
0.0315595
-0.0131464
-0.0228968
-0.0177383
-0.0225797
-0.0374894
-0.0573082
-0.046946
-0.0412226
-0.0452948
-0.0644345
-0.0540051
-0.0444121
-0.0466971
-0.061697
-0.0691862
-0.063643
-0.0740957
-0.0938468
-0.101087
-0.0946841
-0.0952053
-0.0989375
-0.0910192
-0.0757475
-0.0639601
-0.0604987
-0.0559053
-0.0415616
-0.0245705
-0.0213127
-0.0308151
-0.0212445
-0.0115385
-0.016335
-0.0305653
-0.0198183
-0.00925255
-0.0237322
-0.0332565
-0.0228491
-0.022532
-0.0222602
-0.0321016
-0.0318747
-0.0216932
-0.031558
-0.0364904
-0.0413542
-0.036242
-0.0361743
-0.0461063
-0.0460153
-0.0509706
-0.0509024
-0.0709476
-0.0760612
-0.0711741
-0.076333
-0.081491
-0.0966954
-0.0919895
-0.0822835
-0.0876455
-0.108053
-0.0935736
-0.0990496
-0.104615
-0.115248
-0.110995
-0.101787
-0.102714
-0.108642
-0.0996828
-0.0757456
-0.0568318
-0.0528498
-0.0489135
-0.0299549
-0.0260406
-0.0370131
-0.0279632
-0.00884581
-0.00966024
-0.0154519
-0.0160851
-0.00660563
-0.00203562
-0.0173292
-0.0473967
-0.0573516
-0.0571032
-0.0617189
-0.0660853
-0.0502481
-0.0741625
-0.0780082
-0.111787
-0.130474
-0.12923
-0.132827
-0.151493
-0.165158
-0.163959
-0.15785
-0.176833
-0.175905
-0.165045
-0.149343
-0.153732
-0.173212
-0.177737
-0.16742
-0.172125
-0.181922
-0.176764
-0.176651
-0.216605
-0.316582
-0.356582
-0.331628
-0.236719
-0.0617638
0.358191
0.958122
1.51305
1.93794
2.12283
1.92778
1.31271
0.492579
-0.102511
-0.317602
-0.297716
-0.287807
-0.112897
-0.0579424
-0.0830107
-0.128146
-0.153237
-0.148259
-0.148237
-0.178214
-0.213169
-0.203056
-0.207897
-0.207739
-0.222649
-0.232512
-0.222422
-0.217264
-0.222105
-0.236946
-0.221765
-0.221561
-0.221334
-0.226063
-0.220837
-0.210588
-0.215361
-0.225134
-0.204885
-0.199615
-0.194411
-0.204206
-0.184025
-0.158867
-0.158732
-0.158574
-0.148506
-0.128416
-0.108348
-0.108259
-0.0931692
-0.0681009
-0.033237
-0.0384407
-0.00873518
0.0259709
0.0606546
0.0652475
0.104817
0.139342
0.17889
0.188483
0.203166
0.217895
0.257713
0.267577
0.287532
0.307622
0.332781
0.337985
0.338189
0.358346
0.363528
0.3538
0.339162
0.329592
0.31
0.295453
0.265815
0.236222
0.211652
0.182171
0.132715
0.103099
0.0785289
0.0688229
0.0590038
0.0040946
-0.000792503
-0.00570202
-0.0206566
-0.0506792
-0.0507016
-0.0407243
-0.0505657
-0.0650454
-0.0642533
-0.0587101
-0.0586648
-0.0696831
-0.0777373
-0.0565386
-0.0592761
-0.0738006
-0.0888681
-0.0831671
-0.0800452
-0.0785742
-0.0896373
-0.0895243
-0.0785971
-0.0713801
-0.0769234
-0.0599551
-0.0357924
-0.0406342
-0.0364494
-0.0149789
-0.0121059
-0.0118566
-0.0125809
-0.0131917
-0.00368977
-0.00837278
-0.00787497
0.00248766
-0.00235462
-0.00719643
-0.0170822
-0.0269914
-0.0219908
-0.0271492
-0.042285
-0.0574884
-0.0326695
-0.0328736
-0.038167
-0.0635071
-0.0538011
-0.0540953
-0.0595255
-0.0749102
-0.0803175
-0.0807018
-0.0812001
-0.0917439
-0.0922861
-0.0878515
-0.0935307
-0.109253
-0.0950232
-0.100815
-0.0967193
-0.112647
-0.113643
-0.114661
-0.100769
-0.111991
-0.12328
-0.124547
-0.11586
-0.117262
-0.0937791
-0.0651588
-0.0516291
-0.0580096
-0.0643663
-0.0407014
-0.0269914
-0.018168
-0.0292764
-0.0302496
-0.0261321
-0.0169249
-0.0326262
-0.0381236
-0.0385084
-0.0635538
-0.0885091
-0.0882387
-0.0677857
-0.0571065
-0.066247
-0.085206
-0.0940747
-0.102876
-0.111721
-0.150567
-0.139367
-0.148213
-0.157242
-0.181405
-0.170704
-0.160138
-0.174709
-0.179438
-0.174167
-0.153917
-0.163918
-0.179008
-0.184099
-0.169235
-0.164507
-0.184846
-0.225163
-0.295525
-0.340932
-0.291384
-0.201881
0.0276666
0.487192
0.646673
1.5062
1.90577
2.02538
1.81491
1.17946
0.399119
-0.121175
-0.286491
-0.291875
-0.157192
-0.0524411
-0.0527353
-0.112962
-0.14812
-0.128369
-0.143573
-0.168732
-0.183914
-0.184027
-0.189073
-0.204164
-0.20921
-0.194255
-0.189211
-0.189211
-0.214165
-0.199097
-0.194075
-0.204121
-0.204097
-0.199051
-0.189097
-0.194232
-0.204278
-0.194277
-0.174299
-0.179389
-0.184412
-0.169479
-0.164525
-0.159616
-0.164751
-0.144932
-0.13009
-0.120339
-0.12061
-0.10595
-0.0763578
-0.0618548
-0.0523763
-0.0379415
-0.013484
0.0258827
0.0302048
0.0494585
0.0838246
0.118146
0.132355
0.141449
0.175658
0.224979
0.229504
0.244165
0.253962
0.283781
0.313464
0.308192
0.323079
0.343169
0.353305
0.34344
0.338553
0.333825
0.329142
0.314436
0.25973
0.259978
0.23516
0.200364
0.150635
0.130929
0.0962229
0.0664048
0.0364952
0.0365186
0.0165858
-0.00850534
-0.028573
-0.0187087
-0.013845
-0.0138226
-0.0335059
-0.0331216
-0.0230536
-0.0335512
-0.0402937
-0.0439138
-0.0347743
-0.0476475
-0.0620813
-0.0719233
-0.0656562
-0.0667419
-0.0699091
-0.0763116
-0.0668554
-0.0521264
-0.062624
-0.0674663
-0.0601583
-0.0419235
-0.0396833
-0.0456567
-0.0210404
-0.00232983
-0.011312
-0.0138464
-0.0187793
-0.00441217
-0.0100012
-0.0200014
-0.0195494
-0.0240288
-0.023757
-0.0186214
-0.0334411
-0.0283275
-0.0232596
-0.0382824
-0.053328
-0.043396
-0.0435767
-0.0487347
-0.0689158
-0.0490966
-0.064187
-0.0744362
-0.074708
-0.0700016
-0.0803194
-0.0906363
-0.0860438
-0.0814734
-0.0769029
-0.0873327
-0.0878534
-0.0983958
-0.104007
-0.0946856
-0.105433
-0.111292
-0.10722
-0.0981917
-0.104232
-0.0953417
-0.0915174
-0.0727386
-0.0640054
-0.0602951
-0.0416307
-0.0379443
-0.039278
-0.035635
-0.0268564
-0.0130787
-0.0243006
-0.0255003
-0.0115638
0.0124412
-0.00344133
-0.0291882
-0.0496187
-0.0499811
-0.065094
-0.0751162
-0.0499344
-0.0344143
-0.0537581
-0.0879893
-0.107016
-0.105817
-0.0945272
-0.11817
-0.141789
-0.140318
-0.138824
-0.152535
-0.161246
-0.165047
-0.159029
-0.153125
-0.162355
-0.156767
-0.146246
-0.140795
-0.160432
-0.165228
-0.160139
-0.155116
-0.165026
-0.224958
-0.279913
-0.284913
-0.229935
-0.109981
0.169884
0.604771
1.08966
1.51957
1.85943
1.9643
1.72416
1.11903
0.433913
-0.0261769
-0.261245
-0.271312
-0.131334
-0.0463552
-0.0613775
-0.106333
-0.131265
-0.126242
-0.136197
-0.146128
-0.186015
-0.180948
-0.170835
-0.1807
-0.195611
-0.19052
-0.185385
-0.200249
-0.205137
-0.210047
-0.199798
-0.199595
-0.214392
-0.209166
-0.203984
-0.203804
-0.193623
-0.203441
-0.183215
-0.178033
-0.197783
-0.187693
-0.167602
-0.157465
-0.16233
-0.162239
-0.137171
-0.122012
-0.126876
-0.136786
-0.106809
-0.0818539
-0.0719666
-0.0622387
-0.0324879
-0.00273705
0.0169692
0.0216289
0.0562444
0.0858154
0.110544
0.120204
0.144888
0.179684
0.204661
0.209707
0.229843
0.259978
0.270182
0.275363
0.295589
0.325861
0.331336
0.331903
0.317694
0.323463
0.304187
0.29482
0.255476
0.246109
0.231833
0.187625
0.15344
0.144141
0.119684
0.0802732
0.0507708
0.0313134
0.0217881
-0.00282669
-0.0224652
-0.0321259
-0.0316501
-0.0357904
-0.0297036
-0.0537305
-0.0431418
-0.0383677
-0.0555859
-0.0754724
-0.0629158
-0.0573282
-0.067667
-0.0822601
-0.0940924
-0.0871019
-0.0824862
-0.0920563
-0.0869431
-0.0717621
-0.0618305
-0.0705638
-0.0671697
-0.0514455
-0.0387316
-0.0344334
-0.0245919
-0.000678062
0.00554371
0.00368834
-0.00527048
0.00475264
0.00979805
0.000431538
-0.00352764
-0.0125771
-0.00180769
0.00387192
-0.015449
-0.0048151
-0.00424862
-0.00879669
-0.0233674
-0.0330048
-0.00766563
-0.0123715
-0.0321007
-0.0318971
-0.0317388
-0.0265803
-0.0565586
-0.0615592
-0.0565825
-0.0566955
-0.0619001
-0.0772166
-0.0675559
-0.0678954
-0.083416
-0.0939817
-0.0896835
-0.0705204
-0.0814481
-0.0924888
-0.0886421
-0.0898867
-0.0962667
-0.112692
-0.104163
-0.0906792
-0.0773535
-0.0740499
-0.0708146
-0.0424666
-0.0390725
-0.0505886
-0.0469918
-0.0332589
-0.0145259
-0.0105448
-0.0363359
-0.016789
-0.002038
-0.0170603
-0.051744
-0.0461106
-0.0602727
-0.0592322
-0.0679421
-0.0515399
-0.0449791
-0.0632143
-0.106359
-0.109391
-0.132378
-0.140341
-0.153282
-0.151382
-0.154481
-0.162738
-0.191041
-0.179481
-0.1681
-0.161856
-0.160725
-0.189752
-0.168914
-0.168168
-0.177489
-0.181946
-0.176561
-0.171244
-0.215996
-0.31077
-0.365589
-0.335362
-0.245182
-0.0750914
0.370022
0.970067
1.54011
1.95522
2.15538
1.99563
1.39088
0.536108
-0.103666
-0.338395
-0.273123
-0.232829
-0.0574899
-0.0721045
-0.106697
-0.136268
-0.14586
-0.155407
-0.169888
-0.204344
-0.213801
-0.218235
-0.212647
-0.222081
-0.236447
-0.225836
-0.230248
-0.224592
-0.229026
-0.233438
-0.227714
-0.227013
-0.221289
-0.235656
-0.225023
-0.199367
-0.203802
-0.208124
-0.197468
-0.176858
-0.181224
-0.185704
-0.160184
-0.144845
-0.139573
-0.134459
-0.109391
-0.079278
-0.0742779
-0.0643001
-0.0343227
-0.00443506
0.0304065
0.0402031
0.0699997
0.114819
0.149728
0.164728
0.194728
0.229796
0.254818
0.259751
0.284729
0.31991
0.360294
0.345724
0.346312
0.357059
0.362828
0.353665
0.35957
0.340634
0.321787
0.272828
0.238892
0.215069
0.176223
0.132264
0.093215
0.0690746
0.0449796
0.03093
0.00188065
-0.0221009
-0.0108337
-0.0293412
-0.0377803
-0.0566711
-0.0562868
-0.0424414
-0.0561295
-0.0675097
-0.0762424
-0.0715141
-0.0868087
-0.0999537
-0.0891848
-0.0798182
-0.0890942
-0.0982571
-0.102962
-0.0829172
-0.0731435
-0.0782118
-0.0731664
-0.0682349
-0.0635738
-0.0691171
-0.0844564
-0.0543208
-0.0533481
-0.0504069
-0.0597515
-0.0465164
-0.0313358
-0.0403175
-0.0350461
-0.0274673
-0.0136895
-0.0178523
-0.0281243
-0.0281239
-0.0229654
-0.0220156
-0.036201
-0.040545
-0.025003
-0.0295048
-0.0491652
-0.0539393
-0.0388255
-0.0438032
-0.053916
-0.0590744
-0.0643682
-0.0547752
-0.0603175
-0.0809731
-0.0717192
-0.0675335
-0.0935068
-0.109615
-0.10586
-0.0872183
-0.093802
-0.115521
-0.10724
-0.109095
-0.111019
-0.123079
-0.130182
-0.107331
-0.104594
-0.0968337
-0.0890284
-0.0511551
-0.0432591
-0.0602274
-0.0519919
-0.0386209
-0.0400238
-0.0361547
-0.0370374
-0.022603
-0.00287533
-0.0178523
-0.0474672
-0.0618343
-0.060884
-0.0797296
-0.083395
-0.0518789
-0.0452948
-0.0735302
-0.111629
-0.11448
-0.117308
-0.145137
-0.157988
-0.165861
-0.163735
-0.176585
-0.189549
-0.187604
-0.17084
-0.17928
-0.187899
-0.196745
-0.170772
-0.164979
-0.174345
-0.193847
-0.178439
-0.188122
-0.262918
-0.357691
-0.377578
-0.302532
-0.152555
0.172422
0.732468
1.32244
1.83244
2.14244
2.15747
1.69249
0.832535
0.0376706
-0.292261
-0.297171
-0.177103
-0.132036
-0.0768542
-0.106605
-0.126335
-0.146018
-0.180679
-0.19034
-0.204978
-0.219639
-0.234186
-0.223712
-0.223214
-0.22274
-0.23731
-0.221813
-0.21636
-0.225863
-0.240432
-0.229933
-0.219368
-0.213892
-0.208462
-0.208032
-0.192602
-0.19215
-0.196765
-0.196358
-0.170996
-0.16068
-0.170476
-0.160296
-0.13525
-0.12025
-0.100294
-0.0904756
-0.0505886
-0.0307465
-0.00597286
0.00380087
0.0335975
0.0682354
0.097806
0.127353
0.162127
0.202014
0.226923
0.25181
0.261606
0.30138
0.331244
0.336131
0.356221
0.376447
0.381787
0.372217
0.372828
0.368552
0.354321
0.330158
0.291018
0.261855
0.237738
0.203665
0.14966
0.115678
0.0816517
0.0625339
0.00828075
-0.00597239
-0.0102711
-0.0243216
-0.0328741
-0.0461774
-0.0399327
-0.0544567
-0.0754981
-0.0790048
-0.0702267
-0.0686879
-0.0885983
-0.0983939
-0.101177
-0.105249
-0.116086
-0.105589
-0.0899549
-0.0797973
-0.0852499
-0.0857024
-0.075861
-0.0709739
-0.0660868
-0.0761771
-0.0761771
-0.0713811
-0.0669465
-0.0626478
-0.0680103
-0.0676937
-0.0658607
-0.0565395
-0.0595937
-0.0502954
-0.0295491
-0.0237799
-0.0250692
-0.0252733
0.000949383
-0.0143909
-0.0197749
-0.0245714
-0.0292096
-0.0336442
-0.0432582
-0.0479417
-0.0477376
-0.0427375
-0.0529184
-0.0631895
-0.0585513
-0.0640259
-0.0695462
-0.0801339
-0.0657229
-0.076447
-0.0873294
-0.103281
-0.0893888
-0.0956335
-0.116923
-0.108371
-0.0999093
-0.0964699
-0.0981894
-0.119999
-0.111922
-0.103936
-0.101017
-0.113143
-0.0952702
-0.0774651
-0.0546594
-0.0568538
-0.0540705
-0.0311522
-0.0381203
-0.0348625
-0.0414453
-0.0328484
-0.0340476
-0.0250425
-0.0257435
-0.0161514
-0.0462198
-0.0760393
-0.100587
-0.0849071
-0.0639577
-0.057827
-0.0865374
-0.0950441
-0.113416
-0.136605
-0.14975
-0.157871
-0.156016
-0.169138
-0.192237
-0.195404
-0.183685
-0.177124
-0.180698
-0.189385
-0.188231
-0.172305
-0.17658
-0.186105
-0.170743
-0.170563
-0.180427
-0.240405
-0.320473
-0.37054
-0.300722
-0.170948
0.158781
0.698509
1.26821
1.7479
2.0576
2.03229
1.57199
0.736677
0.0213141
-0.259026
-0.299252
-0.204455
-0.0796132
-0.0548172
-0.114998
-0.135157
-0.155293
-0.145337
-0.17536
-0.205359
-0.220382
-0.210427
-0.210382
-0.210336
-0.220291
-0.210268
-0.200111
-0.210042
-0.219974
-0.209861
-0.219748
-0.214545
-0.21941
-0.204229
-0.199027
-0.2088
-0.198642
-0.188484
-0.178281
-0.1831
-0.177988
-0.167897
-0.137807
-0.132716
-0.127694
-0.117693
-0.0977159
-0.0827608
-0.0829191
-0.0681686
-0.0185075
0.00117588
0.0257463
0.0403166
0.0598187
0.104186
0.128665
0.138145
0.172557
0.206991
0.231471
0.246019
0.260656
0.295362
0.305023
0.30973
0.31948
0.344436
0.364548
0.354729
0.340046
0.330453
0.31595
0.301471
0.267014
0.252625
0.223349
0.189073
0.144797
0.125385
0.105861
0.0812907
0.0466986
0.0172186
0.0227399
0.00816917
-0.0164456
-0.036129
-0.0255189
-0.0246596
-0.0290484
-0.0339575
-0.0450664
-0.0482788
-0.0540032
-0.0668316
-0.0762205
-0.0860624
-0.0947957
-0.105519
-0.0978265
-0.0780077
-0.0725322
-0.0871477
-0.092351
-0.0728269
-0.0686188
-0.0796595
-0.0708585
-0.0566735
-0.0617867
-0.0804062
-0.0715151
-0.0449548
-0.0311766
-0.0259962
-0.0209737
-0.00298691
0.0111985
-0.0027833
-0.0181231
-0.00862169
-0.0086441
-0.00305557
-0.00737762
-0.00201559
-0.00172138
-0.0164948
-0.0313144
-0.0363135
-0.0264263
-0.0166068
-0.0317645
-0.0369902
-0.0372615
-0.0325322
-0.057826
-0.0481648
-0.0485492
-0.0490017
-0.0544991
-0.0851326
-0.0757895
-0.0614905
-0.0822601
-0.0931206
-0.0841155
-0.0901341
-0.10622
-0.112465
-0.103822
-0.100202
-0.0966954
-0.108211
-0.104817
-0.0964451
-0.0980744
-0.099771
-0.0865364
-0.0533013
-0.0450206
-0.0616722
-0.0533242
-0.0398622
-0.0313554
-0.0227814
-0.0390487
-0.0301118
-0.0109935
-0.0166497
-0.0471025
-0.0523057
-0.0623283
-0.072125
-0.0716276
-0.0609035
-0.0499988
-0.0689354
-0.102668
-0.111243
-0.114818
-0.138302
-0.151876
-0.160429
-0.153958
-0.167601
-0.181289
-0.180112
-0.169094
-0.168257
-0.172442
-0.186786
-0.166265
-0.170813
-0.165541
-0.175337
-0.175201
-0.180179
-0.270224
-0.34027
-0.295337
-0.18036
0.0695271
0.509323
1.0591
1.53392
1.88374
1.97846
1.72319
1.05792
0.317648
-0.157623
-0.312895
-0.278076
-0.148302
-0.0985508
-0.0887542
-0.113913
-0.129071
-0.144139
-0.16923
-0.169298
-0.18441
-0.204501
-0.214546
-0.214546
-0.204524
-0.214501
-0.209455
-0.224365
-0.204319
-0.209274
-0.219207
-0.229048
-0.223912
-0.213776
-0.21864
-0.223504
-0.203346
-0.193211
-0.198075
-0.19794
-0.192737
-0.177579
-0.167443
-0.177286
-0.162127
-0.142037
-0.141902
-0.136812
-0.116745
-0.0966311
-0.0866313
-0.0815859
-0.0515184
-0.026473
-0.0065403
0.00836945
0.0331655
0.0778041
0.0973973
0.107013
0.141606
0.176177
0.200702
0.210182
0.219684
0.254209
0.283711
0.283191
0.287919
0.322738
0.342625
0.342648
0.347693
0.352761
0.362806
0.342829
0.312943
0.29826
0.288599
0.258984
0.234346
0.199685
0.170115
0.130567
0.0960422
0.07163
0.0521283
0.0375128
0.027853
-0.0068984
0.00328302
-0.0166039
-0.0365353
-0.0464907
-0.0515361
-0.0515809
-0.0516486
-0.0566478
-0.0715127
-0.0560603
-0.0503368
-0.0695229
-0.0590696
-0.038753
-0.0403814
-0.0443859
-0.0558572
-0.0549059
-0.060811
-0.0869651
-0.0814676
-0.0767393
-0.0713549
-0.0761518
-0.073029
-0.0433469
-0.0336404
-0.0255866
-0.0256538
-0.0137544
0.00613308
-0.00970411
-0.0153599
-0.0153379
-0.00490665
-0.00940847
-0.0190692
-0.0287299
-0.00843573
-0.0181422
-0.0279388
-0.027781
-0.0176444
-0.0225544
-0.0325098
-0.0374198
-0.0323744
-0.0322618
-0.0372849
-0.0522847
-0.0472622
-0.0672393
-0.0573306
-0.0624886
-0.0575562
-0.0576243
-0.0777373
-0.0878272
-0.0928941
-0.082984
-0.0881195
-0.0932779
-0.0934806
-0.0986166
-0.0937972
-0.104023
-0.104228
-0.0944996
-0.0897937
-0.105156
-0.110495
-0.110925
-0.101401
-0.116899
-0.102442
-0.088007
-0.0685725
-0.0491843
-0.0447268
-0.0402699
-0.0308356
-0.0213561
-0.0218992
-0.00741911
-0.00291729
-0.00846004
-0.00398064
0.0155897
-0.00486279
-0.0153151
-0.0456553
-0.0659943
-0.0562201
-0.0513563
-0.0364919
-0.0465598
-0.0564919
-0.0814919
-0.0914469
-0.131357
-0.131131
-0.135881
-0.165655
-0.170474
-0.165292
-0.180088
-0.179908
-0.189795
-0.189682
-0.174501
-0.18441
-0.184274
-0.184251
-0.174297
-0.169297
-0.184365
-0.179365
-0.184387
-0.214387
-0.289477
-0.364568
-0.364591
-0.289681
-0.254749
0.165229
0.690229
1.23023
1.71016
2.05009
2.15005
1.89991
1.21487
0.404843
-0.110202
-0.280271
-0.275384
-0.185384
-0.0754519
-0.0505199
-0.120565
-0.150633
-0.145634
-0.150679
-0.170724
-0.210747
-0.215792
-0.205815
-0.220882
-0.225996
-0.251041
-0.231087
-0.236132
-0.251177
-0.251223
-0.241245
-0.241245
-0.241312
-0.251358
-0.236403
-0.22138
-0.231426
-0.241471
-0.226584
-0.206629
-0.216629
-0.221629
-0.216652
-0.201674
-0.196764
-0.196877
-0.186967
-0.176991
-0.152013
-0.157059
-0.157149
-0.132239
-0.117307
-0.10242
-0.0925112
-0.0575342
-0.0425797
-0.0126705
0.00214815
0.0370126
0.0717869
0.0965152
0.111154
0.145859
0.175678
0.195519
0.210316
0.235112
0.274908
0.29475
0.299636
0.319478
0.349341
0.359273
0.364364
0.369431
0.379522
0.3995
0.374297
0.359093
0.364048
0.359184
0.309343
0.294502
0.269638
0.249819
0.189887
0.159932
0.130023
0.110023
0.0700679
0.030045
0.00999975
0.0049777
-0.0100455
-0.0351133
-0.0502038
-0.050271
-0.0453615
-0.0504298
-0.0704751
-0.0604296
-0.0752039
-0.0696154
-0.0789137
-0.0735073
-0.058846
-0.0704975
-0.0791402
-0.0799541
-0.0781212
-0.0913339
-0.0979853
-0.0911527
-0.0815363
-0.0743194
-0.0592737
-0.0545912
-0.0429401
-0.0303836
-0.0355873
-0.0316052
-0.0373974
-0.0226469
-0.0223074
-0.0319009
-0.0166512
-0.0114031
-0.0161309
-0.0208592
-0.0255876
-0.0104976
-0.0204301
-0.0203629
-0.02034
-0.015317
-0.0254078
-0.0354309
-0.0354762
-0.0255899
-0.0356579
-0.0507488
-0.0408845
-0.0409975
-0.0411334
-0.0612459
-0.061358
-0.0564709
-0.0616512
-0.0668092
-0.0818992
-0.0770802
-0.0723062
-0.0925546
-0.0878263
-0.088098
-0.0834374
-0.103777
-0.109162
-0.104478
-0.0999088
-0.0954518
-0.110995
-0.101607
-0.0971951
-0.107896
-0.118575
-0.114367
-0.0950909
-0.0958371
-0.0915833
-0.0673308
-0.0329866
-0.028666
-0.0342765
-0.0349097
-0.0204754
-0.0110178
-0.00156116
-0.0119681
-0.00721693
0.00753498
-0.00262451
-0.0126238
-0.02742
-0.0420585
-0.0565605
-0.0609727
-0.0401587
-0.0293889
-0.058394
-0.082262
-0.0960178
-0.104819
-0.123575
-0.142421
-0.15629
-0.15034
-0.16439
-0.173529
-0.187759
-0.167103
-0.176537
-0.181107
-0.190722
-0.180383
-0.160156
-0.174953
-0.169793
-0.174635
-0.169454
-0.184341
-0.239227
-0.314227
-0.34416
-0.309137
-0.21916
-0.00409174
0.435976
0.991021
1.546
1.97595
2.15595
1.926
1.79102
0.451087
-0.0738444
-0.243731
-0.258687
-0.163619
-0.0684605
-0.0583472
-0.103234
-0.133121
-0.15294
-0.142668
-0.17742
-0.207215
-0.206898
-0.211559
-0.231197
-0.23097
-0.230676
-0.220382
-0.224998
-0.229658
-0.229319
-0.223979
-0.223595
-0.223211
-0.232827
-0.217443
-0.207081
-0.211628
-0.216221
-0.205814
-0.190453
-0.200068
-0.194706
-0.184344
-0.178983
-0.168643
-0.163371
-0.153054
-0.132782
-0.127465
-0.112171
-0.101878
-0.0817199
-0.0715384
-0.0514483
-0.0265155
-0.00156069
0.0283036
0.038168
0.0730324
0.102851
0.142625
0.157353
0.177127
0.211856
0.246584
0.251448
0.271471
0.291651
0.3269
0.33224
0.342557
0.367851
0.37819
0.363575
0.369073
0.369729
0.365429
0.331154
0.30181
0.277421
0.268077
0.238823
0.224615
0.160452
0.136131
0.106765
0.0673084
0.0427608
0.038168
0.0235076
0.00371122
-0.0261078
-0.0359492
-0.0357904
-0.0505199
-0.0699086
-0.0590725
-0.0532126
-0.0579424
-0.0585303
-0.0709071
-0.0658159
-0.0680561
-0.0872188
-0.102197
-0.101246
-0.0976262
-0.110883
-0.111924
-0.0969462
-0.101471
-0.11052
-0.108099
-0.0832353
-0.0606112
-0.065928
-0.0654306
-0.0409055
-0.0318556
-0.0288019
-0.0331454
-0.0232811
-0.0234623
-0.0330777
-0.027308
-0.0214949
-0.0259066
-0.0253639
-0.0449796
-0.0496402
-0.0243917
-0.0441885
-0.054008
-0.0638952
-0.0388727
-0.0388503
-0.0488954
-0.0689855
-0.0590982
-0.0541883
-0.0642552
-0.0843911
-0.0845037
-0.0746622
-0.0848875
-0.0951366
-0.105407
-0.0957017
-0.0959959
-0.106426
-0.111902
-0.102445
-0.108033
-0.113734
-0.124527
-0.105319
-0.111133
-0.122151
-0.12826
-0.124413
-0.120499
-0.111721
-0.122987
-0.0993223
-0.0606122
-0.0619473
-0.0582371
-0.0494356
-0.0455666
-0.0465841
-0.047648
-0.0335531
-0.0243673
-0.0149779
-0.0104303
-0.0157022
-0.01577
-0.045589
-0.0652041
-0.0845251
-0.0636883
-0.0476475
-0.0464258
-0.0650234
-0.0835524
-0.101924
-0.120205
-0.133554
-0.132015
-0.135477
-0.159006
-0.182626
-0.171313
-0.170001
-0.164028
-0.178191
-0.172489
-0.161923
-0.171448
-0.176131
-0.160859
-0.150609
-0.160474
-0.170473
-0.210542
-0.265678
-0.325881
-0.336108
-0.216312
-0.0165157
0.39828
0.942964
1.46269
1.88242
2.06715
1.84688
1.20165
0.436424
-0.0838013
-0.274051
-0.2943
-0.18448
-0.0696831
-0.0548644
-0.110023
-0.135091
-0.135181
-0.150318
-0.180386
-0.195453
-0.190453
-0.185453
-0.190407
-0.220385
-0.210339
-0.210226
-0.20509
-0.224999
-0.209931
-0.189886
-0.204819
-0.224683
-0.219592
-0.20948
-0.209412
-0.209277
-0.194141
-0.174051
-0.173961
-0.183849
-0.188759
-0.168669
-0.173623
-0.163623
-0.158578
-0.138577
-0.123555
-0.123645
-0.128781
-0.0889163
-0.0640755
-0.0594139
-0.0447984
-0.0102506
0.0143199
0.0238452
0.0333705
0.0878496
0.127216
0.141583
0.140927
0.180249
0.209593
0.233981
0.243551
0.278348
0.29328
0.303326
0.298281
0.308213
0.348122
0.35319
0.348416
0.323689
0.324096
0.319639
0.280159
0.245679
0.221154
0.191607
0.162014
0.127444
0.112988
0.0835981
0.0540729
0.0244122
0.00466156
0.014843
0.00495577
-0.0249996
-0.0349541
-0.0249538
-0.0399761
-0.0548401
-0.0443654
-0.0387092
-0.0384607
-0.0488901
-0.055655
-0.0297732
-0.0412207
-0.0647273
-0.0795236
-0.0696368
-0.0632563
-0.0690479
-0.0768533
-0.0626454
-0.0627136
-0.0675998
-0.0672607
-0.050292
-0.0458126
-0.0336862
-0.0346365
-0.0297499
-0.0207229
-0.00447845
-0.0117631
-0.00635529
0.00823832
-0.0122151
-0.0172143
-0.0217171
-0.0061059
-0.0107212
-0.020472
-0.0202456
-0.0200872
-0.0199971
-0.0349746
-0.0400209
-0.04002
-0.0350428
-0.050179
-0.0603595
-0.0605407
-0.0557208
-0.0509706
-0.0662193
-0.0764232
-0.0666714
-0.0769882
-0.0923734
-0.092803
-0.0832558
-0.0837317
-0.0842748
-0.104773
-0.100406
-0.091085
-0.101922
-0.112805
-0.1038
-0.104796
-0.105882
-0.122082
-0.108348
-0.0896831
-0.0911307
-0.0975561
-0.063982
-0.0454297
-0.0369229
-0.0483942
-0.0498419
-0.0312443
-0.0276017
-0.0138235
-0.0199089
-0.0109267
-0.00194454
0.00224066
-0.0184379
-0.0338449
-0.044116
-0.0741386
-0.0939808
-0.0635738
-0.0530534
-0.04742
-0.081471
-0.100271
-0.0989819
-0.117693
-0.141357
-0.139977
-0.138756
-0.157512
-0.171403
-0.18043
-0.164525
-0.173665
-0.187963
-0.177398
-0.166968
-0.166606
-0.171357
-0.171084
-0.155835
-0.160768
-0.1757
-0.195699
-0.220722
-0.29579
-0.330858
-0.255926
-0.101017
0.203825
0.713644
1.22355
1.69344
1.9883
2.04812
1.70796
1.04285
0.327805
-0.177263
-0.347286
-0.267399
-0.117489
-0.0624895
-0.0724893
-0.137489
-0.142422
-0.142354
-0.172331
-0.202353
-0.187263
-0.197217
-0.207127
-0.216991
-0.206878
-0.201766
-0.211629
-0.21647
-0.211312
-0.206153
-0.20595
-0.220814
-0.220655
-0.200497
-0.205294
-0.205158
-0.209999
-0.189887
-0.189773
-0.184683
-0.18957
-0.174389
-0.164255
-0.169165
-0.174074
-0.154029
-0.133984
-0.128962
-0.123986
-0.0940528
-0.0841432
-0.0544138
-0.0547986
-0.0251603
0.00447845
0.0240035
0.0334606
0.0578947
0.102397
0.131809
0.146175
0.165655
0.200247
0.224885
0.234773
0.25975
0.289727
0.309682
0.309659
0.309728
0.334954
0.345362
0.345814
0.346334
0.341968
0.342692
0.308415
0.289049
0.26966
0.245135
0.200611
0.171108
0.156606
0.127194
0.0776701
0.0530324
0.0283494
0.0185986
0.00377893
-0.000994205
-0.0404515
-0.0345016
-0.0336194
-0.0482802
-0.0738907
-0.0565157
-0.0619907
-0.0702038
-0.0953169
-0.100927
-0.105272
-0.116177
-0.1081
-0.117896
-0.0923982
-0.102285
-0.107986
-0.0991621
-0.0952253
-0.0907907
-0.0856776
-0.0841384
-0.0701795
-0.0638218
-0.0652695
-0.0504279
-0.0252466
-0.0115585
-0.0208578
-0.0184369
-0.0133233
0.00611162
-0.00409222
-0.0236397
-0.00796127
-0.00734997
-0.0169883
-0.0267625
-0.0215583
-0.0114913
-0.0264678
-0.0264907
-0.0315132
-0.0266266
-0.0418067
-0.0470328
-0.0573277
-0.0476894
-0.0530515
-0.0634818
-0.0739574
-0.0594559
-0.0650887
-0.0808587
-0.0966501
-0.0825329
-0.0834837
-0.0896363
-0.100881
-0.0972381
-0.0986633
-0.11027
-0.116943
-0.118685
-0.11045
-0.112442
-0.129477
-0.12658
-0.108685
-0.10079
-0.0978942
-0.0800433
-0.0520573
-0.0490942
-0.0609946
-0.0476923
-0.0242534
-0.0206556
-0.0368543
-0.0327601
-0.00837088
-0.0137329
-0.0388455
-0.0536876
-0.0732346
-0.0725327
-0.0616279
-0.0654731
-0.0691609
-0.0678711
-0.0963788
-0.119795
-0.133098
-0.136288
-0.149523
-0.162735
-0.180948
-0.174274
-0.177668
-0.17622
-0.194908
-0.168776
-0.157781
-0.171853
-0.181129
-0.175586
-0.165156
-0.169862
-0.179681
-0.189613
-0.259501
-0.369591
-0.36975
-0.259908
-0.0351124
0.399571
1.01428
1.62896
2.05867
2.16842
1.88308
1.12271
0.257398
-0.217829
-0.298168
-0.233417
-0.0786428
-0.0488691
-0.109073
-0.144277
-0.139412
-0.149525
-0.174616
-0.194684
-0.209751
-0.199728
-0.214706
-0.224661
-0.229547
-0.219501
-0.214366
-0.23423
-0.233981
-0.228777
-0.223642
-0.218438
-0.228211
-0.203076
-0.197895
-0.197736
-0.217532
-0.192328
-0.202102
-0.191875
-0.186695
-0.166535
-0.146399
-0.141331
-0.146242
-0.126173
-0.111106
-0.106106
-0.0911059
-0.0612187
-0.0364232
-0.0217624
-0.0071249
0.0324903
0.0721059
0.0966077
0.115996
0.150385
0.179752
0.204095
0.203394
0.247738
0.277194
0.311742
0.316357
0.321018
0.350701
0.370475
0.370408
0.375452
0.375679
0.360928
0.351335
0.3269
0.307511
0.288076
0.253777
0.214547
0.18027
0.155926
0.116583
0.072103
0.052578
0.0281429
0.0137539
0.0192976
-0.0252275
-0.0197978
-0.0342546
-0.0583715
-0.0473533
-0.0566287
-0.0566745
-0.0683489
-0.0776701
-0.0697737
-0.0742316
-0.0900908
-0.100634
-0.108665
-0.100725
-0.11163
-0.111087
-0.105613
-0.0906348
-0.0812235
-0.0969477
-0.092762
-0.0739388
-0.0750923
-0.0806813
-0.080184
-0.0626044
-0.0521746
-0.0489626
-0.0638032
-0.0281239
-0.0087347
-0.0177617
-0.0257702
-0.0108609
-0.00624514
-0.0213804
-0.0258598
-0.0201807
-0.0147514
-0.0244789
-0.0242305
-0.0290947
-0.0240712
-0.0241389
-0.0543203
-0.0495238
-0.0397506
-0.0500445
-0.0504293
-0.0708146
-0.0662222
-0.0717659
-0.0723543
-0.0780106
-0.0786662
-0.0843682
-0.075182
-0.096065
-0.087038
-0.088079
-0.1043
-0.110567
-0.117037
-0.103508
-0.11516
-0.116834
-0.11353
-0.11025
-0.112105
-0.124006
-0.120928
-0.107919
-0.0898881
-0.086834
-0.0737123
-0.0555897
-0.0523319
-0.0589385
-0.0454092
-0.0167441
-0.0178761
-0.0237803
-0.0245047
-0.0149345
-0.0152063
-0.0401382
-0.0747986
-0.0841427
-0.0733957
-0.0674224
-0.0811782
-0.0947971
-0.0882807
-0.121606
-0.134933
-0.153259
-0.161607
-0.165001
-0.168485
-0.192105
-0.180815
-0.174662
-0.183689
-0.197852
-0.187242
-0.176789
-0.186428
-0.201201
-0.191065
-0.175907
-0.195997
-0.246065
-0.336223
-0.371473
-0.321586
-0.166835
0.172803
0.762441
1.37208
1.89174
2.1814
2.13608
1.59074
1.3604
-0.00991392
-0.325298
-0.300615
-0.195886
-0.0812025
-0.0614061
-0.111587
-0.141723
-0.146791
-0.161858
-0.17688
-0.201903
-0.216903
-0.216857
-0.216857
-0.22188
-0.221812
-0.226699
-0.211586
-0.226427
-0.241269
-0.231111
-0.220974
-0.225861
-0.230703
-0.230477
-0.220227
-0.204956
-0.204752
-0.204503
-0.194299
-0.179208
-0.189073
-0.183937
-0.1688
-0.158665
-0.148642
-0.138642
-0.128596
-0.108528
-0.103483
-0.0885057
-0.0735283
-0.0335059
-0.00857353
0.00633574
0.0260863
0.06077
0.0953846
0.104886
0.149388
0.173868
0.198347
0.207781
0.23217
0.261628
0.281039
0.300428
0.309863
0.334456
0.344162
0.359025
0.343958
0.353912
0.363845
0.358822
0.333981
0.319229
0.309568
0.269975
0.235473
0.20597
0.176401
0.141739
0.127079
0.0824628
0.0528703
0.0432549
0.0135264
-0.0161791
-0.0159979
-0.0308394
-0.0357947
-0.0508852
-0.0509987
-0.04109
-0.0562487
-0.0664301
-0.0615888
-0.0567241
-0.0463614
-0.0558639
-0.0555687
-0.0507274
-0.0469031
-0.0500026
-0.04532
-0.0528989
-0.0575137
-0.0732374
-0.10344
-0.090838
-0.0692091
-0.0785985
-0.0792761
-0.0619459
-0.0475335
-0.0473528
-0.0326467
-0.0251799
-0.00859594
-0.00318956
-0.0192981
-0.0252252
-0.000678062
-0.0153842
-0.0349765
-0.0398192
-0.0346832
-0.034502
-0.04948
-0.0495477
-0.0396614
-0.0448194
-0.0400681
-0.0602946
-0.055521
-0.0557704
-0.0710649
-0.0913363
-0.0766525
-0.0720596
-0.0824213
-0.0828285
-0.0882812
-0.0986657
-0.114141
-0.119593
-0.110023
-0.11543
-0.105837
-0.111267
-0.116652
-0.107126
-0.117624
-0.118166
-0.113754
-0.10432
-0.119885
-0.125496
-0.126152
-0.111853
-0.117578
-0.118392
-0.119139
-0.104908
-0.07061
-0.0713334
-0.062058
-0.0426912
-0.0283246
-0.0338669
-0.0345001
-0.0200891
-0.00565481
-0.0211525
-0.021605
-0.012012
-0.0073514
-0.022646
-0.0428939
-0.0630751
-0.0581198
-0.058187
-0.0581417
-0.0529838
-0.0626893
-0.0823498
-0.10701
-0.12158
-0.131196
-0.130789
-0.140495
-0.155246
-0.165042
-0.164817
-0.164681
-0.174658
-0.16468
-0.164793
-0.174997
-0.185223
-0.18054
-0.160811
-0.161128
-0.171491
-0.18183
-0.167192
-0.167576
-0.183006
-0.308459
-0.328888
-0.274341
-0.184839
0.0247087
0.459256
0.963849
1.44344
1.84297
1.99754
1.84711
1.27656
0.540997
0.000566483
-0.229887
-0.285339
-0.225791
-0.106222
-0.0466738
-0.0970588
-0.132466
-0.137805
-0.118123
-0.133461
-0.133869
-0.184208
-0.18957
-0.184955
-0.210339
-0.225679
-0.205973
-0.201312
-0.216651
-0.221991
-0.202308
-0.207533
-0.212804
-0.208144
-0.203483
-0.193844
-0.199207
-0.194546
-0.194908
-0.175225
-0.170497
-0.190837
-0.171312
-0.166765
-0.157171
-0.162602
-0.163099
-0.148462
-0.14387
-0.134323
-0.124753
-0.100205
-0.080658
-0.0761328
-0.0666308
-0.0472188
-0.0179424
-0.00368929
0.0154963
0.0496817
0.0738897
0.103076
0.102216
0.126492
0.160813
0.175157
0.184523
0.208935
0.253438
0.268007
0.272735
0.282486
0.302191
0.311897
0.316581
0.316309
0.331038
0.325812
0.310585
0.30036
0.285203
0.270179
0.235179
0.200112
0.185021
0.154863
0.124704
0.0844326
0.0791388
0.058867
0.0335283
0.0130982
-0.0123773
-0.017807
-0.01826
-0.028645
-0.039052
-0.0345044
-0.0299115
-0.0453186
-0.0505447
-0.0404086
-0.0350685
-0.0448432
-0.049933
-0.0356345
-0.0276933
-0.0274673
-0.0395255
-0.0383716
-0.0524216
-0.0569687
-0.0739827
-0.0661092
-0.0476708
-0.0448203
-0.0401363
-0.0259061
0.00545168
0.00294018
-0.00228596
-0.00846291
0.000315666
-0.000522137
-0.00579357
-0.0157719
-0.0108848
-0.0160203
-0.0161333
-0.0261784
-0.0162463
-0.00626802
-0.0164723
-0.031743
-0.0369697
-0.0422635
-0.0526032
-0.0579424
-0.058259
-0.0485764
-0.058938
-0.0742536
-0.0845709
-0.064887
-0.0652032
-0.0755877
-0.0959725
-0.0863576
-0.0766521
-0.0970588
-0.107444
-0.0977831
-0.0782132
-0.0985527
-0.114006
-0.0994358
-0.089911
-0.110409
-0.105975
-0.101585
-0.0971513
-0.102785
-0.103464
-0.0941424
-0.0798669
-0.075613
-0.0514278
-0.0472651
-0.0181251
-0.0239844
-0.0298214
-0.0256133
-0.00145054
0.00271225
-0.00807905
-0.00384808
0.0103374
0.0145683
-0.0111775
-0.0267887
-0.0473537
-0.0378747
-0.0433731
-0.0438032
-0.0291877
-0.0345039
-0.0496621
-0.07973
-0.09973
-0.0946622
-0.109458
-0.139186
-0.138869
-0.133507
-0.148168
-0.157784
-0.172421
-0.157081
-0.151833
-0.166584
-0.166449
-0.156381
-0.146314
-0.156336
-0.161426
-0.166494
-0.161585
-0.161698
-0.181811
-0.176924
-0.197128
-0.277219
-0.332354
-0.317513
-0.232671
-0.0978742
0.186945
0.661855
1.14676
1.59667
1.73158
2.05142
1.92624
1.35104
0.600904
0.0257678
-0.224391
-0.274549
-0.209707
-0.089776
-0.0298667
-0.0499573
-0.0950704
-0.120161
-0.125275
-0.130387
-0.150455
-0.180546
-0.190659
-0.185772
-0.19584
-0.205885
-0.215862
-0.205862
-0.210907
-0.220953
-0.226042
-0.206132
-0.2062
-0.221245
-0.216312
-0.206312
-0.211402
-0.216516
-0.211583
-0.191628
-0.181628
-0.18674
-0.20183
-0.176852
-0.161965
-0.167011
-0.167124
-0.167147
-0.137191
-0.132282
-0.12735
-0.122395
-0.0924854
-0.077508
-0.077508
-0.0525308
-0.0175524
0.00246954
0.0175371
0.0326276
0.0677857
0.103057
0.12335
0.14369
0.174052
0.189436
0.229798
0.230206
0.245635
0.275974
