ekg
0
0
0
-0.162143
-0.469444
-0.48
-0.259231
0.299333
1.08118
1.74
2.12714
2.17935
1.6608
0.81537
-0.0348276
-0.892419
-1.2997
-0.881
-0.522027
-0.421282
-0.495
-0.598837
-0.660778
-0.630638
-0.604184
-0.57598
-0.535189
-0.551727
-0.561754
-0.576017
-0.583197
-0.561746
-0.541077
-0.522388
-0.499638
-0.515563
-0.529178
-0.540533
-0.539221
-0.529114
-0.490741
-0.45506
-0.428294
-0.410862
-0.387022
-0.358516
-0.341237
-0.298947
-0.251649
-0.214848
-0.18901
-0.168641
-0.118381
-0.0935514
-0.0698624
-0.0160812
0.0529203
0.116696
0.184615
0.227437
0.280785
0.308984
0.3268
0.349488
0.382248
0.425115
0.487406
0.509185
0.520876
0.507878
0.484823
0.456434
0.418345
0.394932
0.351175
0.336656
0.231471
0.176774
0.106752
0.0409121
-0.0255588
-0.0771776
-0.118849
-0.140449
-0.176775
-0.187602
-0.217688
-0.262514
-0.297543
-0.297821
-0.267818
-0.242841
-0.243297
-0.253904
-0.265741
-0.276911
-0.300233
-0.316103
-0.324162
-0.33299
-0.322413
-0.317217
-0.31239
-0.31471
-0.331077
-0.327062
-0.298028
-0.263884
-0.260115
-0.271963
-0.283868
-0.299479
-0.300113
-0.300859
-0.291742
-0.267647
-0.242013
-0.244366
-0.25457
-0.272398
-0.273054
-0.262601
-0.237624
-0.220565
-0.217782
-0.21423
-0.224819
-0.242556
-0.243619
-0.263438
-0.268144
-0.248597
-0.239773
-0.22647
-0.228348
-0.230316
-0.247171
-0.269094
-0.286199
-0.293529
-0.290995
-0.283642
-0.291176
-0.318597
-0.335837
-0.322918
-0.319954
-0.32199
-0.303936
-0.275588
-0.267013
-0.232918
-0.233439
-0.273665
-0.288733
-0.283552
-0.248258
-0.217828
-0.202127
-0.176108
-0.154796
-0.153258
-0.161674
-0.154955
-0.15819
-0.16638
-0.164366
-0.182013
-0.199344
-0.22638
-0.243235
-0.289932
-0.311606
-0.328326
-0.325022
-0.321584
-0.302941
-0.294163
-0.290294
-0.311448
-0.327805
-0.324344
-0.316086
-0.288009
-0.280022
-0.28224
-0.264593
-0.212443
-0.11052
0.101064
0.397308
0.753145
1.13371
1.4941
1.89946
2.31966
2.55475
2.40966
1.7143
0.793914
0.508529
-0.846674
-0.801787
-0.436878
-0.152014
-0.0623305
-0.102783
-0.163258
-0.213688
-0.234072
-0.239344
-0.244502
-0.249683
-0.274819
-0.260045
-0.255453
-0.215928
-0.18129
-0.17138
-0.176312
-0.176244
-0.171357
-0.166629
-0.141946
-0.112262
-0.107511
-0.0976695
-0.107715
-0.0928278
-0.0780994
-0.0587103
-0.0295022
0.0146608
0.0438236
0.0629185
0.0770363
0.0711765
0.0852941
0.089276
0.133213
0.172014
0.230611
0.25914
0.287647
0.336154
0.364751
0.353439
0.396991
0.41043
0.443779
0.45724
0.490928
0.489751
0.488801
0.472828
0.466923
0.446086
0.43534
0.404638
0.33905
0.293552
0.2081
0.147806
0.0974888
0.0669684
0.021335
0.0106789
-0.0147057
-0.0448188
-0.0799546
-0.120113
-0.155701
-0.15724
-0.150407
-0.150679
-0.153416
-0.163733
-0.191538
-0.221448
-0.242624
-0.26405
-0.269231
-0.266063
-0.253846
-0.247534
-0.252059
-0.261108
-0.236946
-0.244231
-0.236764
-0.214321
-0.205995
-0.19724
-0.203416
-0.214525
-0.220611
-0.211787
-0.212851
-0.223756
-0.224208
-0.218778
-0.197059
-0.188733
-0.18862
-0.201968
-0.198597
-0.178393
-0.162217
-0.141697
-0.169321
-0.171131
-0.184208
-0.188484
-0.202647
-0.210226
-0.186584
-0.167669
-0.179027
-0.190724
-0.187783
-0.205022
-0.21733
-0.219774
-0.232443
-0.220475
-0.20362
-0.191855
-0.194909
-0.227918
-0.266041
-0.284479
-0.26319
-0.252217
-0.251403
-0.260588
-0.27466
-0.278869
-0.28819
-0.287692
-0.277217
-0.236697
-0.216108
-0.215294
-0.209231
-0.192851
-0.206199
-0.214231
-0.221968
-0.209299
-0.201154
-0.192376
-0.152986
-0.117896
-0.102375
-0.0865836
-0.105475
-0.124185
-0.107918
-0.101357
-0.0946152
-0.122579
-0.165362
-0.182941
-0.235498
-0.253077
-0.280747
-0.278529
-0.29138
-0.29914
-0.302081
-0.290271
-0.288733
-0.287647
-0.281878
-0.276357
-0.265928
-0.255701
-0.280543
-0.31052
-0.290588
-0.260905
-0.146448
0.0627831
0.412059
0.881403
1.42081
1.98034
2.52986
2.97434
3.23376
3.2581
2.96235
2.17174
1.25124
0.325973
-0.594208
-0.699434
-0.289751
0.0349777
0.0896837
0.0694799
-0.145543
-0.240407
-0.250226
-0.240045
-0.239909
-0.224819
-0.234683
-0.219502
-0.219366
-0.204231
-0.19405
-0.193756
-0.208439
-0.18819
-0.163032
-0.147851
-0.127602
-0.127308
-0.1269
-0.121606
-0.126403
-0.11138
-0.0915382
-0.0768551
-0.0623075
-0.0326242
-0.0128052
0.00199121
0.0316744
0.0513577
0.06086
0.0852038
0.129457
0.18353
0.22267
0.246946
0.246244
0.270543
0.304706
0.368733
0.427851
0.50224
0.541765
0.56638
0.571064
0.605883
0.640815
0.67086
0.69095
0.696222
0.701765
0.682444
0.673168
0.633982
0.594774
0.540407
0.47095
0.396425
0.296969
0.202647
0.108326
0.013982
-0.0507692
-0.0815384
-0.10267
-0.117602
-0.130294
-0.160724
-0.198733
-0.243575
-0.284344
-0.310113
-0.32905
-0.334525
-0.335905
-0.318258
-0.32181
-0.350113
-0.340339
-0.3519
-0.338642
-0.324796
-0.315271
-0.310407
-0.320452
-0.320543
-0.315701
-0.311086
-0.321471
-0.301742
-0.291765
-0.276267
-0.284864
-0.287036
-0.292217
-0.304932
-0.295136
-0.287986
-0.273914
-0.248688
-0.218303
-0.224276
-0.223823
-0.247624
-0.255701
-0.253122
-0.246131
-0.232375
-0.232127
-0.241652
-0.256335
-0.282149
-0.283552
-0.290136
-0.291742
-0.288642
-0.290679
-0.302805
-0.305
-0.307353
-0.314887
-0.322624
-0.325701
-0.319095
-0.322624
-0.336086
-0.344615
-0.3531
-0.371652
-0.385271
-0.373914
-0.352579
-0.316154
-0.29457
-0.272692
-0.280475
-0.292828
-0.299796
-0.286312
-0.282579
-0.258167
-0.233394
-0.213077
-0.182172
-0.180769
-0.189072
-0.177194
-0.175294
-0.173235
-0.175927
-0.208258
-0.240204
-0.251765
-0.263122
-0.279321
-0.315498
-0.336584
-0.362534
-0.363258
-0.383891
-0.39448
-0.395113
-0.395973
-0.401946
-0.373145
-0.34448
-0.325996
-0.31276
-0.309887
-0.327443
-0.315407
-0.268869
-0.14276
0.0980768
0.193733
1.01428
1.60486
2.22548
2.80097
3.21136
3.38658
3.34167
2.91681
2.09706
1.17244
0.252896
-0.586607
-0.656131
-0.240883
0.0494115
0.0996378
-0.029955
-0.179435
-0.248801
-0.263077
-0.242376
-0.216765
-0.191199
-0.220566
-0.224865
-0.249027
-0.248009
-0.236901
-0.200951
-0.170046
-0.174276
-0.168575
-0.137874
-0.117127
-0.111313
-0.120453
-0.11457
-0.113914
-0.0934167
-0.0730997
-0.0329414
-0.00769252
0.0126243
0.00800884
0.0133482
0.028484
0.0634161
0.098122
0.12776
0.14233
0.207081
0.251946
0.262036
0.292149
0.327285
0.382398
0.437625
0.512987
0.568552
0.619254
0.630045
0.660882
0.671787
0.687602
0.703281
0.713869
0.714525
0.710362
0.696471
0.647715
0.589027
0.525204
0.461131
0.376584
0.351493
0.220226
0.146991
0.046086
-0.0480995
-0.115385
-0.155
-0.184706
-0.201606
-0.219367
-0.242964
-0.257421
-0.278733
-0.286448
-0.291176
-0.301448
-0.301742
-0.286448
-0.280679
-0.299887
-0.299231
-0.303823
-0.288642
-0.258507
-0.24328
-0.233077
-0.242715
-0.257217
-0.271719
-0.266154
-0.270724
-0.275633
-0.260498
-0.260181
-0.264321
-0.252353
-0.245
-0.259004
-0.26052
-0.244299
-0.230565
-0.21009
-0.188891
-0.192918
-0.208959
-0.223801
-0.227963
-0.216402
-0.218801
-0.201606
-0.202624
-0.197579
-0.222511
-0.233122
-0.249592
-0.266606
-0.274004
-0.256516
-0.243959
-0.256335
-0.283982
-0.296719
-0.329683
-0.337851
-0.316131
-0.314299
-0.297308
-0.305203
-0.307918
-0.325249
-0.342194
-0.343756
-0.335181
-0.306267
-0.2819
-0.272149
-0.247081
-0.261425
-0.265362
-0.264004
-0.252556
-0.215973
-0.184208
-0.157149
-0.139796
-0.127217
-0.164502
-0.181516
-0.228371
-0.240181
-0.241923
-0.233507
-0.259728
-0.290701
-0.331244
-0.346516
-0.361697
-0.376923
-0.392081
-0.372217
-0.352262
-0.33724
-0.332172
-0.342059
-0.356923
-0.356923
-0.342217
-0.312828
-0.263733
-0.159841
-0.0212893
0.247172
0.710068
1.32756
2.07462
2.79129
3.30792
3.31953
2.71109
1.79762
0.879163
-0.0393662
-0.768099
-0.492036
-0.061018
0.0450679
0.0311539
-0.137715
-0.266425
-0.300113
-0.273959
-0.242851
-0.206765
-0.200656
-0.224367
-0.228009
-0.236539
-0.24009
-0.22371
-0.227398
-0.196086
-0.139819
-0.138552
-0.132285
-0.126109
-0.130023
-0.119072
-0.10319
-0.0624888
-0.04681
-0.0260861
-0.000294089
0.0154977
0.0213348
0.042104
0.0625339
0.092647
0.117579
0.152488
0.172466
0.192647
0.248009
0.293484
0.313823
0.354095
0.404253
0.474525
0.519977
0.530701
0.541516
0.572398
0.588145
0.613869
0.659412
0.694955
0.705588
0.701222
0.671968
0.637715
0.583371
0.518891
0.439208
0.399299
0.329072
0.228235
0.161041
0.106855
0.00999987
-0.0649323
-0.122874
-0.16172
-0.201697
-0.23896
-0.276991
-0.310724
-0.330227
-0.34129
-0.333507
-0.322896
-0.323552
-0.309231
-0.309435
-0.334118
-0.333643
-0.353236
-0.358213
-0.328394
-0.308711
-0.294118
-0.289571
-0.295
-0.295408
-0.295792
-0.306267
-0.316901
-0.302693
-0.288552
-0.279367
-0.280023
-0.300521
-0.310679
-0.315385
-0.319118
-0.295928
-0.290023
-0.280769
-0.313236
-0.318371
-0.308462
-0.296403
-0.298756
-0.300453
-0.271516
-0.256086
-0.259525
-0.281132
-0.292308
-0.303711
-0.326154
-0.32948
-0.318055
-0.311855
-0.315634
-0.309344
-0.323145
-0.327172
-0.34638
-0.355701
-0.360113
-0.364412
-0.36362
-0.362579
-0.371109
-0.359412
-0.342511
-0.330317
-0.292919
-0.275226
-0.257149
-0.263507
-0.269434
-0.28491
-0.279977
-0.284774
-0.289457
-0.244073
-0.198371
-0.167398
-0.151222
-0.164796
-0.188122
-0.226403
-0.244434
-0.237421
-0.230317
-0.218077
-0.255543
-0.297692
-0.334548
-0.336426
-0.358416
-0.350362
-0.352285
-0.339072
-0.340679
-0.332104
-0.323462
-0.324774
-0.326267
-0.302919
-0.284864
-0.252149
-0.199751
-0.117489
0.0495023
0.376131
0.827398
1.44342
2.10903
2.76941
2.96959
3.22975
2.66493
1.76005
0.835
-0.0851808
-0.83552
-0.620996
-0.161403
0.0682352
0.0579863
-0.0521268
-0.162172
-0.227376
-0.247647
-0.208032
-0.183462
-0.173733
-0.173846
-0.183846
-0.173823
-0.163891
-0.159004
-0.139095
-0.119253
-0.104434
-0.0945021
-0.0944116
-0.104231
-0.0940497
-0.0690044
-0.0341854
0.0155431
0.0501812
0.0648417
0.0694571
0.0591631
0.0586426
0.0580318
0.0772626
0.136426
0.175453
0.219412
0.263507
0.287624
0.311561
0.320294
0.353982
0.412692
0.476493
0.495475
0.569683
0.594005
0.613394
0.637941
0.662602
0.697353
0.712104
0.726901
0.716787
0.691606
0.666403
0.626267
0.576154
0.535996
0.47586
0.425814
0.371018
0.301267
0.216425
0.136109
0.0547963
-0.0130091
-0.0628281
-0.0901132
-0.0951811
-0.158032
-0.202986
-0.238846
-0.273665
-0.32
-0.317262
-0.320543
-0.284751
-0.282557
-0.272263
-0.288281
-0.289751
-0.31095
-0.296697
-0.262285
-0.242737
-0.233213
-0.238824
-0.234344
-0.239842
-0.245362
-0.260905
-0.251561
-0.252308
-0.243032
-0.233643
-0.244072
-0.254299
-0.264186
-0.283484
-0.266425
-0.257466
-0.250747
-0.255973
-0.243235
-0.249593
-0.264864
-0.262828
-0.250068
-0.246493
-0.23233
-0.221606
-0.234932
-0.236222
-0.261606
-0.277149
-0.293416
-0.28543
-0.272941
-0.270747
-0.268552
-0.276448
-0.294457
-0.307647
-0.311064
-0.299616
-0.293258
-0.302104
-0.300905
-0.309706
-0.323462
-0.347285
-0.361154
-0.365159
-0.359141
-0.322647
-0.310724
-0.298349
-0.285566
-0.277353
-0.298869
-0.295136
-0.296199
-0.266923
-0.252172
-0.231742
-0.220883
-0.21957
-0.202919
-0.161109
-0.134163
-0.132127
-0.144864
-0.182308
-0.219412
-0.251358
-0.262941
-0.274367
-0.295747
-0.327014
-0.343281
-0.354344
-0.365317
-0.381245
-0.36224
-0.348417
-0.354751
-0.361358
-0.333213
-0.315227
-0.317399
-0.329706
-0.31724
-0.275136
-0.173507
0.0426694
0.358484
0.809117
1.34959
1.96
2.62048
3.13075
3.36091
3.14593
2.36084
1.43554
0.515384
-0.404661
-0.709412
-0.284095
0.0162214
0.0763345
-0.0285296
-0.168439
-0.208236
-0.262851
-0.252376
-0.226742
-0.236064
-0.245385
-0.234706
-0.224254
-0.203846
-0.188349
-0.172806
-0.182127
-0.191403
-0.185792
-0.18034
-0.144955
-0.11957
-0.0891178
-0.0836426
-0.0932579
-0.0879865
-0.0878055
-0.0678282
-0.038077
0.00160635
0.00133479
0.0560405
0.0657917
0.0704751
0.0800002
0.109389
0.133529
0.182579
0.236719
0.281131
0.325792
0.365588
0.410385
0.445204
0.484909
0.524615
0.564593
0.594909
0.645317
0.655837
0.676335
0.681651
0.70681
0.71681
0.736765
0.74181
0.662014
0.602443
0.552964
0.498461
0.418891
0.36414
0.298869
0.252964
0.176086
0.0879185
-0.00699115
-0.0689594
-0.133439
-0.175679
-0.198665
-0.218371
-0.241018
-0.264616
-0.274095
-0.284593
-0.296584
-0.299163
-0.308824
-0.299819
-0.301018
-0.27681
-0.287059
-0.292059
-0.287104
-0.282353
-0.267647
-0.257896
-0.2381
-0.233371
-0.238552
-0.263688
-0.283914
-0.289321
-0.279774
-0.26009
-0.239955
-0.238824
-0.261244
-0.266606
-0.264593
-0.264887
-0.257376
-0.24767
-0.222036
-0.202421
-0.181358
-0.19457
-0.216946
-0.24862
-0.266787
-0.258213
-0.228462
-0.233552
-0.24414
-0.255385
-0.261878
-0.263869
-0.291109
-0.308462
-0.305951
-0.313756
-0.271629
-0.279616
-0.29267
-0.305792
-0.328847
-0.332082
-0.320475
-0.29896
-0.297421
-0.320656
-0.323643
-0.326426
-0.309095
-0.301629
-0.283982
-0.261019
-0.242625
-0.238779
-0.244435
-0.239729
-0.234503
-0.204028
-0.178326
-0.147557
-0.116403
-0.109955
-0.143145
-0.190996
-0.228575
-0.250951
-0.243123
-0.250114
-0.236946
-0.243575
-0.299978
-0.3562
-0.362285
-0.388168
-0.374073
-0.334932
-0.305792
-0.286539
-0.282195
-0.297715
-0.318123
-0.323846
-0.324955
-0.301448
-0.268213
-0.215475
-0.117941
0.0294116
0.246629
0.563529
0.965
1.441
2.00674
2.61726
2.79767
3.21808
2.78844
1.89378
0.96914
0.0495701
-0.764977
-0.66957
-0.22414
0.0562896
0.0767647
-0.0477376
-0.187059
-0.256493
-0.260928
-0.235362
-0.209819
-0.209163
-0.228416
-0.222534
-0.216629
-0.210792
-0.195091
-0.16957
-0.149095
-0.138552
-0.137806
-0.141946
-0.146041
-0.150136
-0.134322
-0.118575
-0.0780319
-0.0525794
-0.0273758
-0.0171496
-0.0168781
0.00346124
0.0037328
0.0338687
0.0588008
0.098597
0.138461
0.163439
0.16819
0.172805
0.187353
0.24181
0.306312
0.355769
0.375294
0.435045
0.459819
0.494729
0.529728
0.559706
0.559796
0.589932
0.615249
0.640701
0.641312
0.626968
0.597466
0.582918
0.56328
0.523665
0.489072
0.419683
0.34552
0.276267
0.206674
0.126312
0.0647734
0.0163573
-0.0342989
-0.0475569
-0.113349
-0.166245
-0.210475
-0.245113
-0.273055
-0.282353
-0.292602
-0.288666
-0.286222
-0.288892
-0.298372
-0.299141
-0.300295
-0.295951
-0.281562
-0.271652
-0.266539
-0.266381
-0.276154
-0.285973
-0.305905
-0.315996
-0.2912
-0.256584
-0.251924
-0.222127
-0.232037
-0.256562
-0.270362
-0.273281
-0.259865
-0.239774
-0.232602
-0.227896
-0.220408
-0.217195
-0.197127
-0.189186
-0.200476
-0.216041
-0.230928
-0.239526
-0.252761
-0.264096
-0.264277
-0.269525
-0.285498
-0.272195
-0.279435
-0.276901
-0.26939
-0.28181
-0.294503
-0.307444
-0.310566
-0.303914
-0.302331
-0.28577
-0.28405
-0.29215
-0.320159
-0.3281
-0.341132
-0.369163
-0.36215
-0.354955
-0.322399
-0.309254
-0.260611
-0.256584
-0.262286
-0.267715
-0.272874
-0.267942
-0.252648
-0.237082
-0.241132
-0.234887
-0.18844
-0.166992
-0.160498
-0.143983
-0.15215
-0.164842
-0.192308
-0.234684
-0.241765
-0.223824
-0.245815
-0.24767
-0.279435
-0.306154
-0.342625
-0.354028
-0.360317
-0.361652
-0.343191
-0.329842
-0.306539
-0.288349
-0.280385
-0.302512
-0.324888
-0.28267
-0.200793
-0.0343447
0.231719
0.652533
1.17821
1.77878
2.36932
2.86466
3.1648
3.2198
2.79466
1.94946
1.02934
0.109298
-0.675702
-0.640747
-0.250838
-0.0260412
-0.00122225
-0.12138
-0.161403
-0.266335
-0.276245
-0.261086
-0.260928
-0.250905
-0.245973
-0.236154
-0.221426
-0.186516
-0.176403
-0.176222
-0.190883
-0.180588
-0.195475
-0.17543
-0.155521
-0.125566
-0.110588
-0.105656
-0.110815
-0.091086
-0.0814481
-0.0418327
-0.00228524
0.0171492
0.0515383
0.0558144
0.0700452
0.0941175
0.117964
0.151719
0.185475
0.204231
0.253167
0.297217
0.32638
0.335611
0.394819
0.428937
0.473032
0.527331
0.546878
0.566629
0.556606
0.536652
0.526652
0.511471
0.526177
0.520769
0.505249
0.479819
0.414457
0.324208
0.238982
0.178846
0.128439
0.0672852
0.0249097
0.000588417
-0.0561764
-0.100746
-0.158326
-0.198529
-0.235023
-0.246538
-0.264547
-0.263439
-0.283099
-0.32362
-0.320905
-0.319366
-0.324728
-0.306108
-0.287556
-0.283529
-0.273959
-0.284276
-0.309683
-0.300362
-0.301289
-0.292307
-0.263325
-0.269253
-0.275136
-0.270882
-0.261606
-0.27733
-0.29328
-0.279434
-0.275452
-0.251176
-0.246131
-0.249909
-0.261765
-0.276289
-0.268167
-0.267511
-0.249796
-0.235792
-0.211629
-0.199457
-0.211154
-0.227059
-0.232217
-0.226108
-0.225045
-0.212511
-0.219118
-0.225679
-0.252873
-0.260475
-0.258575
-0.271946
-0.275543
-0.259253
-0.253145
-0.252104
-0.246177
-0.265226
-0.279118
-0.293009
-0.301901
-0.305792
-0.294615
-0.298371
-0.276765
-0.279842
-0.272489
-0.264729
-0.251629
-0.233235
-0.22457
-0.215566
-0.206086
-0.201131
-0.210882
-0.20034
-0.194774
-0.169095
-0.128281
-0.107262
-0.111018
-0.124548
-0.147941
-0.176018
-0.193869
-0.196697
-0.199525
-0.187082
-0.189548
-0.23172
-0.273643
-0.310453
-0.337217
-0.34405
-0.336041
-0.318145
-0.295272
-0.277398
-0.274503
-0.281675
-0.283892
-0.271335
-0.259254
-0.227557
-0.161335
-0.000316978
0.265497
0.691244
1.23699
1.87251
2.55278
3.1279
3.41796
3.46801
2.71312
1.80812
0.888212
-0.0367198
-0.766833
-0.536992
-0.16224
0.0524429
0.082262
-0.047738
-0.172647
-0.232466
-0.242331
-0.222353
-0.182331
-0.17224
-0.17715
-0.181924
-0.18172
-0.191494
-0.181267
-0.176041
-0.15095
-0.13095
-0.120837
-0.105702
-0.110362
-0.10491
-0.10948
-0.0993668
-0.0845929
-0.0549097
-0.0153168
-0.000678778
0.019027
0.0338235
0.0435972
0.0531673
0.0725112
0.111787
0.15595
0.220136
0.254389
0.268733
0.288145
0.337466
0.341787
0.391154
0.455452
0.479819
0.529412
0.549253
0.584299
0.594548
0.594751
0.604932
0.604977
0.589955
0.584932
0.555023
0.495181
0.445475
0.380747
0.305928
0.236109
0.166358
0.126675
0.0618783
-0.00325751
-0.0690948
-0.11604
-0.149638
-0.154932
-0.172013
-0.18595
-0.216923
-0.244638
-0.273054
-0.294955
-0.323122
-0.33224
-0.307285
-0.294298
-0.292217
-0.276787
-0.297488
-0.298529
-0.304457
-0.295135
-0.290837
-0.276448
-0.262081
-0.272692
-0.258144
-0.268461
-0.268778
-0.284253
-0.299796
-0.285271
-0.285769
-0.241131
-0.246266
-0.260746
-0.284095
-0.300565
-0.294728
-0.266018
-0.264276
-0.264932
-0.264298
-0.258506
-0.226221
-0.228144
-0.234343
-0.234796
-0.228687
-0.211651
-0.203031
-0.213574
-0.234049
-0.250226
-0.262081
-0.264389
-0.256945
-0.25957
-0.277194
-0.269932
-0.27285
-0.275927
-0.28923
-0.28776
-0.281538
-0.270475
-0.269411
-0.283303
-0.287149
-0.310905
-0.334705
-0.338619
-0.287579
-0.236561
-0.220339
-0.213665
-0.221448
-0.238823
-0.250837
-0.247534
-0.223959
-0.195158
-0.18595
-0.151312
-0.151244
-0.150701
-0.174909
-0.194049
-0.198031
-0.201674
-0.205248
-0.198484
-0.21138
-0.239162
-0.281696
-0.319117
-0.351447
-0.353733
-0.356176
-0.333552
-0.320837
-0.318122
-0.325429
-0.337918
-0.340791
-0.333982
-0.302511
-0.291448
-0.290633
-0.285113
-0.249751
-0.16466
0.000113249
0.249412
0.603439
0.987376
1.3864
1.82043
2.30948
2.71351
2.86244
2.51134
1.6602
0.733892
-0.187421
-0.863507
-0.669502
-0.295498
-0.0514027
-0.0224434
-0.0935745
-0.189706
-0.215701
-0.246606
-0.237398
-0.228122
-0.243891
-0.259615
-0.26043
-0.236335
-0.227285
-0.233258
-0.21905
-0.219819
-0.205407
-0.191063
-0.176765
-0.167624
-0.133665
-0.13466
-0.125565
-0.126584
-0.122805
-0.109231
-0.0908369
-0.0673981
-0.0441177
-0.0308823
-0.00260174
0.0208372
0.0442988
0.0726698
0.0858371
0.108869
0.13181
0.169751
0.212715
0.245815
0.283959
0.31724
0.350679
0.379231
0.427851
0.466561
0.53034
0.569276
0.593439
0.602738
0.601923
0.595951
0.599842
0.62862
0.632399
0.646516
0.616019
0.545634
0.465249
0.389525
0.328236
0.271064
0.217693
0.172647
0.0954528
0.0306565
-0.0317416
-0.0864927
-0.122466
-0.138733
-0.166402
-0.199932
-0.214321
-0.239547
-0.247579
-0.247556
-0.25457
-0.262398
-0.250112
-0.252217
-0.218755
-0.22509
-0.246266
-0.262511
-0.263846
-0.255294
-0.231855
-0.213484
-0.205158
-0.191674
-0.208122
-0.214547
-0.220882
-0.227104
-0.222918
-0.183144
-0.167307
-0.174886
-0.190746
-0.194886
-0.197149
-0.202262
-0.185611
-0.178348
-0.172715
-0.145905
-0.148303
-0.174977
-0.189819
-0.193891
-0.20147
-0.193144
-0.174796
-0.181877
-0.204502
-0.222307
-0.235452
-0.238755
-0.242217
-0.240837
-0.234932
-0.219185
-0.228416
-0.24267
-0.272059
-0.281448
-0.28095
-0.275498
-0.285113
-0.27966
-0.26405
-0.278077
-0.281923
-0.270475
-0.24371
-0.216697
-0.189344
-0.181606
-0.158461
-0.159842
-0.170973
-0.196742
-0.182285
-0.152557
-0.117647
-0.107444
-0.101968
-0.111244
-0.115226
-0.134027
-0.142579
-0.186109
-0.20957
-0.232896
-0.246109
-0.274027
-0.281697
-0.304027
-0.336199
-0.358213
-0.340158
-0.302172
-0.289208
-0.281199
-0.278077
-0.295
-0.321833
-0.323914
-0.311312
-0.239095
-0.127217
0.0594569
0.331041
0.727376
1.23351
1.81937
2.42993
2.95023
3.22023
3.26016
2.44518
1.5252
0.605181
-0.319887
-0.800136
-0.385498
0.0341175
0.168869
0.103733
-0.0663576
-0.196448
-0.246448
-0.261471
-0.236561
-0.216765
-0.201991
-0.192218
-0.182195
-0.167037
-0.171833
-0.176607
-0.181471
-0.196358
-0.18629
-0.191109
-0.155905
-0.140475
-0.134932
-0.12948
-0.109209
-0.0891406
-0.0743669
-0.0597741
-0.0452492
-0.0357469
-0.0412672
-0.0366517
-0.0119912
0.0125112
0.0369455
0.0811311
0.125181
0.149185
0.173371
0.197624
0.211832
0.255995
0.300203
0.344457
0.363755
0.453212
0.487828
0.507715
0.522783
0.547896
0.562941
0.587964
0.613054
0.643258
0.643439
0.618665
0.573959
0.53414
0.479276
0.409457
0.359683
0.300068
0.235407
0.170226
0.0889367
0.045543
-0.0108371
-0.0457466
-0.0938235
-0.11871
-0.18362
-0.230882
-0.268937
-0.297873
-0.29267
-0.30862
-0.271629
-0.252013
-0.248326
-0.244457
-0.259864
-0.274819
-0.284593
-0.279547
-0.289706
-0.295181
-0.28052
-0.280701
-0.285837
-0.280928
-0.266063
-0.27129
-0.246787
-0.247353
-0.242918
-0.243235
-0.258077
-0.292081
-0.284932
-0.276063
-0.280113
-0.261561
-0.240362
-0.201833
-0.192104
-0.197127
-0.200905
-0.208937
-0.206267
-0.192828
-0.181878
-0.179231
-0.214796
-0.244887
-0.24043
-0.241901
-0.229163
-0.231901
-0.239864
-0.232783
-0.230701
-0.223688
-0.256833
-0.270023
-0.273349
-0.266855
-0.265498
-0.269208
-0.267941
-0.301561
-0.305091
-0.318303
-0.33129
-0.324072
-0.306787
-0.274005
-0.220837
-0.197285
-0.178371
-0.179095
-0.179525
-0.189751
-0.204796
-0.194615
-0.189163
-0.133461
-0.107443
-0.086199
-0.104728
-0.12319
-0.131516
-0.134796
-0.152896
-0.160679
-0.168122
-0.195452
-0.217398
-0.254117
-0.295769
-0.312421
-0.31905
-0.315633
-0.322081
-0.333416
-0.329638
-0.325859
-0.31724
-0.298801
-0.285565
-0.277511
-0.254819
-0.257285
-0.214977
-0.0880315
0.183552
0.649797
1.30081
2.05661
2.77238
3.20303
3.24369
2.66919
1.74459
0.824864
-0.0949319
-0.964819
-0.519751
-0.0395021
0.140928
0.0764481
-0.0979411
-0.227421
-0.276968
-0.261606
-0.251131
-0.205656
-0.220158
-0.219548
-0.21905
-0.22362
-0.213168
-0.212579
-0.182036
-0.171358
-0.160588
-0.144729
-0.138778
-0.137941
-0.122398
-0.106855
-0.0613576
-0.0509504
-0.0254979
-0.0200454
-0.0146155
-0.0292763
-0.0140726
0.00604045
0.0361084
0.0461763
0.116312
0.156493
0.181583
0.211448
0.246063
0.280543
0.325
0.379593
0.414231
0.429004
0.448914
0.478982
0.52414
0.54414
0.58914
0.624321
0.649796
0.660543
0.651471
0.637489
0.613326
0.579005
0.544547
0.505
0.495452
0.40595
0.341584
0.272534
0.208665
0.144955
0.091199
0.0421945
0.00744343
-0.01862
-0.0565385
-0.0919005
-0.125023
-0.141222
-0.179819
-0.18414
-0.20414
-0.212104
-0.216063
-0.245927
-0.276674
-0.278823
-0.271674
-0.286403
-0.282149
-0.267805
-0.24785
-0.242443
-0.2469
-0.246448
-0.241221
-0.241131
-0.23104
-0.235882
-0.230633
-0.245316
-0.234977
-0.249525
-0.25914
-0.24371
-0.22776
-0.230746
-0.216651
-0.20957
-0.219095
-0.21543
-0.209819
-0.209072
-0.210995
-0.202262
-0.20785
-0.182737
-0.196651
-0.203552
-0.223348
-0.237421
-0.251945
-0.247488
-0.248755
-0.240362
-0.261991
-0.27362
-0.285204
-0.297104
-0.274253
-0.266493
-0.269095
-0.286719
-0.284389
-0.2919
-0.314457
-0.332059
-0.354683
-0.347285
-0.319932
-0.317466
-0.304774
-0.296697
-0.298235
-0.289412
-0.260226
-0.245769
-0.236108
-0.231108
-0.235769
-0.235045
-0.23405
-0.227557
-0.200747
-0.183823
-0.156742
-0.119412
-0.111855
-0.12405
-0.130905
-0.162557
-0.179163
-0.205679
-0.212217
-0.203643
-0.209932
-0.246041
-0.296855
-0.347602
-0.383326
-0.394073
-0.38
-0.341086
-0.317421
-0.303892
-0.290475
-0.276991
-0.268937
-0.281154
-0.293688
-0.306538
-0.294796
-0.238326
-0.0820363
0.194163
0.615317
1.16133
1.82719
2.53301
3.08382
3.22455
3.35534
2.89613
2.00701
1.0829
0.163642
-0.640769
-0.515204
-0.124661
0.0608822
-0.00348431
-0.157738
-0.266901
-0.296041
-0.285272
-0.24948
-0.218665
-0.217806
-0.226878
-0.23095
-0.235
-0.23405
-0.238122
-0.227308
-0.196629
-0.18586
-0.15
-0.144073
-0.153032
-0.147082
-0.136335
-0.135792
-0.125453
-0.110226
-0.0750455
-0.0398417
-0.00963813
0.010656
0.010837
0.0258824
0.0457692
0.0803394
0.129796
0.159344
0.184027
0.203846
0.213597
0.248281
0.302896
0.357534
0.377376
0.452421
0.467647
0.477941
0.473371
0.493914
0.51448
0.534955
0.535272
0.545475
0.535837
0.50129
0.461787
0.387308
0.332851
0.258484
0.204186
0.144706
0.0847058
0.0288687
-0.0283033
-0.0824662
-0.129118
-0.168688
-0.181131
-0.20052
-0.235385
-0.263507
-0.282941
-0.30828
-0.319502
-0.31181
-0.309412
-0.273959
-0.254819
-0.265882
-0.261516
-0.291787
-0.2819
-0.277172
-0.282624
-0.258303
-0.249027
-0.22957
-0.234955
-0.250317
-0.275633
-0.271018
-0.276448
-0.277081
-0.272805
-0.248574
-0.244321
-0.254819
-0.269638
-0.28328
-0.285113
-0.274592
-0.281199
-0.274547
-0.265498
-0.255882
-0.245792
-0.247918
-0.234208
-0.224728
-0.219706
-0.223348
-0.216493
-0.232896
-0.248529
-0.259615
-0.261651
-0.264434
-0.252669
-0.261131
-0.264547
-0.277873
-0.286221
-0.29466
-0.298235
-0.316968
-0.305724
-0.299615
-0.283416
-0.292081
-0.300633
-0.323891
-0.341968
-0.324886
-0.302692
-0.270068
-0.237149
-0.228846
-0.23518
-0.241108
-0.251606
-0.246855
-0.231923
-0.206945
-0.191674
-0.136244
-0.125497
-0.139456
-0.168212
-0.186764
-0.190248
-0.183801
-0.177239
-0.190407
-0.208257
-0.24095
-0.278325
-0.305656
-0.328009
-0.355407
-0.377783
-0.370113
-0.352239
-0.314389
-0.316493
-0.328597
-0.320973
-0.313642
-0.316651
-0.324977
-0.30862
-0.252443
-0.126425
0.0644121
0.355023
0.795385
1.34545
1.99527
2.65502
3.09982
3.22959
2.87932
2.06916
1.14891
0.228597
-0.671923
-0.62733
-0.227805
0.0519685
0.101923
-0.00312191
-0.123145
-0.213371
-0.233575
-0.233756
-0.198982
-0.179004
-0.183914
-0.198665
-0.193484
-0.193507
-0.168643
-0.153801
-0.123937
-0.119005
-0.123914
-0.118733
-0.11853
-0.113371
-0.098281
-0.0784846
-0.0538691
-0.024299
-0.0398194
-0.020453
-0.00608641
0.018167
0.0473751
0.0764477
0.0855653
0.149728
0.153846
0.167873
0.171855
0.185724
0.219479
0.273212
0.326923
0.395769
0.454819
0.478936
0.48819
0.492624
0.502194
0.52681
0.556448
0.561086
0.58595
0.575927
0.575995
0.561063
0.530995
0.495814
0.450475
0.430158
0.345
0.280136
0.205452
0.140882
0.0859728
0.0253167
-0.00176466
-0.0258371
-0.042285
-0.10138
-0.128167
-0.177036
-0.207285
-0.238009
-0.273824
-0.282081
-0.266561
-0.261855
-0.267941
-0.280498
-0.293846
-0.289186
-0.285769
-0.272557
-0.268869
-0.254661
-0.245181
-0.270656
-0.266154
-0.266584
-0.277149
-0.252738
-0.228348
-0.228801
-0.214253
-0.219728
-0.235136
-0.260271
-0.279955
-0.283823
-0.281584
-0.262421
-0.240882
-0.24638
-0.243914
-0.229434
-0.224434
-0.251108
-0.231538
-0.231244
-0.195158
-0.218213
-0.206109
-0.227262
-0.247262
-0.257172
-0.257737
-0.24405
-0.240814
-0.242805
-0.239864
-0.2619
-0.278959
-0.29629
-0.288778
-0.261583
-0.264547
-0.257534
-0.270543
-0.288507
-0.32147
-0.31957
-0.322805
-0.326131
-0.329457
-0.282647
-0.250565
-0.238371
-0.235837
-0.218235
-0.225384
-0.207353
-0.203982
-0.190045
-0.19561
-0.200769
-0.185339
-0.164683
-0.143778
-0.132828
-0.121628
-0.125203
-0.118393
-0.146199
-0.173574
-0.190565
-0.21742
-0.264208
-0.296131
-0.308008
-0.309751
-0.321289
-0.352828
-0.364253
-0.360746
-0.362307
-0.333936
-0.325791
-0.302828
-0.285067
-0.292307
-0.319864
-0.322737
-0.336018
-0.264615
-0.103642
0.202014
0.647602
1.18819
1.7988
2.40923
2.92459
3.23964
3.32959
3.31939
2.73416
1.89403
0.97405
0.0492085
-0.745633
-0.590565
-0.185588
0.0493667
0.0644346
-0.0653844
-0.210113
-0.294683
-0.299231
-0.278937
-0.258665
-0.233439
-0.243258
-0.232896
-0.262398
-0.266855
-0.271176
-0.270543
-0.275045
-0.249706
-0.239479
-0.194231
-0.178959
-0.153552
-0.158054
-0.152624
-0.15224
-0.136878
-0.116561
-0.0964479
-0.0713574
-0.06138
-0.04638
-0.036561
-0.0217873
0.002828
0.0323755
0.07181
0.116199
0.125566
0.154819
0.168937
0.198009
0.222014
0.275973
0.29491
0.368982
0.403326
0.432851
0.452534
0.472308
0.477082
0.501697
0.536335
0.556154
0.561244
0.546335
0.50672
0.507285
0.462896
0.433529
0.399208
0.374751
0.325385
0.231063
0.151878
0.0726924
0.00834852
-0.0363122
-0.0766289
-0.0833483
-0.126968
-0.147919
-0.18629
-0.227104
-0.265158
-0.304977
-0.325249
-0.34448
-0.320317
-0.327149
-0.334887
-0.348462
-0.341765
-0.342398
-0.33871
-0.32586
-0.327353
-0.308032
-0.303303
-0.303416
-0.323529
-0.338733
-0.334095
-0.319502
-0.315023
-0.275272
-0.264796
-0.272987
-0.289186
-0.298009
-0.299208
-0.287692
-0.238891
-0.218575
-0.18276
-0.182036
-0.184073
-0.184977
-0.200204
-0.204683
-0.202919
-0.200498
-0.191358
-0.211199
-0.221018
-0.236448
-0.257737
-0.254615
-0.246765
-0.239027
-0.231335
-0.233665
-0.251131
-0.25871
-0.271651
-0.289932
-0.288461
-0.277194
-0.271063
-0.269955
-0.283823
-0.292466
-0.311018
-0.319502
-0.323009
-0.326561
-0.32509
-0.328348
-0.326221
-0.313688
-0.295746
-0.267421
-0.248778
-0.224841
-0.210633
-0.21604
-0.201018
-0.190543
-0.16966
-0.13871
-0.107556
-0.0912893
-0.094864
-0.0981219
-0.106041
-0.123733
-0.150995
-0.188054
-0.210158
-0.237217
-0.249321
-0.241403
-0.238281
-0.274909
-0.331403
-0.327919
-0.339593
-0.341471
-0.333371
-0.33052
-0.317828
-0.290294
-0.287896
-0.290679
-0.303846
-0.307353
-0.276335
-0.190679
-0.0251811
0.305136
0.735566
1.26086
1.79111
2.33613
2.80102
3.1607
3.24025
2.9798
2.17955
1.25966
0.339841
-0.585023
-0.660046
-0.180181
-0.0453622
0.139547
-0.0103621
-0.165181
-0.249842
-0.26448
-0.249141
-0.238937
-0.233892
-0.228846
-0.218688
-0.208439
-0.208032
-0.197534
-0.192037
-0.176675
-0.146403
-0.136222
-0.125951
-0.145475
-0.164865
-0.154186
-0.12862
-0.113213
-0.0779867
-0.0630092
-0.0281901
-0.0184164
0.0063799
0.0162669
0.0260633
0.0307466
0.0753393
0.119638
0.173801
0.217986
0.24733
0.27681
0.296403
0.330882
0.380384
0.449864
0.499366
0.543982
0.568914
0.599095
0.604457
0.599977
0.595498
0.60595
0.606335
0.621697
0.617014
0.572398
0.507738
0.438213
0.373688
0.299208
0.244796
0.190453
0.146154
0.0865838
0.0210181
-0.0410407
-0.090362
-0.100317
-0.124502
-0.146063
-0.164525
-0.223937
-0.257918
-0.299661
-0.327556
-0.341425
-0.301312
-0.288416
-0.256968
-0.257285
-0.278235
-0.298914
-0.309072
-0.299004
-0.278778
-0.27371
-0.26871
-0.258688
-0.253688
-0.253552
-0.248326
-0.258122
-0.267964
-0.273077
-0.248258
-0.233258
-0.242828
-0.241651
-0.269117
-0.274683
-0.272896
-0.243755
-0.232262
-0.198733
-0.17862
-0.168099
-0.203846
-0.238326
-0.247149
-0.240317
-0.222782
-0.195701
-0.186493
-0.201674
-0.226154
-0.246312
-0.262421
-0.264004
-0.261041
-0.25328
-0.235565
-0.232986
-0.245452
-0.262873
-0.260475
-0.273258
-0.286222
-0.279366
-0.277511
-0.270498
-0.293371
-0.306109
-0.333778
-0.331425
-0.323846
-0.305905
-0.277534
-0.243643
-0.214367
-0.199615
-0.199593
-0.209231
-0.208756
-0.192851
-0.186742
-0.140249
-0.103348
-0.0960861
-0.118575
-0.135928
-0.158077
-0.145136
-0.152149
-0.154027
-0.170521
-0.186629
-0.237353
-0.277987
-0.308552
-0.349208
-0.349977
-0.345792
-0.331561
-0.322308
-0.307919
-0.313507
-0.299299
-0.320407
-0.301923
-0.288756
-0.270973
-0.263349
-0.245928
-0.168733
0.0482352
0.394887
0.906244
1.06738
2.03353
2.58962
3.02563
3.2317
3.13262
2.6286
1.75946
0.840271
-0.0789822
-0.7181
-0.427127
-0.0508825
0.0954298
0.0366515
-0.11724
-0.226403
-0.260521
-0.239435
-0.22819
-0.226833
-0.220475
-0.239095
-0.232738
-0.226448
-0.220271
-0.174163
-0.163009
-0.171651
-0.180181
-0.178756
-0.147308
-0.136109
-0.130023
-0.11905
-0.0930318
-0.0770816
-0.0659504
-0.0747965
-0.0536653
-0.0277829
0.0126016
0.0528505
0.0781672
0.10362
0.114185
0.114706
0.145136
0.14543
0.200611
0.220724
0.305792
0.365905
0.386176
0.421584
0.437059
0.437534
0.488009
0.528597
0.579321
0.625136
0.641199
0.63733
0.623507
0.604502
0.570407
0.546222
0.507127
0.453099
0.374208
0.295407
0.226719
0.158099
0.109457
0.0606334
0.0461537
-0.0392762
-0.0811313
-0.124977
-0.175928
-0.209435
-0.230656
-0.244027
-0.273462
-0.287308
-0.273326
-0.260317
-0.278145
-0.311901
-0.34819
-0.339728
-0.324118
-0.299615
-0.280385
-0.27586
-0.275973
-0.280769
-0.295475
-0.305181
-0.304977
-0.299887
-0.279887
-0.274729
-0.264457
-0.284163
-0.293891
-0.288665
-0.29819
-0.291946
-0.284254
-0.27414
-0.278281
-0.267987
-0.250272
-0.250679
-0.250204
-0.265317
-0.257693
-0.25905
-0.249661
-0.23948
-0.252195
-0.283665
-0.298643
-0.298122
-0.293145
-0.243937
-0.24534
-0.271833
-0.303371
-0.325023
-0.317014
-0.319344
-0.316991
-0.299729
-0.287489
-0.285181
-0.30276
-0.325453
-0.338349
-0.341335
-0.34948
-0.327534
-0.315679
-0.298846
-0.291946
-0.279774
-0.302331
-0.304819
-0.307263
-0.304412
-0.241222
-0.227534
-0.238416
-0.248914
-0.244072
-0.224005
-0.218869
-0.213439
-0.207738
-0.206516
-0.194955
-0.197851
-0.220362
-0.227805
-0.235113
-0.242489
-0.254932
-0.272172
-0.309186
-0.33586
-0.377285
-0.383711
-0.380204
-0.356855
-0.343665
-0.345679
-0.357873
-0.360181
-0.367715
-0.355543
-0.343778
-0.32733
-0.306176
-0.265339
-0.129774
0.0806788
0.410769
0.855679
1.36545
1.965
2.56939
3.01869
3.23301
3.07738
2.46186
1.56154
0.636335
-0.284072
-0.849774
-0.850724
-0.266516
-0.056991
-0.0422171
-0.112353
-0.192579
-0.252941
-0.268235
-0.258575
-0.249027
-0.214434
-0.219819
-0.240136
-0.255339
-0.245385
-0.235452
-0.210498
-0.190588
-0.145747
-0.120928
-0.146131
-0.15138
-0.166742
-0.147149
-0.127443
-0.117828
-0.0883483
-0.0939591
-0.0846832
-0.0654297
-0.0561764
-0.0570136
-0.043009
0.000656188
0.0342987
0.0929639
0.106765
0.130792
0.114842
0.143597
0.177127
0.250249
0.328326
0.376471
0.399661
0.408054
0.396674
0.415475
0.449276
0.483032
0.491719
0.525588
0.534661
0.564118
0.573801
0.568642
0.533394
0.4881
0.482534
0.461923
0.41638
0.365905
0.29586
0.240905
0.18086
0.130746
0.0905881
0.0752713
0.0394794
-0.0221947
-0.0853621
-0.145724
-0.188688
-0.224525
-0.23319
-0.243824
-0.230181
-0.230543
-0.237692
-0.255769
-0.284864
-0.294932
-0.278303
-0.268756
-0.250973
-0.23871
-0.230928
-0.217376
-0.233348
-0.239321
-0.255339
-0.246448
-0.247557
-0.253642
-0.234593
-0.225294
-0.215475
-0.21957
-0.217195
-0.222896
-0.211403
-0.19233
-0.170498
-0.161742
-0.171946
-0.182828
-0.191561
-0.189434
-0.156652
-0.128054
-0.117036
-0.151086
-0.207443
-0.237986
-0.238484
-0.214344
-0.185792
-0.207647
-0.214728
-0.201787
-0.213891
-0.215905
-0.2131
-0.235611
-0.263394
-0.281425
-0.299661
-0.287941
-0.286245
-0.279457
-0.272534
-0.260815
-0.249366
-0.243258
-0.267195
-0.266109
-0.254977
-0.26871
-0.252353
-0.26086
-0.259185
-0.232217
-0.210091
-0.167624
-0.179706
-0.186357
-0.212376
-0.213032
-0.218371
-0.178552
-0.158416
-0.0878958
-0.0668098
-0.0801809
-0.0831447
-0.105905
-0.138575
-0.17129
-0.183937
-0.191357
-0.183507
-0.220566
-0.267557
-0.324457
-0.356244
-0.367964
-0.334683
-0.306629
-0.263891
-0.251108
-0.263393
-0.270859
-0.298484
-0.301516
-0.289819
-0.283529
-0.267443
-0.211583
-0.100656
0.100136
0.435792
0.921131
1.50613
2.13588
2.73545
3.16007
3.30982
3.07982
2.35502
1.43525
0.51543
-0.404592
-0.824706
-0.374773
0.0152491
0.150407
0.0457695
-0.12871
-0.248213
-0.252873
-0.252602
-0.222262
-0.211855
-0.201425
-0.210927
-0.225339
-0.204638
-0.233937
-0.228348
-0.207896
-0.182489
-0.152036
-0.156357
-0.130498
-0.144728
-0.149095
-0.13371
-0.118462
-0.08319
-0.0778733
-0.0725791
-0.0572172
-0.0669457
-0.036991
-0.0322398
-0.0226246
0.027104
0.0569909
0.0918325
0.0965157
0.116199
0.130746
0.165249
0.214819
0.259389
0.323982
0.378552
0.413145
0.437896
0.462715
0.457579
0.477534
0.532647
0.593009
0.623574
0.639208
0.639886
0.640633
0.616289
0.596968
0.577534
0.523077
0.488755
0.429502
0.37552
0.316312
0.236719
0.171131
0.124049
0.0695925
0.0223979
-0.0379187
-0.100769
-0.155249
-0.209932
-0.244457
-0.263529
-0.268597
-0.264661
-0.276606
-0.298937
-0.308077
-0.288552
-0.299299
-0.294706
-0.299796
-0.304729
-0.289548
-0.264367
-0.279118
-0.283778
-0.288529
-0.303303
-0.283303
-0.278416
-0.248552
-0.253688
-0.243824
-0.27371
-0.278122
-0.306651
-0.29371
-0.268665
-0.241086
-0.215633
-0.207421
-0.217376
-0.226742
-0.24224
-0.231199
-0.22448
-0.202059
-0.193891
-0.192715
-0.204547
-0.214706
-0.244412
-0.269819
-0.251244
-0.233394
-0.225724
-0.258167
-0.265611
-0.273099
-0.295679
-0.298371
-0.316403
-0.309412
-0.292556
-0.265724
-0.268688
-0.276425
-0.318914
-0.351403
-0.338575
-0.335656
-0.307421
-0.298823
-0.309796
-0.290249
-0.255271
-0.255045
-0.264706
-0.249344
-0.233756
-0.202896
-0.201787
-0.205339
-0.21371
-0.181878
-0.165
-0.143054
-0.130883
-0.138552
-0.15595
-0.183122
-0.190068
-0.206765
-0.223281
-0.229774
-0.226312
-0.232851
-0.249231
-0.285226
-0.315973
-0.346584
-0.347263
-0.342986
-0.328824
-0.309729
-0.285656
-0.271629
-0.267851
-0.254231
-0.265814
-0.222624
-0.139841
0.0575115
0.389548
0.911426
1.5581
2.26973
2.90122
3.28244
3.31346
3.27419
2.0448
1.12541
0.206064
-0.718122
-0.642353
-0.236606
0.0191405
0.0299776
-0.104344
-0.208823
-0.258303
-0.252805
-0.227104
-0.201199
-0.210362
-0.204547
-0.208823
-0.188167
-0.167443
-0.151629
-0.145656
-0.12966
-0.128665
-0.122873
-0.117194
-0.106719
-0.0861309
-0.0603615
-0.0645471
-0.0737553
-0.0530992
-0.0326918
-0.0124204
0.0276023
0.0626249
0.0926023
0.112783
0.133032
0.143281
0.163439
0.198326
0.247896
0.297376
0.336924
0.37163
0.396426
0.426177
0.445951
0.475679
0.490249
0.54991
0.564684
0.564661
0.574887
0.550294
0.525769
0.501154
0.496312
0.45129
0.416426
0.341629
0.277014
0.197466
0.117783
0.0281676
-0.0214252
-0.0310858
-0.0459275
-0.066018
-0.121674
-0.168303
-0.196403
-0.211584
-0.229118
-0.244299
-0.251946
-0.301041
-0.314977
-0.336425
-0.348801
-0.337127
-0.336335
-0.338801
-0.317964
-0.283688
-0.289977
-0.305973
-0.336471
-0.331787
-0.332172
-0.302828
-0.29362
-0.26948
-0.280272
-0.29595
-0.306561
-0.307263
-0.308032
-0.323778
-0.329638
-0.300294
-0.285588
-0.279955
-0.287919
-0.28853
-0.311244
-0.32077
-0.297579
-0.277828
-0.238077
-0.21853
-0.219548
-0.224683
-0.25405
-0.262647
-0.286199
-0.2981
-0.298982
-0.274932
-0.236539
-0.243711
-0.246267
-0.279141
-0.30215
-0.305249
-0.308462
-0.296629
-0.299955
-0.298236
-0.316607
-0.325023
-0.338552
-0.332172
-0.320928
-0.304661
-0.293235
-0.311629
-0.334842
-0.327715
-0.31052
-0.288281
-0.260837
-0.257964
-0.234593
-0.235543
-0.226041
-0.251131
-0.255973
-0.250679
-0.240317
-0.189864
-0.14914
-0.1531
-0.146787
-0.160226
-0.168371
-0.18638
-0.194208
-0.187036
-0.169683
-0.187285
-0.224638
-0.256946
-0.289231
-0.296493
-0.308892
-0.29138
-0.278959
-0.266493
-0.284276
-0.29224
-0.300566
-0.304276
-0.283349
-0.277896
-0.247896
-0.233054
-0.203213
-0.133371
0.00642538
0.250905
0.575113
1.02914
1.5381
2.15201
2.71093
3.04998
3.02403
2.46317
1.54231
0.616335
-0.304616
-0.710611
-0.356652
-0.0225341
0.101832
0.0262893
-0.104367
-0.185249
-0.206109
-0.181878
-0.157579
-0.143258
-0.148824
-0.159412
-0.155045
-0.125769
-0.111539
-0.107308
-0.0981222
-0.103778
-0.104186
-0.114502
-0.0949321
-0.0954072
-0.0909955
-0.0867648
-0.0576698
-0.0235974
0.00531662
0.0092985
0.00834829
-0.0026924
0.011199
0.019751
0.083235
0.121629
0.149932
0.173167
0.18138
0.199751
0.233077
0.306403
0.359502
0.402511
0.415588
0.408801
0.437375
0.446109
0.484932
0.508824
0.53776
0.571787
0.601018
0.600543
0.570091
0.539638
0.519005
0.468235
0.447398
0.426606
0.40095
0.325498
0.235113
0.124819
0.0593666
-0.00153834
-0.0383936
-0.0518098
-0.0622398
-0.0700904
-0.105543
-0.138597
-0.163688
-0.194276
-0.240271
-0.260045
-0.281697
-0.269208
-0.282534
-0.276629
-0.269751
-0.265091
-0.272036
-0.269389
-0.266199
-0.27233
-0.277986
-0.293462
-0.284004
-0.279774
-0.275656
-0.256606
-0.257624
-0.233529
-0.224434
-0.240158
-0.250837
-0.266403
-0.276697
-0.261538
-0.245407
-0.227805
-0.218032
-0.210905
-0.206063
-0.218643
-0.239819
-0.246199
-0.245294
-0.218688
-0.20629
-0.197986
-0.196538
-0.213507
-0.234118
-0.259299
-0.250136
-0.231787
-0.233982
-0.256357
-0.243665
-0.240973
-0.243394
-0.250882
-0.258892
-0.252149
-0.245453
-0.248711
-0.256991
-0.300181
-0.328394
-0.336606
-0.31
-0.313416
-0.296833
-0.290136
-0.283235
-0.271018
-0.233416
-0.225339
-0.236968
-0.228303
-0.224457
-0.180091
-0.170407
-0.170159
-0.15957
-0.143688
-0.112715
-0.106606
-0.100294
-0.0987784
-0.076878
-0.0747286
-0.0872625
-0.114683
-0.177127
-0.209457
-0.221765
-0.248892
-0.26086
-0.287738
-0.319502
-0.366154
-0.347828
-0.329638
-0.301561
-0.288597
-0.260837
-0.248145
-0.250521
-0.262964
-0.270724
-0.263869
-0.227625
-0.116787
0.0687329
0.409095
0.859389
1.40475
2.03023
2.64566
3.09093
3.20613
3.28127
3.00129
2.29131
1.36631
0.446448
-0.473439
-0.708281
-0.2581
0.0620586
0.117149
-0.0126925
-0.177444
-0.26715
-0.296742
-0.271403
-0.241177
-0.226018
-0.220815
-0.21043
-0.214955
-0.209299
-0.218597
-0.213032
-0.207557
-0.19715
-0.156765
-0.126177
-0.125543
-0.149819
-0.159095
-0.143349
-0.152692
-0.12224
-0.102059
-0.0620135
-0.0319909
-0.0269004
-0.0418324
-0.0367646
-0.0317193
0.00319022
0.032964
0.102625
0.152217
0.191855
0.21138
0.220724
0.245068
0.284389
0.29362
0.397873
0.45724
0.49681
0.501561
0.511335
0.501154
0.500883
0.500701
0.530566
0.555701
0.555973
0.536448
0.497036
0.457692
0.408371
0.334163
0.274932
0.210588
0.161267
0.0619456
0.0028733
-0.0561313
-0.0901132
-0.124254
-0.118937
-0.13957
-0.166923
-0.181538
-0.198846
-0.208778
-0.246199
-0.270339
-0.285339
-0.295181
-0.303235
-0.312421
-0.327557
-0.318597
-0.306539
-0.299095
-0.294796
-0.296516
-0.3031
-0.298891
-0.303914
-0.308484
-0.312986
-0.322692
-0.327647
-0.332692
-0.30776
-0.282602
-0.271832
-0.27009
-0.261878
-0.276765
-0.294321
-0.299186
-0.27129
-0.25138
-0.236018
-0.225339
-0.215927
-0.209683
-0.212602
-0.214842
-0.221312
-0.223914
-0.214593
-0.203891
-0.213009
-0.227715
-0.243213
-0.274276
-0.275792
-0.242398
-0.224005
-0.230611
-0.252262
-0.273937
-0.290769
-0.292918
-0.280294
-0.272828
-0.275565
-0.283325
-0.316108
-0.313869
-0.321765
-0.319819
-0.328054
-0.316267
-0.299547
-0.277602
-0.270452
-0.278009
-0.275294
-0.262466
-0.254593
-0.246448
-0.232941
-0.223891
-0.224412
-0.199276
-0.188529
-0.162285
-0.140859
-0.124321
-0.112556
-0.0904748
-0.0981897
-0.125294
-0.157036
-0.183552
-0.185022
-0.196538
-0.213144
-0.254638
-0.266108
-0.292488
-0.318778
-0.339954
-0.351108
-0.352443
-0.339072
-0.32104
-0.303529
-0.286267
-0.279276
-0.27242
-0.280973
-0.284796
-0.288936
-0.243393
-0.108054
0.132331
0.517761
1.02319
1.61862
2.21903
2.76934
3.13455
3.29468
3.1948
2.76491
1.89511
0.970498
0.0508602
-0.663732
-0.783325
-0.137986
0.102376
0.0877607
-0.0617868
-0.221221
-0.295633
-0.300045
-0.259502
-0.219004
-0.208552
-0.198144
-0.212601
-0.236945
-0.266153
-0.250339
-0.219524
-0.188846
-0.158258
-0.152692
-0.152036
-0.136335
-0.130656
-0.13
-0.139502
-0.144072
-0.108574
-0.0930089
-0.0772623
-0.0514932
-0.0358371
-0.0202261
-0.0200678
-0.0101809
0.0245702
0.0943214
0.139231
0.169321
0.184525
0.199593
0.214548
0.244231
0.318733
0.358077
0.397579
0.44724
0.4619
0.506652
0.531403
0.561154
0.570996
0.600973
0.611154
0.616493
0.597014
0.572737
0.548575
0.519412
0.500339
0.476289
0.422217
0.348235
0.264366
0.200565
0.12681
0.0431898
-0.0255658
-0.0443894
-0.0585297
-0.0832808
-0.114322
-0.152172
-0.187489
-0.215883
-0.237512
-0.256674
-0.251923
-0.256448
-0.292896
-0.305385
-0.298778
-0.293122
-0.315226
-0.339253
-0.340091
-0.316584
-0.292534
-0.252579
-0.256991
-0.261177
-0.280317
-0.289729
-0.289231
-0.278778
-0.243213
-0.232444
-0.236086
-0.263733
-0.284638
-0.288394
-0.28457
-0.253122
-0.239186
-0.218665
-0.197353
-0.176426
-0.177421
-0.207421
-0.206697
-0.20534
-0.197331
-0.179932
-0.179661
-0.183371
-0.202218
-0.221743
-0.23215
-0.238009
-0.233982
-0.23491
-0.23077
-0.226742
-0.232783
-0.23405
-0.255679
-0.262738
-0.259887
-0.252037
-0.259095
-0.271018
-0.278077
-0.285204
-0.282466
-0.284887
-0.257466
-0.250046
-0.277534
-0.299616
-0.346448
-0.353009
-0.319367
-0.300204
-0.210588
-0.165679
-0.150407
-0.179819
-0.213665
-0.217172
-0.220339
-0.193281
-0.186109
-0.143801
-0.116199
-0.0780772
-0.0947514
-0.116177
-0.112353
-0.133552
-0.15957
-0.150498
-0.17129
-0.192059
-0.237692
-0.253145
-0.268507
-0.283937
-0.294571
-0.295408
-0.306516
-0.292806
-0.274141
-0.280656
-0.287444
-0.289525
-0.296923
-0.299751
-0.257987
-0.216516
-0.125136
0.0263121
0.322692
0.743959
1.28002
1.93086
2.61147
3.1421
3.37787
3.20387
2.50498
1.586
0.666991
-0.257014
-0.781086
-0.380317
0.00531662
0.146086
0.037104
-0.146606
-0.270204
-0.303892
-0.307625
-0.241425
-0.230272
-0.224186
-0.253009
-0.251652
-0.245204
-0.223824
-0.222534
-0.191493
-0.165475
-0.144367
-0.143054
-0.126719
-0.140407
-0.15405
-0.157941
-0.142059
-0.12138
-0.0757015
-0.0500906
-0.0344571
-0.0237331
-0.00798655
0.00762427
0.00812209
0.0434163
0.0685973
0.0886199
0.118597
0.143529
0.178507
0.203507
0.238439
0.293439
0.358326
0.39328
0.423394
0.433733
0.434208
0.469683
0.485249
0.53086
0.571493
0.607172
0.598009
0.573914
0.519683
0.48034
0.435679
0.41595
0.316312
0.231765
0.167647
0.0987558
0.0647965
0.0104073
-0.0199999
-0.0667646
-0.105611
-0.121832
-0.14586
-0.192466
-0.246086
-0.265181
-0.294344
-0.308529
-0.293552
-0.289525
-0.281448
-0.277986
-0.271561
-0.271651
-0.302375
-0.317963
-0.323144
-0.303167
-0.28319
-0.25328
-0.233461
-0.248574
-0.26362
-0.278755
-0.298982
-0.294344
-0.274728
-0.27009
-0.275271
-0.275384
-0.305022
-0.313959
-0.316832
-0.302941
-0.276787
-0.237669
-0.240429
-0.260814
-0.275113
-0.275203
-0.268552
-0.261334
-0.248393
-0.229728
-0.223439
-0.220429
-0.250837
-0.280769
-0.316334
-0.302941
-0.290271
-0.28785
-0.295633
-0.298325
-0.286176
-0.299185
-0.307375
-0.320814
-0.314344
-0.32785
-0.301425
-0.309909
-0.338348
-0.366719
-0.375022
-0.368258
-0.376629
-0.320068
-0.288371
-0.286176
-0.293552
-0.280294
-0.276516
-0.277488
-0.283145
-0.258507
-0.253642
-0.228597
-0.213212
-0.182601
-0.166832
-0.155837
-0.159683
-0.158326
-0.146878
-0.160158
-0.153144
-0.170814
-0.19828
-0.235656
-0.268077
-0.275588
-0.297873
-0.310045
-0.307059
-0.313936
-0.315746
-0.317624
-0.309615
-0.301877
-0.274298
-0.261991
-0.244751
-0.242986
-0.246561
-0.250407
-0.21957
-0.153936
0.0364708
0.331697
0.78672
1.33667
1.9617
2.57176
3.04165
3.18129
3.17581
2.05025
1.12971
0.209276
-0.715973
-0.796199
-0.371312
-0.0614028
0.0284387
-0.0219458
-0.13233
-0.18767
-0.202941
-0.193145
-0.188258
-0.193235
-0.193235
-0.183326
-0.173552
-0.148891
-0.154186
-0.164412
-0.16457
-0.139661
-0.154706
-0.159864
-0.100113
-0.0703394
-0.0355206
-0.040611
-0.0505432
-0.0454754
-0.0506337
-0.0511087
-0.031697
0.0276015
0.0518097
0.0709952
0.0702487
0.0895926
0.123982
0.158077
0.186923
0.230543
0.264298
0.283031
0.321651
0.365181
0.408665
0.447262
0.455837
0.509389
0.532918
0.546425
0.559909
0.56871
0.582647
0.586651
0.570701
0.569796
0.583959
0.583213
0.547919
0.452941
0.378009
0.283009
0.193032
0.153009
0.092941
0.0428731
0.00791848
-0.0319459
-0.0717198
-0.0964482
-0.111131
-0.131041
-0.141245
-0.152127
-0.149163
-0.177987
-0.194118
-0.207919
-0.229571
-0.233824
-0.229842
-0.226448
-0.256946
-0.279254
-0.277466
-0.271516
-0.254321
-0.246901
-0.24638
-0.242715
-0.249865
-0.236629
-0.242693
-0.238145
-0.248417
-0.253756
-0.254231
-0.244638
-0.249661
-0.238801
-0.236561
-0.252172
-0.270317
-0.285792
-0.268597
-0.239412
-0.204684
-0.185045
-0.185385
-0.184819
-0.218462
-0.221312
-0.249751
-0.251471
-0.236855
-0.216833
-0.231969
-0.247647
-0.243643
-0.239683
-0.230769
-0.242014
-0.253416
-0.25
-0.236697
-0.233597
-0.240475
-0.237511
-0.249683
-0.272014
-0.284412
-0.292127
-0.285045
-0.297828
-0.300656
-0.303461
-0.311335
-0.329548
-0.317873
-0.281335
-0.274796
-0.258213
-0.241267
-0.228937
-0.22638
-0.238824
-0.246018
-0.212941
-0.189321
-0.175158
-0.190339
-0.17
-0.139299
-0.12328
-0.111832
-0.120068
-0.123009
-0.120769
-0.123099
-0.105113
-0.107014
-0.143824
-0.175543
-0.212149
-0.243778
-0.255475
-0.257149
-0.278665
-0.315158
-0.346787
-0.348959
-0.336629
-0.324864
-0.308484
-0.29724
-0.301154
-0.300362
-0.314729
-0.309208
-0.303892
-0.28371
-0.218665
-0.14371
0.00131214
0.256289
0.66129
1.15615
1.75095
2.3607
2.90534
3.25507
3.34998
3.09505
2.36505
1.44502
0.525045
0.240271
-0.919457
-0.504231
-0.0889597
0.096425
0.0369227
-0.107512
-0.226969
-0.266516
-0.256222
-0.230951
-0.215589
-0.235046
-0.239412
-0.248733
-0.268032
-0.262625
-0.227421
-0.207353
-0.177218
-0.156991
-0.14172
-0.166403
-0.181132
-0.170792
-0.165543
-0.11534
-0.0702492
-0.0552492
-0.0552719
-0.0702945
-0.0604302
-0.045747
-0.051109
-0.0316292
0.00780511
0.0371942
0.0766287
0.111154
0.165678
0.185181
0.214389
0.233597
0.267669
0.306742
0.360882
0.40009
0.429389
0.468733
0.498122
0.507511
0.571923
0.601357
0.626109
0.626245
0.636674
0.617308
0.558009
0.528733
0.529412
0.494932
0.470385
0.386064
0.296901
0.197828
0.118666
0.0596159
0.0305434
-0.0188457
-0.0440041
-0.0707235
-0.104728
-0.151628
-0.206832
-0.229886
-0.249728
-0.275045
-0.298688
-0.298665
-0.304638
-0.311516
-0.329321
-0.331878
-0.336878
-0.313642
-0.280837
-0.252375
-0.258054
-0.268077
-0.293009
-0.277964
-0.27819
-0.293484
-0.288801
-0.28414
-0.269412
-0.26948
-0.294186
-0.293145
-0.290928
-0.281878
-0.270724
-0.256923
-0.230452
-0.226561
-0.231063
-0.23009
-0.215317
-0.209027
-0.202127
-0.234502
-0.223167
-0.212081
-0.224004
-0.24414
-0.273507
-0.273326
-0.273959
-0.250271
-0.226946
-0.228801
-0.250565
-0.282376
-0.309412
-0.311719
-0.319299
-0.277217
-0.260203
-0.258099
-0.270995
-0.278914
-0.2719
-0.28
-0.283303
-0.30681
-0.325317
-0.31871
-0.321946
-0.304864
-0.287602
-0.270294
-0.26276
-0.239955
-0.226788
-0.188416
-0.169706
-0.170543
-0.191086
-0.206154
-0.190724
-0.179751
-0.118552
-0.112036
-0.090362
-0.108484
-0.131312
-0.148688
-0.155792
-0.172783
-0.179661
-0.176493
-0.183416
-0.199978
-0.251358
-0.292557
-0.343756
-0.364796
-0.356018
-0.342557
-0.324231
-0.295883
-0.282715
-0.294616
-0.301946
-0.304729
-0.297964
-0.301629
-0.265588
-0.179706
0.00106311
0.336855
0.837647
1.47826
2.20369
2.84885
3.23894
3.304
2.89907
2.04916
1.12939
0.209638
-0.695113
-0.775
-0.274978
0.0800905
0.170339
0.0357918
-0.143575
-0.272896
-0.282285
-0.28181
-0.22138
-0.220928
-0.210521
-0.199955
-0.194367
-0.173643
-0.177873
-0.197263
-0.20172
-0.201267
-0.17086
-0.160385
-0.139842
-0.12914
-0.133462
-0.142715
-0.132104
-0.0915838
-0.0411993
-0.0159051
-0.0157919
-0.0156789
-0.0405205
-0.0204526
-0.00547516
0.0343438
0.0691402
0.0988234
0.138575
0.188461
0.19328
0.217896
0.247172
0.301222
0.350271
0.404457
0.424095
0.438982
0.458982
0.493891
0.528688
0.568575
0.588597
0.618846
0.629254
0.609615
0.625113
0.600453
0.575769
0.566199
0.501697
0.452285
0.387919
0.338575
0.284412
0.225521
0.19172
0.127557
0.0523983
-0.0143439
-0.0486197
-0.0958142
-0.121448
-0.144706
-0.183733
-0.243869
-0.277398
-0.281968
-0.272443
-0.253801
-0.221267
-0.233936
-0.243371
-0.259027
-0.259932
-0.285588
-0.26586
-0.255882
-0.255882
-0.260814
-0.255634
-0.265385
-0.255272
-0.245339
-0.24543
-0.230543
-0.225679
-0.220656
-0.245204
-0.273914
-0.296108
-0.281176
-0.273552
-0.247715
-0.229004
-0.213416
-0.207466
-0.208416
-0.218303
-0.217511
-0.221063
-0.213755
-0.201878
-0.217828
-0.23224
-0.241335
-0.251199
-0.267104
-0.26371
-0.260498
-0.237375
-0.244117
-0.250995
-0.283009
-0.285045
-0.302285
-0.314638
-0.307172
-0.294909
-0.277737
-0.265543
-0.278145
-0.290724
-0.313122
-0.320452
-0.357805
-0.345158
-0.327285
-0.303914
-0.284932
-0.280362
-0.270452
-0.26543
-0.25543
-0.255113
-0.249525
-0.243507
-0.217127
-0.205475
-0.208552
-0.191357
-0.16414
-0.11681
-0.0892758
-0.0865156
-0.118416
-0.169977
-0.201357
-0.217624
-0.203869
-0.180045
-0.186108
-0.217036
-0.262896
-0.313507
-0.314027
-0.329638
-0.290249
-0.260995
-0.261968
-0.253054
-0.259434
-0.240973
-0.227647
-0.22457
-0.261787
-0.279321
-0.217149
-0.0101807
0.356494
0.927964
1.63434
2.40057
3.00167
3.15267
3.37344
2.99898
2.1145
1.19016
0.271019
-0.587963
-0.5519
-0.181018
0.0347515
0.045385
-0.0638459
-0.173009
-0.222081
-0.216108
-0.215158
-0.214366
-0.218597
-0.202918
-0.172149
-0.171244
-0.160339
-0.159366
-0.158348
-0.167308
-0.171516
-0.170973
-0.140565
-0.0950677
-0.0795246
-0.0688913
-0.0932351
-0.107579
-0.0919909
-0.0716289
-0.0364705
0.0035522
0.0135975
0.0285975
0.0486878
0.0636426
0.0833938
0.118122
0.167692
0.19224
0.22172
0.241154
0.270634
0.300113
0.33957
0.353688
0.402805
0.446787
0.480747
0.504887
0.519185
0.51362
0.498303
0.503099
0.482964
0.477919
0.477873
0.46776
0.427692
0.357692
0.272851
0.167964
0.0930318
0.068009
0.0480317
-0.00185525
-0.0466291
-0.101403
-0.146131
-0.175973
-0.196493
-0.208303
-0.211901
-0.217783
-0.240973
-0.246539
-0.284412
-0.318914
-0.354208
-0.378371
-0.374186
-0.360792
-0.353122
-0.341539
-0.334548
-0.358258
-0.369706
-0.371471
-0.357941
-0.353688
-0.328982
-0.314231
-0.314389
-0.329638
-0.364842
-0.360136
-0.350588
-0.341312
-0.312195
-0.332738
-0.342217
-0.359955
-0.365136
-0.362262
-0.341041
-0.312172
-0.272579
-0.251991
-0.253122
-0.268303
-0.292647
-0.306245
-0.288892
-0.266674
-0.252873
-0.238145
-0.268349
-0.309027
-0.310226
-0.311855
-0.308643
-0.280724
-0.272964
-0.265385
-0.277828
-0.30034
-0.302987
-0.305815
-0.313892
-0.317104
-0.290453
-0.268824
-0.267285
-0.280611
-0.293756
-0.301833
-0.304932
-0.308168
-0.306471
-0.274548
-0.252308
-0.229638
-0.241471
-0.222874
-0.228937
-0.214842
-0.185589
-0.191041
-0.166109
-0.175657
-0.154865
-0.138711
-0.122331
-0.125702
-0.123801
-0.0767651
-0.0746158
-0.0572629
-0.0596157
-0.0866972
-0.103643
-0.110611
-0.14767
-0.179865
-0.201923
-0.23905
-0.241177
-0.258394
-0.250679
-0.243236
-0.251177
-0.219593
-0.203552
-0.172806
-0.177082
-0.186358
-0.210792
-0.205476
-0.210611
-0.160996
-0.00156152
0.277873
0.687285
1.21676
1.77131
2.32084
2.83025
3.1545
3.27364
2.98781
2.22695
1.30622
0.380611
-0.49491
-0.620407
-0.51586
0.0335065
0.09776
0.0120587
-0.113439
-0.188846
-0.204072
-0.219321
-0.209683
-0.205204
-0.175882
-0.141425
-0.121855
-0.107149
-0.122217
-0.15233
-0.172557
-0.168032
-0.138665
-0.114299
-0.0997965
-0.110136
-0.110272
-0.105294
-0.0954074
-0.100747
-0.08138
-0.0472171
0.0168551
0.0359955
0.0451583
0.0393439
0.0333936
0.0371493
0.080905
0.119661
0.183439
0.217262
0.251063
0.269864
0.313597
0.34233
0.391041
0.444683
0.473326
0.492036
0.491041
0.510226
0.509683
0.514186
0.513756
0.528439
0.533213
0.533032
0.497783
0.44767
0.387647
0.317828
0.232941
0.173122
0.158167
0.138213
0.0934389
0.0437105
-0.0209503
-0.070724
-0.121923
-0.154932
-0.185452
-0.224005
-0.225724
-0.249729
-0.260181
-0.295611
-0.334751
-0.350679
-0.337534
-0.325271
-0.309004
-0.331561
-0.335927
-0.342104
-0.323801
-0.320249
-0.301154
-0.286561
-0.266855
-0.252059
-0.262217
-0.282262
-0.302308
-0.317534
-0.307919
-0.263303
-0.253643
-0.243756
-0.263145
-0.266312
-0.277602
-0.286538
-0.288054
-0.24724
-0.224185
-0.204751
-0.214819
-0.206131
-0.210995
-0.21
-0.218326
-0.215724
-0.223801
-0.211448
-0.196719
-0.206855
-0.237443
-0.253665
-0.270475
-0.252511
-0.229909
-0.212421
-0.215045
-0.242715
-0.260452
-0.28328
-0.306086
-0.319118
-0.30733
-0.275724
-0.25405
-0.262353
-0.285543
-0.30862
-0.331697
-0.354728
-0.35276
-0.330588
-0.298145
-0.270204
-0.23181
-0.222783
-0.213597
-0.203937
-0.20414
-0.179253
-0.179163
-0.178688
-0.177851
-0.156629
-0.140158
-0.128484
-0.121697
-0.139706
-0.132579
-0.115181
-0.117489
-0.129502
-0.16138
-0.173258
-0.225113
-0.242036
-0.263982
-0.29095
-0.307851
-0.314751
-0.291584
-0.283552
-0.275611
-0.293054
-0.285973
-0.279344
-0.253032
-0.23672
-0.245453
-0.259367
-0.24853
-0.233009
0.10224
0.517194
1.08695
1.75165
2.45138
3.00131
3.32127
3.33124
3.04095
2.3005
1.38007
0.459887
-0.465136
-0.76
-0.384955
-0.0250229
0.0846831
0.00936627
-0.105882
-0.210928
-0.245724
-0.235339
-0.229955
-0.224593
-0.229434
-0.199321
-0.189299
-0.184254
-0.198959
-0.198643
-0.19819
-0.187738
-0.192263
-0.181946
-0.161878
-0.126878
-0.111765
-0.0915385
-0.0811992
-0.0909503
-0.065905
-0.0711312
-0.0415158
-0.016991
0.00757927
0.0171494
0.04181
0.0766063
0.0913123
0.105747
0.159932
0.193914
0.258009
0.292285
0.32172
0.36129
0.410724
0.450023
0.459344
0.49362
0.502851
0.522217
0.511923
0.536855
0.536855
0.526901
0.516968
0.506923
0.51181
0.476719
0.411855
0.322262
0.257783
0.183394
0.168869
0.0742986
0.0397511
0.0153168
-0.0240498
-0.0637557
-0.104163
-0.126018
-0.14991
-0.166425
-0.180996
-0.193462
-0.2081
-0.233552
-0.258213
-0.307466
-0.325792
-0.330113
-0.315339
-0.297353
-0.284932
-0.279615
-0.280882
-0.277511
-0.293688
-0.299208
-0.329367
-0.304548
-0.269706
-0.254864
-0.244977
-0.260023
-0.270091
-0.275226
-0.270498
-0.265701
-0.255837
-0.239389
-0.221041
-0.23009
-0.256154
-0.279253
-0.27991
-0.26414
-0.208507
-0.184254
-0.183439
-0.21181
-0.229299
-0.250973
-0.25914
-0.240815
-0.195996
-0.170769
-0.18086
-0.206516
-0.247692
-0.269095
-0.255656
-0.26233
-0.239276
-0.251448
-0.24862
-0.245815
-0.258077
-0.25543
-0.277987
-0.300747
-0.313711
-0.296901
-0.260091
-0.258303
-0.256425
-0.274502
-0.297511
-0.30552
-0.268665
-0.226697
-0.199661
-0.192398
-0.199842
-0.206855
-0.213598
-0.229978
-0.220883
-0.191493
-0.151833
-0.121674
-0.125973
-0.139729
-0.153235
-0.181312
-0.174118
-0.156674
-0.178982
-0.186177
-0.183122
-0.195
-0.231697
-0.253303
-0.269864
-0.296448
-0.318168
-0.310045
-0.311946
-0.308801
-0.330815
-0.352987
-0.345475
-0.323303
-0.281652
-0.260204
-0.254231
-0.278417
-0.267602
-0.191901
-0.0363351
0.283937
0.754027
1.349
2.03398
2.67898
3.13903
3.32412
3.16419
3.06916
1.74394
0.823575
-0.0968101
-0.862036
-0.757014
-0.316901
0.00325775
0.0633935
-0.0465161
-0.171561
-0.246607
-0.23681
-0.261855
-0.25672
-0.261493
-0.251063
-0.230611
-0.225158
-0.209864
-0.214683
-0.214412
-0.229027
-0.233575
-0.238077
-0.232692
-0.187398
-0.177217
-0.172013
-0.131832
-0.116561
-0.0962895
-0.0910406
-0.100905
-0.100995
-0.0662668
-0.0215382
0.00830334
0.0283712
0.0234843
0.0335749
0.0433034
0.0577151
0.102036
0.13138
0.195769
0.24034
0.27
0.28457
0.303937
0.308145
0.352308
0.396335
0.450385
0.494457
0.503688
0.528122
0.542738
0.547557
0.552421
0.562263
0.582172
0.582285
0.562783
0.543484
0.504276
0.435068
0.385837
0.331493
0.261946
0.212421
0.1681
0.114118
0.0304073
-0.023371
-0.0426244
-0.10776
-0.129366
-0.138077
-0.15948
-0.184321
-0.21733
-0.237443
-0.273416
-0.318461
-0.315294
-0.318054
-0.301765
-0.276448
-0.279208
-0.282466
-0.283823
-0.315927
-0.337828
-0.328982
-0.289479
-0.259502
-0.249366
-0.249276
-0.274321
-0.289434
-0.299253
-0.273394
-0.251063
-0.241538
-0.244321
-0.244027
-0.240882
-0.235769
-0.224887
-0.199728
-0.175
-0.146312
-0.136855
-0.156629
-0.199864
-0.212556
-0.218348
-0.212783
-0.197104
-0.182013
-0.187534
-0.183484
-0.19448
-0.200679
-0.206991
-0.243529
-0.265203
-0.277036
-0.248982
-0.221041
-0.238213
-0.255498
-0.258077
-0.255927
-0.249027
-0.267194
-0.280203
-0.30328
-0.301425
-0.284411
-0.277398
-0.285362
-0.298371
-0.271425
-0.254412
-0.262036
-0.269276
-0.276063
-0.26242
-0.268529
-0.214412
-0.185045
-0.185339
-0.175158
-0.189525
-0.203371
-0.231787
-0.204977
-0.153054
-0.126018
-0.108869
-0.0963799
-0.118575
-0.13043
-0.142104
-0.143755
-0.175294
-0.211765
-0.233303
-0.244819
-0.261244
-0.262601
-0.298914
-0.310384
-0.317013
-0.318868
-0.316108
-0.293552
-0.261154
-0.253982
-0.266991
-0.300203
-0.32871
-0.317669
-0.226968
-0.0464025
0.248914
0.719254
1.32962
2.06493
2.75529
3.2205
3.39552
3.15048
2.41543
1.49559
0.57086
-0.343756
-0.763235
-0.657783
0.0275564
0.16776
0.097828
-0.06224
-0.187217
-0.251855
-0.266086
-0.250226
-0.244344
-0.218801
-0.208417
-0.203032
-0.207512
-0.221742
-0.22086
-0.215023
-0.199276
-0.17362
-0.158032
-0.157466
-0.156856
-0.146109
-0.130295
-0.114412
-0.113733
-0.128281
-0.108055
-0.088032
-0.0530094
-0.0329189
-0.0226475
-0.00242114
0.0177599
0.0377373
0.0675789
0.11233
0.1519
0.206448
0.236063
0.275837
0.295769
0.320633
0.370542
0.425362
0.475203
0.495203
0.505339
0.530588
0.550859
0.556289
0.571923
0.587601
0.603144
0.603619
0.589321
0.545135
0.50595
0.436606
0.362171
0.302737
0.263325
0.219185
0.16009
0.100543
0.030814
-0.0216974
-0.07672
-0.104729
-0.125589
-0.143824
-0.17862
-0.223847
-0.262783
-0.293439
-0.295
-0.292466
-0.290928
-0.288304
-0.267421
-0.267896
-0.278892
-0.27457
-0.284729
-0.269751
-0.254729
-0.244752
-0.229842
-0.234842
-0.254797
-0.274593
-0.28439
-0.284344
-0.274525
-0.259887
-0.240159
-0.230046
-0.239186
-0.262037
-0.267806
-0.265883
-0.280792
-0.252648
-0.202467
-0.191403
-0.206381
-0.224638
-0.237105
-0.238983
-0.245136
-0.238372
-0.221222
-0.191064
-0.190249
-0.179752
-0.190001
-0.225951
-0.287421
-0.299209
-0.306177
-0.258417
-0.240702
-0.253078
-0.260544
-0.298213
-0.321109
-0.324163
-0.317399
-0.310589
-0.308711
-0.311788
-0.314865
-0.337783
-0.335544
-0.34801
-0.325091
-0.316924
-0.278485
-0.239616
-0.23534
-0.23577
-0.260883
-0.25586
-0.240657
-0.205181
-0.17939
-0.163236
-0.156697
-0.169865
-0.192761
-0.195476
-0.198055
-0.195589
-0.218032
-0.195363
-0.192308
-0.214005
-0.255521
-0.286924
-0.308236
-0.334548
-0.355906
-0.35224
-0.323552
-0.314752
-0.330905
-0.332037
-0.333417
-0.300091
-0.282173
-0.264593
-0.272172
-0.274797
-0.252648
-0.150747
-0.0992311
0.501832
1.04262
1.6733
2.329
2.90475
3.27557
3.38629
3.11174
2.36204
1.44222
0.522466
-0.367082
-0.641448
-0.295724
-0.0198646
0.0809047
-0.008394
-0.127761
-0.197172
-0.221494
-0.220657
-0.209729
-0.228666
-0.217648
-0.221743
-0.216019
-0.195317
-0.179661
-0.168892
-0.177919
-0.171788
-0.155589
-0.144412
-0.133371
-0.117557
-0.0819235
-0.0666066
-0.0513351
-0.0709279
-0.0854979
-0.0950003
-0.0845251
-0.0342309
-0.00407267
0.0360179
0.056131
0.0763119
0.0715834
0.0717417
0.0768098
0.106742
0.156538
0.211108
0.265724
0.330362
0.365339
0.395407
0.420452
0.460452
0.495294
0.530136
0.575158
0.58052
0.591086
0.596697
0.597059
0.562353
0.537489
0.487715
0.417941
0.363303
0.28862
0.214072
0.144683
0.115362
0.0659502
0.0461538
0.0259049
-0.0151809
-0.0675566
-0.121923
-0.168756
-0.203235
-0.220272
-0.244344
-0.249502
-0.254661
-0.263032
-0.24767
-0.285928
-0.292127
-0.309276
-0.321991
-0.316652
-0.297692
-0.284186
-0.275498
-0.266312
-0.276674
-0.286923
-0.307353
-0.297964
-0.273642
-0.254117
-0.254457
-0.279638
-0.30991
-0.305362
-0.310837
-0.285995
-0.256086
-0.243439
-0.26328
-0.280181
-0.289072
-0.29543
-0.280113
-0.234367
-0.209932
-0.194027
-0.197398
-0.235045
-0.276832
-0.299887
-0.311516
-0.292013
-0.287149
-0.26776
-0.269117
-0.27586
-0.297692
-0.309661
-0.326765
-0.32414
-0.321697
-0.304434
-0.312421
-0.30543
-0.323461
-0.356493
-0.374638
-0.382941
-0.391357
-0.389955
-0.353665
-0.322217
-0.28052
-0.25871
-0.25681
-0.269887
-0.317896
-0.34586
-0.328552
-0.305769
-0.297466
-0.293665
-0.289593
-0.280294
-0.255769
-0.226018
-0.205995
-0.210679
-0.219887
-0.238756
-0.247353
-0.270611
-0.26871
-0.271538
-0.264321
-0.2619
-0.279253
-0.316357
-0.378212
-0.410022
-0.411787
-0.353575
-0.335588
-0.31785
-0.330249
-0.337851
-0.340611
-0.318665
-0.307104
-0.300927
-0.310181
-0.289593
-0.229253
-0.123936
0.0762899
0.39638
0.861312
1.42104
2.01052
2.55973
2.98382
3.21785
3.21206
2.81643
1.96591
1.68052
0.119842
-0.800905
-0.721674
-0.327511
-0.0482124
0.0212219
-0.0442306
-0.154728
-0.230226
-0.250769
-0.231312
-0.1969
-0.187353
-0.202647
-0.217828
-0.238009
-0.228348
-0.193801
-0.169389
-0.140045
-0.105588
-0.11086
-0.125995
-0.146199
-0.156538
-0.142081
-0.142805
-0.128484
-0.114027
-0.0844343
-0.059819
-0.0352714
-0.0111538
-0.00742078
0.0210633
0.0444343
0.063009
0.0767421
0.12043
0.134118
0.127828
0.156425
0.194887
0.233213
0.281471
0.314706
0.373032
0.396425
0.414864
0.423235
0.436493
0.474593
0.512783
0.561154
0.594774
0.573846
0.553235
0.542873
0.537602
0.512285
0.481923
0.46129
0.410543
0.354932
0.26948
0.199185
0.158869
0.128484
0.0730315
0.0227148
-0.0325343
-0.0680999
-0.124955
-0.148869
-0.160611
-0.180498
-0.193643
-0.239299
-0.241019
-0.26215
-0.290634
-0.320046
-0.335476
-0.342014
-0.341494
-0.332399
-0.284616
-0.267398
-0.264751
-0.271991
-0.308303
-0.299502
-0.290566
-0.281675
-0.257806
-0.253914
-0.24991
-0.265566
-0.265747
-0.275
-0.287874
-0.288779
-0.26724
-0.223054
-0.19138
-0.172783
-0.188122
-0.198552
-0.20586
-0.20215
-0.159797
-0.149502
-0.168281
-0.171674
-0.198281
-0.208733
-0.219027
-0.199729
-0.191109
-0.192964
-0.204978
-0.216946
-0.238756
-0.250611
-0.257738
-0.260159
-0.252941
-0.260928
-0.228846
-0.221765
-0.224661
-0.257511
-0.28052
-0.293823
-0.292489
-0.271425
-0.255407
-0.269367
-0.273167
-0.296855
-0.300249
-0.298575
-0.246787
-0.204683
-0.172307
-0.159457
-0.186154
-0.217488
-0.188597
-0.189276
-0.199728
-0.195045
-0.174932
-0.159366
-0.138393
-0.126991
-0.125362
-0.143461
-0.141402
-0.139321
-0.142217
-0.12009
-0.142715
-0.185158
-0.232353
-0.289185
-0.321063
-0.328099
-0.320294
-0.302556
-0.299955
-0.282489
-0.28009
-0.287896
-0.295882
-0.319321
-0.308167
-0.287149
-0.26138
-0.265837
-0.250475
-0.160385
0.11957
0.564231
1.1688
1.85333
2.54781
3.10238
3.33186
3.20645
2.62104
1.70057
0.78
-0.145747
-0.636516
-0.327308
0.0170361
0.156697
0.0764931
0.0363121
-0.179005
-0.20957
-0.220091
-0.200407
-0.190679
-0.205815
-0.210973
-0.226154
-0.226425
-0.231674
-0.216923
-0.187263
-0.167511
-0.162738
-0.162783
-0.162647
-0.162512
-0.147534
-0.127738
-0.0981451
-0.0835751
-0.0838466
-0.104073
-0.109503
-0.110046
-0.0857923
-0.051652
-0.0276474
0.0114703
0.0406106
0.0547508
0.0638006
0.0628051
0.081606
0.125271
0.173846
0.232443
0.286041
0.30466
0.328484
0.352534
0.376697
0.405973
0.455339
0.514842
0.564502
0.589366
0.584389
0.564321
0.554186
0.518914
0.528643
0.528394
0.483394
0.42862
0.354004
0.279593
0.220045
0.185068
0.134457
0.0972396
0.0573526
-0.0158601
-0.0875568
-0.150181
-0.211132
-0.242263
-0.257217
-0.279208
-0.272082
-0.270792
-0.260407
-0.27353
-0.273394
-0.279548
-0.326041
-0.33733
-0.323213
-0.298869
-0.289457
-0.284955
-0.28543
-0.290837
-0.296267
-0.311787
-0.297489
-0.278303
-0.28905
-0.264706
-0.270204
-0.280656
-0.276131
-0.281312
-0.270294
-0.267285
-0.256493
-0.247647
-0.255747
-0.251357
-0.246041
-0.23638
-0.224435
-0.216742
-0.183281
-0.184027
-0.182082
-0.203846
-0.224253
-0.234276
-0.234909
-0.21086
-0.192919
-0.195136
-0.232511
-0.234864
-0.242625
-0.235724
-0.229005
-0.227489
-0.236018
-0.249615
-0.248122
-0.276538
-0.269864
-0.278145
-0.301403
-0.299638
-0.29776
-0.285565
-0.263054
-0.265113
-0.266719
-0.267918
-0.238914
-0.214751
-0.195385
-0.180633
-0.160543
-0.165113
-0.159434
-0.158394
-0.147172
-0.145995
-0.119955
-0.0987556
-0.082104
-0.0849999
-0.0725338
-0.0798641
-0.0871718
-0.124412
-0.146584
-0.19871
-0.235701
-0.272443
-0.298914
-0.315113
-0.326131
-0.312059
-0.293145
-0.279344
-0.275792
-0.272285
-0.268733
-0.270339
-0.267081
-0.294276
-0.28681
-0.21966
-0.0475563
0.309435
0.891267
1.63296
2.42437
2.64548
3.40129
3.4519
3.19238
2.51794
1.60857
0.689344
-0.219774
-0.528891
-0.168099
0.0727378
0.0985522
-0.00581437
-0.130136
-0.189389
-0.198484
-0.202647
-0.206878
-0.206131
-0.200294
-0.189389
-0.158439
-0.157398
-0.16129
-0.160249
-0.169186
-0.18319
-0.16233
-0.136448
-0.120543
-0.114661
-0.12371
-0.11276
-0.091923
-0.0862217
-0.0607465
-0.040475
-0.0252714
-0.00515831
0.0100454
0.01543
0.0359502
0.0614254
0.106629
0.161471
0.216199
0.245928
0.275882
0.280996
0.306131
0.321109
0.421041
0.48095
0.515928
0.546109
0.556561
0.567104
0.562783
0.573552
0.574253
0.569864
0.565317
0.560679
0.536041
0.481493
0.431991
0.36776
0.283507
0.194231
0.129774
0.0902489
0.0454298
-0.0150227
-0.0565385
-0.10948
-0.129231
-0.186222
-0.220837
-0.213054
-0.197104
-0.226516
-0.294389
-0.353281
-0.378032
-0.368552
-0.350272
-0.337579
-0.326878
-0.312444
-0.313235
-0.31905
-0.319004
-0.328869
-0.343891
-0.369072
-0.354253
-0.339389
-0.319434
-0.299502
-0.309593
-0.319751
-0.345
-0.320452
-0.321154
-0.3119
-0.337308
-0.361832
-0.359706
-0.360068
-0.352262
-0.336063
-0.308982
-0.293439
-0.26267
-0.268077
-0.281561
-0.289366
-0.306493
-0.297896
-0.295792
-0.307194
-0.307624
-0.313077
-0.334163
-0.336018
-0.348394
-0.326018
-0.308936
-0.307081
-0.335362
-0.358756
-0.387149
-0.395452
-0.393891
-0.392534
-0.376267
-0.370023
-0.35371
-0.357127
-0.370294
-0.358303
-0.375973
-0.373461
-0.350701
-0.342624
-0.304298
-0.270543
-0.261403
-0.242013
-0.262307
-0.272375
-0.302217
-0.286968
-0.246493
-0.185701
-0.169502
-0.167873
-0.191086
-0.20414
-0.207194
-0.205158
-0.193122
-0.190633
-0.19285
-0.224864
-0.276697
-0.298461
-0.335203
-0.347059
-0.353959
-0.32095
-0.288032
-0.285204
-0.277285
-0.289548
-0.282059
-0.314751
-0.307692
-0.300927
-0.25957
-0.213552
-0.122828
0.0376924
0.287919
0.622964
1.01783
1.51756
2.09708
2.68149
3.08606
3.19079
2.87054
2.00507
1.08423
0.158213
-0.692805
-0.573688
-0.174389
0.0801356
0.0748868
0.0395927
-0.190815
-0.241358
-0.226968
-0.20767
-0.198371
-0.193914
-0.204321
-0.199661
-0.195
-0.180453
-0.165996
-0.121652
-0.0971493
-0.0825793
-0.0929186
-0.118281
-0.128824
-0.104502
-0.065249
-0.025973
-0.00176489
-0.0125793
-0.013507
-0.0144798
-0.010611
0.0331673
0.0668551
0.100498
0.119231
0.147873
0.171335
0.199706
0.232986
0.276244
0.32957
0.372828
0.431131
0.474593
0.503077
0.531471
0.539909
0.548348
0.576991
0.615837
0.634819
0.628914
0.598167
0.557579
0.526991
0.506358
0.435679
0.384864
0.339005
0.288281
0.237647
0.167217
0.101991
0.0618554
0.0115386
-0.0244116
-0.0714931
-0.075475
-0.106855
-0.140973
-0.185769
-0.240226
-0.261267
-0.282737
-0.293416
-0.301697
-0.295995
-0.301063
-0.306968
-0.315068
-0.324593
-0.330995
-0.328303
-0.310633
-0.292375
-0.273597
-0.259298
-0.244909
-0.270588
-0.256335
-0.257194
-0.267986
-0.278846
-0.299638
-0.300475
-0.291108
-0.266606
-0.266742
-0.261131
-0.259457
-0.266335
-0.246561
-0.24457
-0.234932
-0.237624
-0.228461
-0.234004
-0.226199
-0.187466
-0.162918
-0.152556
-0.17104
-0.203959
-0.245226
-0.280611
-0.271267
-0.252307
-0.224344
-0.221696
-0.219072
-0.246425
-0.268914
-0.286629
-0.284683
-0.267986
-0.256402
-0.249887
-0.253416
-0.266946
-0.285452
-0.298914
-0.322353
-0.310927
-0.284479
-0.277851
-0.286018
-0.268846
-0.25129
-0.228394
-0.205249
-0.191833
-0.198167
-0.193959
-0.204344
-0.214276
-0.189027
-0.158213
-0.137149
-0.120973
-0.134751
-0.148371
-0.141629
-0.124525
-0.136923
-0.134027
-0.135973
-0.162805
-0.184729
-0.231652
-0.268462
-0.290045
-0.291403
-0.312828
-0.324344
-0.321154
-0.318122
-0.290181
-0.272534
-0.255181
-0.257964
-0.265973
-0.269163
-0.277783
-0.286765
-0.225905
-0.105294
0.135181
0.525565
1.07102
1.71638
1.92661
2.97165
3.32149
3.39129
3.20115
2.66604
1.78604
0.861108
-0.0586653
-0.683439
-0.403281
-0.0432581
0.131674
0.096674
-0.0480771
-0.172693
-0.25724
-0.246765
-0.231245
-0.210905
-0.200453
-0.21
-0.229502
-0.238959
-0.22353
-0.228077
-0.212534
-0.201878
-0.20629
-0.190747
-0.175204
-0.144661
-0.133959
-0.138258
-0.142602
-0.147081
-0.106742
-0.0615384
-0.0264931
-0.0212216
-0.0208143
-0.0202712
-0.0248866
0.0102265
0.0699323
0.124389
0.173801
0.163304
0.183032
0.202874
0.217919
0.257874
0.312738
0.377444
0.437127
0.467082
0.497331
0.522874
0.568552
0.589299
0.595
0.580747
0.586403
0.572059
0.557851
0.553688
0.519593
0.460453
0.37638
0.322308
0.263394
0.214548
0.140611
0.0861993
0.020611
-0.00185502
-0.101584
-0.13871
-0.143348
-0.130339
-0.134118
-0.173529
-0.221199
-0.280091
-0.304864
-0.310475
-0.302534
-0.270136
-0.259525
-0.254977
-0.265724
-0.295611
-0.284909
-0.29414
-0.26862
-0.263258
-0.262828
-0.267262
-0.251538
-0.265701
-0.265023
-0.274457
-0.249027
-0.233756
-0.238597
-0.233122
-0.237059
-0.259864
-0.27086
-0.269593
-0.255521
-0.240566
-0.22086
-0.199638
-0.203258
-0.18776
-0.194706
-0.185656
-0.21586
-0.220498
-0.21819
-0.199683
-0.184729
-0.19405
-0.228597
-0.238823
-0.234774
-0.226267
-0.222964
-0.209819
-0.221787
-0.223891
-0.246109
-0.268507
-0.266109
-0.273801
-0.286674
-0.289502
-0.27724
-0.265045
-0.267806
-0.280588
-0.30319
-0.310656
-0.303032
-0.290227
-0.257014
-0.248303
-0.218982
-0.239254
-0.249344
-0.269299
-0.249118
-0.218846
-0.16819
-0.147014
-0.125362
-0.123394
-0.14138
-0.159299
-0.19715
-0.2
-0.197647
-0.174932
-0.161855
-0.198507
-0.245045
-0.296471
-0.322851
-0.34405
-0.345204
-0.361244
-0.357353
-0.338484
-0.334751
-0.331086
-0.347466
-0.314027
-0.305973
-0.278348
-0.285973
-0.283778
-0.266833
-0.155204
0.0960407
0.501878
1.02762
1.58799
2.16335
2.69882
3.07946
3.2052
2.82586
2.00636
1.08163
0.161787
-0.628077
-0.537828
-0.167443
0.0180091
0.0434389
-0.171131
-0.305792
-0.345339
-0.304932
-0.269389
-0.283823
-0.28828
-0.30767
-0.316946
-0.28638
-0.270927
-0.245588
-0.220113
-0.204434
-0.213755
-0.223077
-0.232443
-0.2419
-0.196493
-0.171199
-0.155814
-0.160362
-0.144909
-0.109457
-0.10405
-0.0987554
-0.0937554
-0.0788684
-0.0192531
0.0302944
0.0448871
0.0846156
0.099412
0.114141
0.118665
0.152942
0.187127
0.241335
0.290566
0.33491
0.374276
0.388688
0.407987
0.442172
0.476312
0.510521
0.51491
0.504616
0.514638
0.519887
0.540136
0.530317
0.510272
0.485272
0.44034
0.345498
0.275883
0.186222
0.131561
0.0967875
0.0669684
0.0371268
0.0123305
-0.0378506
-0.0929863
-0.145633
-0.170814
-0.199027
-0.205407
-0.214412
-0.215
-0.23586
-0.275769
-0.303439
-0.312014
-0.311606
-0.307262
-0.290837
-0.285566
-0.276946
-0.299027
-0.300882
-0.292127
-0.277873
-0.278484
-0.274163
-0.269977
-0.245566
-0.236109
-0.236516
-0.256923
-0.252376
-0.257851
-0.227987
-0.202082
-0.199344
-0.204208
-0.226561
-0.236267
-0.233597
-0.234231
-0.224389
-0.21138
-0.202217
-0.192285
-0.191539
-0.214457
-0.217014
-0.223009
-0.213258
-0.223507
-0.234842
-0.251878
-0.254095
-0.261154
-0.263303
-0.260701
-0.283439
-0.296493
-0.279774
-0.257941
-0.246154
-0.254457
-0.287941
-0.296561
-0.295385
-0.294457
-0.303665
-0.292986
-0.277014
-0.295837
-0.30957
-0.308167
-0.30647
-0.319457
-0.297194
-0.254615
-0.231742
-0.208348
-0.19957
-0.205158
-0.215452
-0.215339
-0.21
-0.199479
-0.153937
-0.128122
-0.121945
-0.120407
-0.128597
-0.141583
-0.149434
-0.142285
-0.135068
-0.117669
-0.13509
-0.182262
-0.249321
-0.301402
-0.333416
-0.33052
-0.322647
-0.289864
-0.302149
-0.304525
-0.307036
-0.319977
-0.29828
-0.267059
-0.261176
-0.26043
-0.27466
-0.264095
-0.148688
-0.108552
0.466358
1.04597
1.71543
2.3948
2.95425
3.26382
3.31862
3.10846
2.63315
1.73762
0.817082
-0.103484
-0.619004
-0.394434
-0.0548414
0.0950227
0.0248644
-0.110317
-0.205543
-0.235882
-0.22129
-0.211606
-0.231742
-0.236697
-0.241539
-0.251493
-0.241539
-0.221606
-0.186629
-0.166448
-0.166199
-0.17086
-0.16552
-0.175385
-0.165407
-0.160498
-0.140679
-0.115905
-0.0862221
-0.076584
-0.072014
-0.0523984
-0.0430547
-0.0186881
0.000542641
0.0247733
0.0489362
0.0680085
0.0669904
0.0708592
0.124728
0.16362
0.232601
0.28147
0.320316
0.324411
0.348619
0.392986
0.457398
0.501764
0.536244
0.580905
0.600837
0.615927
0.596108
0.576289
0.571267
0.536131
0.48595
0.450814
0.400701
0.335746
0.275972
0.176357
0.151878
0.0622849
0.0120587
-0.0394345
-0.0779187
-0.108959
-0.117941
-0.154638
-0.213688
-0.253914
-0.279254
-0.293439
-0.294616
-0.28672
-0.284638
-0.291244
-0.293597
-0.31276
-0.333643
-0.340226
-0.346561
-0.322263
-0.297376
-0.287421
-0.292353
-0.297421
-0.312534
-0.312738
-0.303009
-0.288235
-0.268371
-0.273439
-0.308507
-0.293688
-0.283778
-0.273461
-0.278099
-0.260181
-0.239661
-0.231131
-0.234547
-0.240407
-0.259751
-0.258801
-0.234027
-0.191652
-0.178575
-0.164729
-0.170045
-0.177737
-0.179547
-0.230023
-0.245068
-0.24052
-0.221742
-0.183529
-0.17052
-0.187534
-0.224638
-0.242081
-0.259842
-0.237873
-0.241154
-0.23448
-0.25267
-0.270679
-0.263733
-0.28681
-0.299932
-0.288054
-0.276131
-0.27405
-0.271674
-0.268959
-0.250769
-0.242059
-0.223054
-0.233755
-0.194163
-0.199298
-0.174004
-0.163393
-0.157489
-0.146244
-0.139751
-0.11319
-0.116674
-0.120022
-0.133235
-0.125995
-0.128461
-0.16043
-0.157308
-0.174208
-0.186018
-0.202647
-0.229118
-0.260407
-0.31147
-0.347308
-0.348032
-0.323914
-0.29
-0.271176
-0.252511
-0.254027
-0.265701
-0.272624
-0.264864
-0.272375
-0.275339
-0.238371
-0.101719
0.169661
0.610837
1.18183
1.84294
2.48905
3.03502
3.30066
3.32618
3.06163
2.38217
1.47283
0.55362
0.269548
-0.654593
-0.273778
0.0569686
0.142579
0.0331675
-0.141244
-0.270498
-0.279638
-0.273643
-0.25767
-0.251765
-0.235995
-0.235249
-0.224321
-0.213303
-0.222217
-0.221131
-0.210249
-0.219389
-0.193507
-0.162511
-0.151561
-0.145543
-0.139502
-0.133552
-0.137783
-0.162217
-0.171787
-0.12138
-0.0659274
-0.010294
0.00540733
0.00608611
0.0166064
0.0469911
0.09224
0.147127
0.166901
0.20172
0.231629
0.246923
0.267421
0.297828
0.353145
0.418371
0.473598
0.519118
0.539887
0.530837
0.526901
0.557873
0.563869
0.569729
0.575543
0.556493
0.532557
0.473643
0.419796
0.340928
0.257127
0.203349
0.14457
0.100702
0.0518102
-0.0171943
-0.067149
-0.10828
-0.161312
-0.201719
-0.224932
-0.220927
-0.209208
-0.213393
-0.256855
-0.282081
-0.358167
-0.375249
-0.343145
-0.314502
-0.287285
-0.276674
-0.28181
-0.286991
-0.317059
-0.326945
-0.311674
-0.286312
-0.270792
-0.270136
-0.279366
-0.278439
-0.272647
-0.266968
-0.266448
-0.266154
-0.27586
-0.295362
-0.284163
-0.286697
-0.277172
-0.320226
-0.31043
-0.292851
-0.24785
-0.231674
-0.21043
-0.215384
-0.218529
-0.225859
-0.247398
-0.235226
-0.232307
-0.237669
-0.226584
-0.225136
-0.229366
-0.23957
-0.240588
-0.2619
-0.263416
-0.254977
-0.241629
-0.238258
-0.269955
-0.276719
-0.273507
-0.280588
-0.272963
-0.255543
-0.253348
-0.27104
-0.26862
-0.271018
-0.263416
-0.24586
-0.22328
-0.200656
-0.208009
-0.220226
-0.222149
-0.233326
-0.244027
-0.229479
-0.199706
-0.174773
-0.144412
-0.113461
-0.101991
-0.105294
-0.103122
-0.145588
-0.172941
-0.165316
-0.177692
-0.169751
-0.181357
-0.217602
-0.268529
-0.294411
-0.330452
-0.321651
-0.312715
-0.298778
-0.294728
-0.305701
-0.311719
-0.307941
-0.314525
-0.301402
-0.293642
-0.286244
-0.264027
-0.252081
-0.205294
-0.18371
0.0524435
0.323258
0.748824
1.28419
1.90943
2.54971
3.05
3.24538
3.07086
2.36115
1.44133
0.521131
-0.404118
-0.76414
-0.464027
-0.12871
0.00669676
-0.0179639
-0.0976245
-0.177398
-0.217127
-0.216787
-0.221335
-0.235882
-0.24543
-0.284977
-0.269502
-0.254027
-0.213484
-0.173054
-0.177602
-0.187172
-0.206832
-0.21638
-0.231041
-0.195724
-0.165566
-0.135385
-0.125203
-0.119842
-0.109457
-0.10905
-0.0838687
-0.0689141
-0.0592083
-0.0596833
-0.0450906
-0.0454299
-0.0357919
-0.0310861
0.00855201
0.0480543
0.0973076
0.151448
0.200385
0.224344
0.248484
0.257783
0.272194
0.296516
0.310679
0.364842
0.429004
0.483439
0.523054
0.523122
0.528326
0.498461
0.50362
0.518823
0.519117
0.504525
0.475045
0.435498
0.420905
0.311312
0.261652
0.221855
0.172104
0.147421
0.0827375
-0.00244343
-0.0637783
-0.097172
-0.173462
-0.233009
-0.25586
-0.245905
-0.231267
-0.261539
-0.306357
-0.337081
-0.363824
-0.352104
-0.326267
-0.297511
-0.299706
-0.296674
-0.317873
-0.308461
-0.318891
-0.299344
-0.279887
-0.270452
-0.270814
-0.276086
-0.291358
-0.291697
-0.302081
-0.307308
-0.282534
-0.256787
-0.239774
-0.240905
-0.244661
-0.25543
-0.233258
-0.213959
-0.209005
-0.185045
-0.164389
-0.142941
-0.145679
-0.167624
-0.176154
-0.198394
-0.20914
-0.199389
-0.204796
-0.210701
-0.232081
-0.23371
-0.235566
-0.222579
-0.224955
-0.237602
-0.245633
-0.243733
-0.256855
-0.234819
-0.242851
-0.251041
-0.254525
-0.273326
-0.25733
-0.251516
-0.27052
-0.279434
-0.278213
-0.291946
-0.300566
-0.30405
-0.277376
-0.24534
-0.208032
-0.195272
-0.202217
-0.213733
-0.214955
-0.220928
-0.20672
-0.182172
-0.137308
-0.111991
-0.0863122
-0.0901811
-0.118869
-0.137443
-0.156041
-0.16457
-0.132919
-0.126018
-0.128756
-0.176222
-0.193416
-0.28543
-0.327488
-0.304638
-0.306991
-0.304298
-0.301538
-0.298755
-0.295905
-0.283099
-0.280611
-0.278303
-0.271674
-0.250294
-0.244095
-0.228122
-0.202217
-0.0615384
0.223801
0.688892
1.32371
2.04321
2.72747
3.18177
3.2562
3.22075
2.0202
1.0995
0.178643
-0.642353
-0.478145
-0.058778
0.155769
0.110362
-0.050045
-0.185565
-0.236108
-0.241696
-0.222194
-0.227511
-0.26276
-0.277895
-0.273076
-0.238325
-0.218597
-0.209004
-0.189434
-0.169841
-0.180135
-0.165316
-0.155316
-0.190294
-0.200407
-0.170565
-0.120769
-0.0760402
-0.0561987
-0.0463117
-0.0412666
-0.0362213
-0.0464249
-0.0317418
-0.0273753
-0.00318992
0.00597298
0.0350906
0.0592761
0.073507
0.122738
0.151923
0.215928
0.264706
0.308394
0.336946
0.35552
0.359299
0.413348
0.442443
0.496493
0.545566
0.579502
0.603665
0.598077
0.607557
0.607149
0.60681
0.586448
0.566109
0.530769
0.475633
0.430724
0.341063
0.276425
0.196742
0.131833
0.0869004
0.0520588
0.0171946
-0.0127151
-0.0628507
-0.0890951
-0.14215
-0.162919
-0.171946
-0.16914
-0.183778
-0.21457
-0.269955
-0.308643
-0.313371
-0.324163
-0.325882
-0.31457
-0.289186
-0.275588
-0.282511
-0.284457
-0.290611
-0.321244
-0.341697
-0.312172
-0.287738
-0.248394
-0.243959
-0.244435
-0.244819
-0.255091
-0.270249
-0.279864
-0.283326
-0.249729
-0.243303
-0.22862
-0.235815
-0.225928
-0.205724
-0.185815
-0.176448
-0.16138
-0.155543
-0.193394
-0.205498
-0.215724
-0.225159
-0.219955
-0.215656
-0.202082
-0.203846
-0.205656
-0.227511
-0.234502
-0.261901
-0.259615
-0.262602
-0.260611
-0.243688
-0.246855
-0.229932
-0.233054
-0.24638
-0.294864
-0.313484
-0.307376
-0.291222
-0.279751
-0.277986
-0.295656
-0.297964
-0.320023
-0.326832
-0.293371
-0.274683
-0.225543
-0.196041
-0.181109
-0.175837
-0.195203
-0.224344
-0.223348
-0.211923
-0.155271
-0.10319
-0.0908144
-0.06319
-0.0604071
-0.112624
-0.144909
-0.157036
-0.149005
-0.150543
-0.131765
-0.157738
-0.198597
-0.224525
-0.250475
-0.256538
-0.257647
-0.263824
-0.26
-0.271267
-0.282715
-0.294412
-0.281629
-0.274095
-0.231923
-0.22509
-0.248439
-0.226923
-0.19052
-0.094276
0.176629
0.602398
1.19799
1.88848
2.56907
3.08975
3.33559
3.2764
2.90697
2.02747
1.10785
0.188258
-0.57629
-0.415701
2.26498e-05
0.11086
0.116742
-0.0572851
-0.171471
-0.210928
-0.195475
-0.174796
-0.153937
-0.167805
-0.166584
-0.180317
-0.189163
-0.1881
-0.167104
-0.136109
-0.125158
-0.114005
-0.112896
-0.116765
-0.120792
-0.114864
-0.0840499
-0.0582807
-0.0275793
-0.0118554
-0.0160183
-0.0154073
-0.00988704
0.0305202
0.0658369
0.106086
0.131335
0.156651
0.161991
0.192285
0.217489
0.272647
0.32776
0.392783
0.432941
0.46819
0.49871
0.499276
0.529977
0.565747
0.616584
0.657398
0.68328
0.664344
0.625566
0.611765
0.533032
0.474095
0.430113
0.380973
0.326855
0.267896
0.184117
0.110611
0.0423075
-0.0209957
-0.0695705
-0.093937
-0.109638
-0.157172
-0.180317
-0.217466
-0.242308
-0.264616
-0.283485
-0.277783
-0.270883
-0.260634
-0.27129
-0.312761
-0.330227
-0.346629
-0.344797
-0.334503
-0.319774
-0.294774
-0.284186
-0.288168
-0.307037
-0.320883
-0.33491
-0.324118
-0.298439
-0.307715
-0.306878
-0.295837
-0.299706
-0.303711
-0.312715
-0.306607
-0.280181
-0.272647
-0.278236
-0.266154
-0.275928
-0.267557
-0.286856
-0.280091
-0.248779
-0.244299
-0.203869
-0.20758
-0.215566
-0.237127
-0.243032
-0.25224
-0.266064
-0.285
-0.254933
-0.225453
-0.226177
-0.247082
-0.263122
-0.284231
-0.300679
-0.312444
-0.28948
-0.28172
-0.283914
-0.296018
-0.293054
-0.310113
-0.302195
-0.304321
-0.291493
-0.288552
-0.260317
-0.246561
-0.232262
-0.227466
-0.24724
-0.231765
-0.221086
-0.205158
-0.193801
-0.172194
-0.165023
-0.162557
-0.164819
-0.151991
-0.14905
-0.140928
-0.152511
-0.123711
-0.149525
-0.160113
-0.195588
-0.200973
-0.20638
-0.216697
-0.236901
-0.271901
-0.296674
-0.321267
-0.33095
-0.305837
-0.310837
-0.276357
-0.262217
-0.24328
-0.249547
-0.245927
-0.262534
-0.26957
-0.281923
-0.264706
-0.197986
-0.0415609
0.224774
0.631109
0.777421
1.71871
2.36491
2.92104
3.29204
3.38799
3.06907
2.29534
1.37677
0.458213
-0.430542
-0.649434
-0.288506
0.00733078
0.103281
0.014367
-0.124208
-0.222737
-0.256289
-0.260045
-0.233936
-0.207918
-0.196719
-0.195339
-0.213959
-0.217601
-0.231244
-0.225022
-0.203846
-0.192782
-0.166674
-0.140384
-0.129027
-0.122692
-0.126312
-0.140113
-0.134072
-0.123303
-0.082737
-0.0470582
-0.0313796
-0.035565
-0.00977337
0.0159733
0.0316522
0.0722631
0.0977832
0.128213
0.17353
0.188982
0.194661
0.250453
0.301177
0.336901
0.397444
0.468009
0.513665
0.549548
0.540702
0.541991
0.558281
0.574706
0.590973
0.602195
0.608371
0.579616
0.521041
0.437579
0.344254
0.26595
0.187579
0.129027
0.0854527
0.0367422
-0.0174886
-0.0376697
-0.124321
-0.167964
-0.208959
-0.232398
-0.237873
-0.264389
-0.285045
-0.322964
-0.346629
-0.356267
-0.342262
-0.328009
-0.320136
-0.308733
-0.297737
-0.292059
-0.301086
-0.314932
-0.313801
-0.307896
-0.297036
-0.261267
-0.245384
-0.244366
-0.24819
-0.276945
-0.285814
-0.274954
-0.27923
-0.253574
-0.207805
-0.19181
-0.19509
-0.207172
-0.242579
-0.252353
-0.252964
-0.240746
-0.20604
-0.184705
-0.177941
-0.182647
-0.185973
-0.188552
-0.180429
-0.171448
-0.153574
-0.134072
-0.148303
-0.162262
-0.21181
-0.212126
-0.213122
-0.189389
-0.175769
-0.172081
-0.203258
-0.219525
-0.23095
-0.22767
-0.219615
-0.196742
-0.193959
-0.181018
-0.187964
-0.204548
-0.215928
-0.222059
-0.228055
-0.209073
-0.180001
-0.155679
-0.120996
-0.130838
-0.140272
-0.139367
-0.143439
-0.142331
-0.146041
-0.134525
-0.122693
-0.115657
-0.108439
-0.106041
-0.123711
-0.146335
-0.148598
-0.160566
-0.137285
-0.153711
-0.179752
-0.200611
-0.246358
-0.272218
-0.278122
-0.299028
-0.274887
-0.250634
-0.236313
-0.231901
-0.262647
-0.253688
-0.265249
-0.252331
-0.229751
-0.207534
-0.185566
-0.143847
-0.0122856
0.209004
0.555113
1.00081
1.52131
2.0567
2.51704
2.74749
2.56285
1.94308
1.0281
0.108099
-0.711923
-0.806855
-0.511652
-0.19638
-0.120996
-0.0755206
-0.180091
-0.249774
-0.27457
-0.239435
-0.209299
-0.19905
-0.193598
-0.2131
-0.232625
-0.257172
-0.231946
-0.191742
-0.171471
-0.171222
-0.18077
-0.165113
-0.169457
-0.168937
-0.133575
-0.128462
-0.108281
-0.0880997
-0.0829867
-0.0729415
-0.0731452
-0.0685072
-0.0440274
-0.0246611
0.00466037
0.0290495
0.0534614
0.0529411
0.0674206
0.101697
0.140701
0.169412
0.218032
0.241719
0.260566
0.269683
0.263937
0.29319
0.327308
0.371403
0.415475
0.43957
0.46396
0.44862
0.433643
0.378711
0.35871
0.313416
0.287941
0.287376
0.251946
0.201652
0.131516
0.066561
0.011561
-0.0486425
-0.059095
-0.0749547
-0.0912895
-0.127805
-0.160498
-0.184163
-0.199027
-0.200407
-0.178507
-0.19319
-0.228688
-0.253167
-0.279774
-0.287172
-0.301425
-0.294842
-0.284253
-0.270271
-0.262217
-0.249389
-0.246334
-0.25785
-0.264095
-0.280294
-0.276628
-0.273257
-0.244864
-0.226493
-0.233054
-0.234411
-0.240679
-0.231923
-0.248122
-0.243801
-0.223529
-0.216764
-0.208031
-0.211923
-0.208484
-0.217986
-0.201493
-0.170905
-0.148348
-0.159886
-0.165611
-0.179954
-0.204728
-0.218235
-0.235407
-0.247421
-0.234389
-0.222014
-0.214977
-0.203054
-0.200995
-0.218914
-0.232036
-0.230384
-0.229027
-0.232896
-0.217013
-0.226108
-0.235022
-0.238936
-0.262941
-0.267172
-0.256402
-0.235678
-0.220158
-0.209547
-0.243936
-0.25819
-0.24724
-0.216108
-0.159955
-0.13862
-0.127013
-0.120023
-0.122828
-0.135181
-0.132149
-0.128823
-0.11043
-0.0818776
-0.037986
-0.0237327
-0.0041852
-0.0193208
-0.0292983
-0.074208
-0.0991174
-0.129049
-0.113846
-0.118461
-0.107828
-0.101945
-0.140972
-0.194864
-0.258823
-0.272941
-0.27233
-0.216878
-0.181696
-0.166606
-0.176244
-0.175927
-0.185859
-0.191289
-0.192126
-0.158325
-0.104774
-0.0211989
0.0823307
0.115792
0.384118
0.607308
0.875317
1.21312
1.59097
1.91891
2.07188
1.83977
1.18762
0.27534
-0.441946
-0.659299
-0.466719
-0.164072
0.00864255
0.0465158
-0.0305656
-0.107624
-0.149729
-0.15181
-0.124027
-0.0962219
-0.0983713
-0.110385
-0.117217
-0.144027
-0.14586
-0.132851
-0.104887
-0.0920136
-0.0841177
-0.0710634
-0.0628734
-0.0696607
-0.0515385
-0.048439
-0.0405432
-0.0276923
0.0202714
0.0083257
0.0114253
-0.0105656
-0.012602
0.000248671
0.0179636
0.0555427
0.088054
0.125543
0.128054
0.12552
0.127986
0.150317
0.202534
0.254683
0.296832
0.323982
0.351063
0.36819
0.365181
0.382081
0.399004
0.43586
0.447783
0.449796
0.4919
0.504208
0.506651
0.494049
0.466448
0.428982
0.431674
0.38966
0.332918
0.27138
0.245067
0.1738
0.11233
0.0707461
0.0541399
0.0327371
-0.0085299
-0.049548
-0.0854983
-0.106358
-0.117331
-0.11344
-0.105159
-0.107625
-0.111335
-0.120385
-0.137399
-0.156516
-0.162942
-0.18163
-0.196878
-0.192376
-0.200725
-0.19491
-0.184684
-0.190453
-0.250023
-0.276064
-0.273666
-0.237105
-0.21534
-0.193055
-0.200136
-0.216629
-0.22267
-0.223349
-0.229028
-0.22853
-0.207014
-0.169231
-0.169933
-0.153869
-0.156335
-0.158077
-0.155996
-0.141901
-0.147082
-0.150521
-0.135
-0.143598
-0.145815
-0.172218
-0.168598
-0.170408
-0.172602
-0.185068
-0.17267
-0.175136
-0.182512
-0.184978
-0.207602
-0.22043
-0.218485
-0.191652
-0.174888
-0.173032
-0.176268
-0.194412
-0.222535
-0.225838
-0.219412
-0.223145
-0.202082
-0.191087
-0.200159
-0.20905
-0.23801
-0.227037
-0.231222
-0.230521
-0.214639
-0.203485
-0.201946
-0.185023
-0.177648
-0.159978
-0.147014
-0.113847
-0.105272
-0.101267
-0.0969236
-0.0920593
-0.0768783
-0.0664485
-0.0408829
-0.0253173
-0.0296385
-0.0338239
-0.0477831
-0.051584
-0.0451813
-0.0685295
-0.0818102
-0.100136
-0.108575
-0.12215
-0.120905
-0.124593
-0.158371
-0.187353
-0.226652
-0.236154
-0.201041
-0.171244
-0.161629
-0.187127
-0.187489
-0.198009
-0.198688
-0.199661
-0.190792
-0.172036
-0.0833032
0.0555429
0.299457
0.388439
1.03742
1.51136
2.02511
2.48382
2.77251
2.76124
2.27018
1.34923
0.428507
-0.422127
-0.672873
-0.359004
-0.0151808
0.158597
0.107534
-0.00825781
-0.113914
-0.189706
-0.205679
-0.181651
-0.14767
-0.138801
-0.139932
-0.150837
-0.146425
-0.15681
-0.152059
-0.157443
-0.128077
-0.118846
-0.0846153
-0.0802941
-0.065905
-0.0664027
-0.0669231
-0.0725566
-0.038371
-0.0192534
-0.010181
0.00891393
0.038009
0.0371041
0.0460407
0.0648189
0.0885746
0.127172
0.150656
0.174253
0.202964
0.211697
0.245339
0.233914
0.242489
0.290905
0.344321
0.397805
0.446358
0.470136
0.499118
0.508348
0.512715
0.532127
0.546652
0.571177
0.545747
0.505475
0.460294
0.410136
0.349978
0.289774
0.224661
0.184661
0.119932
0.0803394
0.0608598
-0.00852937
-0.0480995
-0.0729638
-0.0834615
-0.0849094
-0.0927827
-0.107783
-0.12509
-0.155023
-0.20724
-0.230882
-0.244547
-0.240679
-0.232737
-0.233552
-0.227557
-0.235475
-0.254864
-0.26586
-0.257579
-0.239276
-0.225453
-0.215973
-0.216177
-0.206403
-0.256833
-0.262285
-0.267873
-0.238462
-0.223982
-0.209412
-0.199683
-0.214502
-0.228778
-0.242059
-0.245181
-0.240385
-0.203439
-0.179163
-0.167805
-0.165091
-0.177398
-0.187014
-0.215882
-0.21914
-0.201425
-0.179977
-0.197082
-0.182579
-0.177376
-0.212398
-0.2181
-0.194457
-0.171471
-0.178597
-0.170633
-0.152466
-0.154321
-0.186402
-0.223823
-0.276516
-0.299457
-0.282466
-0.240565
-0.218574
-0.211651
-0.239774
-0.257896
-0.266018
-0.269231
-0.247488
-0.235769
-0.218688
-0.211357
-0.218642
-0.230588
-0.217104
-0.183326
-0.154321
-0.15009
-0.13543
-0.120384
-0.139977
-0.134321
-0.118348
-0.092217
-0.075769
-0.0892532
-0.0776921
-0.0759274
-0.0789138
-0.0916513
-0.11414
-0.141493
-0.198642
-0.230701
-0.262692
-0.26957
-0.266425
-0.268099
-0.279932
-0.281968
-0.279321
-0.257036
-0.235068
-0.233325
-0.241606
-0.265068
-0.283846
-0.302805
-0.3169
-0.27138
-0.191154
-0.0410178
0.194073
0.524299
0.989548
1.49477
2.05995
2.56002
2.87989
2.85973
2.28459
1.36457
1.07971
-0.440136
-0.679887
-0.359728
-0.0397057
0.0903848
0.0454978
-0.0792986
-0.188982
-0.228552
-0.213122
-0.19267
-0.187534
-0.167511
-0.167489
-0.182308
-0.192036
-0.206607
-0.216018
-0.19543
-0.169955
-0.114638
-0.109276
-0.108869
-0.108235
-0.107512
-0.116765
-0.121154
-0.100679
-0.0803847
-0.0302716
0.00981891
0.0400225
0.0352261
0.0252035
0.0451356
0.0449772
0.0795927
0.119208
0.188959
0.198823
0.203643
0.193461
0.208258
0.257986
0.322534
0.386968
0.431244
0.45052
0.464977
0.474661
0.499593
0.544615
0.54966
0.564728
0.584955
0.595407
0.59604
0.551855
0.517851
0.443801
0.389706
0.325565
0.261425
0.222443
0.19362
0.124887
0.0812669
0.0277148
-0.000950277
-0.0396833
-0.0635294
-0.0976018
-0.12233
-0.123326
-0.121222
-0.126335
-0.133982
-0.149299
-0.166946
-0.196109
-0.220679
-0.243575
-0.257919
-0.253122
-0.269163
-0.256742
-0.250045
-0.225091
-0.196176
-0.18733
-0.197692
-0.257466
-0.257036
-0.25172
-0.251561
-0.241471
-0.22638
-0.201041
-0.205272
-0.203824
-0.23129
-0.237353
-0.236448
-0.228326
-0.212647
-0.194729
-0.185362
-0.176109
-0.174457
-0.186946
-0.180792
-0.196606
-0.188597
-0.179118
-0.20319
-0.196697
-0.195407
-0.204751
-0.219774
-0.220091
-0.215453
-0.195769
-0.176086
-0.181448
-0.186901
-0.192444
-0.213258
-0.239299
-0.255611
-0.246923
-0.228281
-0.244502
-0.25586
-0.277398
-0.284095
-0.291041
-0.273326
-0.270905
-0.253439
-0.250859
-0.253009
-0.260068
-0.237013
-0.20405
-0.181154
-0.158145
-0.145023
-0.151516
-0.157511
-0.157918
-0.152918
-0.142556
-0.116946
-0.101063
-0.0897058
-0.0977374
-0.110249
-0.12733
-0.14414
-0.145814
-0.172375
-0.178733
-0.204887
-0.220882
-0.256787
-0.302489
-0.313032
-0.333597
-0.349298
-0.325158
-0.316448
-0.313145
-0.295113
-0.292353
-0.294706
-0.307126
-0.314887
-0.312941
-0.306289
-0.284841
-0.243597
-0.167398
-0.00631183
0.259729
0.690747
1.1817
1.73758
2.31342
2.80428
3.11016
3.14109
2.73704
1.91801
0.993892
0.0747967
-0.694411
-0.548597
-0.167737
0.0633035
0.099593
-0.0540043
-0.182692
-0.236674
-0.235746
-0.219887
-0.224004
-0.237986
-0.246787
-0.260384
-0.259004
-0.262647
-0.241516
-0.210452
-0.194298
-0.193077
-0.18681
-0.185498
-0.179231
-0.178032
-0.1819
-0.16586
-0.144932
-0.123982
-0.127873
-0.126606
-0.120362
-0.119163
-0.103032
-0.0620588
-0.0363348
-0.0106787
-2.25902e-05
0.00574654
0.0365838
0.0574207
0.0631673
0.113823
0.149253
0.19957
0.219796
0.255023
0.280317
0.315475
0.355452
0.390339
0.445317
0.510339
0.570588
0.580928
0.576493
0.567195
0.587964
0.59371
0.609615
0.615837
0.61233
0.589095
0.540995
0.472986
0.415
0.336991
0.263891
0.200746
0.157647
0.10457
0.0366514
-0.0112672
-0.0591857
-0.0974436
-0.11138
-0.126493
-0.148824
-0.153846
-0.191991
-0.208168
-0.246878
-0.286833
-0.296222
-0.323054
-0.330815
-0.314299
-0.278597
-0.280475
-0.283801
-0.298892
-0.314797
-0.31043
-0.290453
-0.279887
-0.26414
-0.258055
-0.271788
-0.280226
-0.292919
-0.28448
-0.25914
-0.236652
-0.216697
-0.214118
-0.209299
-0.2181
-0.216765
-0.217308
-0.191674
-0.180294
-0.168122
-0.164435
-0.170091
-0.184027
-0.207036
-0.219955
-0.208688
-0.203168
-0.182987
-0.162851
-0.167647
-0.187512
-0.212466
-0.23258
-0.232964
-0.228575
-0.209548
-0.205566
-0.231584
-0.247715
-0.254005
-0.26043
-0.257059
-0.248869
-0.245837
-0.248009
-0.225159
-0.24733
-0.274435
-0.301606
-0.323801
-0.311063
-0.298326
-0.275339
-0.237127
-0.223326
-0.219072
-0.224457
-0.219525
-0.224208
-0.208643
-0.192805
-0.161403
-0.159593
-0.152195
-0.139525
-0.131471
-0.113167
-0.0797512
-0.076086
-0.0972173
-0.108009
-0.133439
-0.143507
-0.168439
-0.188349
-0.198326
-0.193326
-0.198235
-0.228077
-0.257851
-0.287647
-0.297534
-0.317647
-0.323145
-0.313959
-0.285226
-0.261788
-0.24362
-0.230543
-0.252692
-0.260136
-0.272851
-0.215905
-0.0842309
0.172375
0.633982
1.22061
1.88235
2.534
3.05563
3.2821
3.14342
2.55475
1.63602
0.712376
-0.206199
-0.739525
-0.402873
-0.0112445
0.165317
0.0918097
-0.0516065
-0.179887
-0.213054
-0.266109
-0.264095
-0.252172
-0.255362
-0.238665
-0.226946
-0.210045
-0.198077
-0.200995
-0.203959
-0.201991
-0.200158
-0.188439
-0.161742
-0.145
-0.133258
-0.131425
-0.12957
-0.12776
-0.101109
-0.0846608
-0.058439
-0.022172
-0.000882387
0.0105202
0.0120136
0.0235294
0.029932
0.0561537
0.102149
0.153009
0.228801
0.259683
0.290633
0.331538
0.367489
0.403462
0.449457
0.49552
0.531606
0.572828
0.58414
0.610769
0.617511
0.629366
0.636154
0.657783
0.659502
0.621267
0.613077
0.51009
0.437149
0.369163
0.306131
0.253054
0.219932
0.166832
0.0935745
0.0397736
-0.0405204
-0.0830996
-0.138733
-0.177692
-0.17957
-0.207127
-0.230701
-0.261788
-0.283846
-0.306855
-0.325769
-0.331607
-0.323394
-0.297104
-0.311697
-0.311064
-0.319955
-0.318507
-0.322082
-0.320724
-0.304638
-0.293643
-0.272624
-0.281471
-0.285226
-0.308982
-0.31276
-0.316652
-0.305701
-0.279819
-0.258733
-0.257036
-0.269231
-0.289412
-0.307081
-0.306878
-0.293801
-0.268439
-0.242082
-0.226358
-0.213416
-0.224706
-0.215226
-0.23509
-0.237534
-0.238688
-0.238167
-0.236946
-0.251176
-0.261131
-0.27681
-0.287828
-0.299366
-0.296154
-0.283099
-0.275136
-0.27733
-0.299547
-0.301719
-0.318891
-0.321222
-0.318642
-0.316244
-0.308846
-0.321222
-0.318326
-0.31509
-0.326584
-0.327851
-0.323846
-0.304728
-0.285226
-0.250317
-0.249932
-0.249095
-0.252896
-0.251493
-0.26009
-0.253642
-0.237195
-0.205588
-0.17371
-0.151493
-0.148891
-0.156086
-0.168077
-0.190022
-0.196832
-0.203461
-0.209887
-0.201018
-0.222013
-0.237918
-0.278914
-0.319909
-0.365995
-0.372013
-0.352986
-0.353823
-0.34457
-0.325452
-0.326357
-0.317828
-0.299796
-0.292194
-0.274909
-0.26776
-0.255724
-0.203801
-0.0521945
0.279073
0.789842
1.47552
2.21591
2.87629
3.05679
3.28226
2.70767
1.80301
0.878258
-0.0416965
-0.751674
-0.566674
-0.156583
0.0387334
-0.0209727
-0.160814
-0.270837
-0.300973
-0.301131
-0.266335
-0.256244
-0.256018
-0.260588
-0.260249
-0.244978
-0.229864
-0.229842
-0.20491
-0.20491
-0.194751
-0.199457
-0.189118
-0.173937
-0.143982
-0.119208
-0.10448
-0.0897285
-0.0848416
-0.085
-0.0602715
-0.045724
-0.036448
0.00273776
0.0368553
0.0859276
0.105158
0.124457
0.14862
0.162579
0.191357
0.22991
0.288371
0.341923
0.385543
0.399321
0.448281
0.462285
0.466222
0.475068
0.503846
0.51776
0.5569
0.556289
0.515882
0.480497
0.420136
0.369774
0.319253
0.258778
0.233348
0.173054
0.0978053
0.0176693
-0.0475342
-0.107715
-0.142919
-0.143168
-0.143575
-0.139344
-0.150973
-0.169073
-0.199231
-0.216855
-0.242172
-0.270045
-0.255
-0.266199
-0.287308
-0.300837
-0.330249
-0.330476
-0.311629
-0.280136
-0.255498
-0.231652
-0.23939
-0.24681
-0.258349
-0.27948
-0.290543
-0.296607
-0.277806
-0.24396
-0.219955
-0.215928
-0.241833
-0.252783
-0.283756
-0.289503
-0.269661
-0.238439
-0.254955
-0.233326
-0.253281
-0.255204
-0.251381
-0.231675
-0.224684
-0.211856
-0.183236
-0.198869
-0.207738
-0.225815
-0.252082
-0.262557
-0.233507
-0.205317
-0.182738
-0.18534
-0.178032
-0.230611
-0.253371
-0.281335
-0.27457
-0.268055
-0.261629
-0.250317
-0.239141
-0.248009
-0.261991
-0.276109
-0.29043
-0.274819
-0.254231
-0.243552
-0.247625
-0.256516
-0.280227
-0.263869
-0.242489
-0.205724
-0.16853
-0.145928
-0.152602
-0.143779
-0.179502
-0.194842
-0.165
-0.13491
-0.104706
-0.0692312
-0.0584844
-0.0873307
-0.0957923
-0.11396
-0.142014
-0.149887
-0.152693
-0.130453
-0.12819
-0.155747
-0.198281
-0.245611
-0.277919
-0.290385
-0.288055
-0.281132
-0.254435
-0.262919
-0.266584
-0.275385
-0.26448
-0.254005
-0.238959
-0.244186
-0.244706
-0.23534
-0.210905
-0.126426
0.0780993
0.432534
0.916855
1.48097
2.07502
2.629
3.07305
3.32233
3.29163
2.71097
1.79023
0.869321
-0.0565838
-0.66233
-0.297873
-0.168258
0.131493
0.0512218
-0.129095
-0.224434
-0.234864
-0.220317
-0.195769
-0.201086
-0.221176
-0.221131
-0.221063
-0.206199
-0.191493
-0.191991
-0.172488
-0.147805
-0.137941
-0.148077
-0.16319
-0.173461
-0.158801
-0.129276
-0.104773
-0.0902711
-0.0857463
-0.0661083
-0.061674
-0.0524206
-0.0433935
-0.0245473
0.0193214
0.068507
0.0928734
0.102331
0.121652
0.13086
0.179683
0.223258
0.27672
0.330249
0.364027
0.402941
0.431991
0.466063
0.490068
0.529118
0.56819
0.592466
0.612036
0.621968
0.592127
0.567308
0.542443
0.532398
0.527353
0.467421
0.387625
0.308009
0.188575
0.114253
0.0650452
0.000610828
-0.0190271
-0.0487556
-0.0584615
-0.0892535
-0.111426
-0.145815
-0.1831
-0.213462
-0.236697
-0.242195
-0.258575
-0.27957
-0.28819
-0.307987
-0.303756
-0.310543
-0.313869
-0.31819
-0.309299
-0.28129
-0.283258
-0.294435
-0.314955
-0.310181
-0.305498
-0.285882
-0.271358
-0.27681
-0.272217
-0.282534
-0.297738
-0.307851
-0.312625
-0.301539
-0.288959
-0.264231
-0.251991
-0.242082
-0.259638
-0.265159
-0.249683
-0.249435
-0.216855
-0.193552
-0.184389
-0.199412
-0.217217
-0.228484
-0.234299
-0.233892
-0.22896
-0.235045
-0.236629
-0.243462
-0.250317
-0.262082
-0.279005
-0.286177
-0.28862
-0.271358
-0.249254
-0.237217
-0.24534
-0.268416
-0.281584
-0.304842
-0.298439
-0.297217
-0.301063
-0.284819
-0.278394
-0.28672
-0.289819
-0.292715
-0.265271
-0.232647
-0.199683
-0.186584
-0.20267
-0.24319
-0.253167
-0.247828
-0.21733
-0.181629
-0.145814
-0.109706
-0.108303
-0.111516
-0.154389
-0.172081
-0.184593
-0.171946
-0.159185
-0.176244
-0.188122
-0.239773
-0.281289
-0.332669
-0.363982
-0.365543
-0.357353
-0.334344
-0.31138
-0.30828
-0.295384
-0.292941
-0.305882
-0.334412
-0.348303
-0.332466
-0.301945
-0.251448
-0.226108
0.0442536
0.384525
0.884683
1.49471
2.16453
2.77921
3.24885
3.43362
3.34344
2.83826
1.99312
1.07303
0.147987
-0.667149
-0.482307
-0.102466
0.0925117
0.09267
-0.0572169
-0.21224
-0.282353
-0.272511
-0.247534
-0.217398
-0.207104
-0.22181
-0.24147
-0.256131
-0.250927
-0.240837
-0.22595
-0.20095
-0.190792
-0.180452
-0.175022
-0.179593
-0.184366
-0.154321
-0.134253
-0.124276
-0.0992986
-0.104389
-0.104502
-0.0947286
-0.0699772
-0.0403391
-0.0108143
0.013688
0.0581902
0.0727376
0.117195
0.136516
0.140679
0.169796
0.203801
0.262805
0.326923
0.37629
0.40586
0.440588
0.450385
0.495204
0.52509
0.589977
0.614977
0.620203
0.615543
0.605995
0.57647
0.541878
0.502172
0.447398
0.412783
0.348393
0.329231
0.170158
0.091018
0.0215834
-0.0231903
-0.0485749
-0.0747514
-0.0923306
-0.111946
-0.139208
-0.179684
-0.213077
-0.233417
-0.24896
-0.267308
-0.269525
-0.289638
-0.290679
-0.298462
-0.302217
-0.312828
-0.319525
-0.29629
-0.267421
-0.252964
-0.253145
-0.288213
-0.303326
-0.283462
-0.278597
-0.26871
-0.263801
-0.253982
-0.249163
-0.264231
-0.259118
-0.273982
-0.28276
-0.275045
-0.270136
-0.247489
-0.22681
-0.213326
-0.217692
-0.21129
-0.200475
-0.192081
-0.202557
-0.197262
-0.181154
-0.183846
-0.190724
-0.210837
-0.220226
-0.209797
-0.190271
-0.191652
-0.178507
-0.205384
-0.222285
-0.244253
-0.251357
-0.258755
-0.271425
-0.259366
-0.247353
-0.210475
-0.228574
-0.256583
-0.279547
-0.297488
-0.300497
-0.28862
-0.271719
-0.279502
-0.276991
-0.259163
-0.230837
-0.222262
-0.213416
-0.224366
-0.210045
-0.190339
-0.185158
-0.179592
-0.193597
-0.172307
-0.145701
-0.113936
-0.112149
-0.100181
-0.103031
-0.12552
-0.157669
-0.174524
-0.191176
-0.207714
-0.229253
-0.250588
-0.266719
-0.277511
-0.318167
-0.338801
-0.339479
-0.330317
-0.316334
-0.287579
-0.269027
-0.270701
-0.28242
-0.294434
-0.296493
-0.294343
-0.267715
-0.201403
-0.0602714
0.145883
0.492036
0.978168
1.59928
2.31025
2.95097
3.33652
3.36199
2.86251
2.62315
1.06396
0.144774
-0.58948
-0.428823
-0.06319
0.122444
0.103145
-0.0409501
-0.164909
-0.223846
-0.227783
-0.216923
-0.201154
-0.200339
-0.21948
-0.253461
-0.247285
-0.230973
-0.224638
-0.213529
-0.192511
-0.161651
-0.150769
-0.134683
-0.128461
-0.127149
-0.130769
-0.134434
-0.11819
-0.0771719
-0.0462896
-0.0355657
-0.0199548
-0.0193893
0.0062896
0.0120587
0.00273752
0.0382577
0.0786424
0.12905
0.17448
0.209864
0.225204
0.255362
0.30043
0.340498
0.390543
0.430611
0.475724
0.490928
0.531222
0.541787
0.547353
0.547919
0.553484
0.57414
0.594909
0.585769
0.546719
0.502602
0.443529
0.359502
0.300543
0.241584
0.207647
0.173733
0.119932
0.0461991
-0.0126019
-0.061923
-0.112217
-0.138914
-0.157534
-0.163462
-0.182172
-0.198597
-0.232217
-0.256787
-0.28543
-0.310679
-0.306833
-0.298914
-0.296946
-0.308959
-0.317602
-0.322783
-0.323779
-0.319751
-0.295362
-0.285792
-0.270792
-0.265656
-0.270521
-0.29543
-0.295521
-0.305679
-0.290905
-0.256154
-0.256267
-0.261131
-0.290385
-0.313778
-0.320656
-0.32543
-0.307511
-0.271425
-0.237534
-0.211878
-0.206154
-0.222692
-0.240453
-0.25034
-0.234503
-0.227127
-0.22905
-0.239344
-0.258801
-0.278462
-0.278869
-0.270091
-0.27181
-0.263756
-0.260769
-0.252828
-0.260045
-0.287579
-0.32043
-0.343484
-0.346629
-0.314955
-0.293439
-0.276878
-0.295227
-0.33853
-0.371742
-0.37991
-0.388213
-0.381584
-0.38491
-0.3481
-0.325611
-0.297647
-0.294322
-0.285657
-0.296788
-0.317602
-0.303258
-0.288733
-0.268801
-0.263484
-0.247738
-0.236629
-0.210249
-0.193779
-0.187285
-0.205679
-0.203779
-0.211561
-0.229073
-0.231312
-0.233484
-0.250566
-0.26267
-0.284819
-0.301991
-0.334095
-0.356109
-0.358009
-0.355
-0.34224
-0.344751
-0.332602
-0.315747
-0.304186
-0.297828
-0.311697
-0.320747
-0.315113
-0.294887
-0.174955
0.0247059
0.354185
0.803643
1.3431
1.95767
2.56729
3.04681
3.23115
2.99038
2.2195
1.29369
0.372986
-0.547511
-0.798009
-0.458733
-0.134548
-0.000407338
-0.0311767
-0.116833
-0.152421
-0.237919
-0.243416
-0.228914
-0.22448
-0.200181
-0.200905
-0.191652
-0.18724
-0.192579
-0.182828
-0.178077
-0.16353
-0.154231
-0.135045
-0.110928
-0.101606
-0.0821266
-0.0874885
-0.0778054
-0.0783257
-0.0491855
-0.0354751
-0.0119003
0.0167648
0.0205883
0.0244118
0.0232127
0.0469004
0.0653166
0.118529
0.166742
0.209887
0.233122
0.256448
0.289955
0.338394
0.371719
0.419864
0.452941
0.496063
0.53957
0.548371
0.557398
0.556584
0.550747
0.544751
0.573575
0.58233
0.566063
0.549864
0.438914
0.363145
0.292534
0.231855
0.186222
0.140452
0.109525
0.0583483
0.00156093
-0.0464255
-0.0964482
-0.139027
-0.174412
-0.192602
-0.181584
-0.178145
-0.219367
-0.252738
-0.281968
-0.302127
-0.303145
-0.281833
-0.26733
-0.25457
-0.252262
-0.264615
-0.266403
-0.272783
-0.264163
-0.250656
-0.23733
-0.224005
-0.24552
-0.241855
-0.258054
-0.244163
-0.240407
-0.226923
-0.213507
-0.210023
-0.201018
-0.211109
-0.229729
-0.241245
-0.26034
-0.271787
-0.245656
-0.212444
-0.183416
-0.160498
-0.180995
-0.190769
-0.224842
-0.228281
-0.198032
-0.191358
-0.188122
-0.209299
-0.230702
-0.22267
-0.235023
-0.223054
-0.221245
-0.214616
-0.213032
-0.211584
-0.220227
-0.243982
-0.267828
-0.291855
-0.300973
-0.290294
-0.264683
-0.254073
-0.253281
-0.292195
-0.305905
-0.324344
-0.32776
-0.295882
-0.253733
-0.191109
-0.1781
-0.184683
-0.21086
-0.211765
-0.217443
-0.212986
-0.173326
-0.128507
-0.118213
-0.102602
-0.111674
-0.125588
-0.154457
-0.143167
-0.141652
-0.12991
-0.132919
-0.140724
-0.188303
-0.225611
-0.252941
-0.300294
-0.332692
-0.325204
-0.287692
-0.275023
-0.257262
-0.269615
-0.282059
-0.295045
-0.298416
-0.277149
-0.276176
-0.255407
-0.239796
-0.169298
-0.0190723
0.265905
0.720634
1.30018
1.92964
2.57405
2.76355
3.33817
3.24285
2.61238
1.68676
0.766086
-0.154728
-0.67552
-0.296176
0.0733938
0.148077
0.0527828
-0.107647
-0.223054
-0.228552
-0.204027
-0.154344
-0.15957
-0.184706
-0.209887
-0.230068
-0.245272
-0.23043
-0.180611
-0.160724
-0.155724
-0.150633
-0.150498
-0.145475
-0.160611
-0.155882
-0.126335
-0.0868101
-0.0671945
-0.0624887
-0.0577601
-0.0731676
-0.0538688
-0.0246381
0.0194117
0.0584614
0.0826696
0.0618551
0.0660632
0.0850226
0.123801
0.172602
0.236357
0.265294
0.319299
0.333326
0.387489
0.406742
0.440973
0.465113
0.499366
0.528643
0.578054
0.607715
0.617624
0.597669
0.557851
0.522805
0.482511
0.472059
0.416538
0.356312
0.281425
0.211923
0.147556
0.0881671
0.0334839
-0.0114934
-0.0421496
-0.0637786
-0.0820591
-0.137512
-0.165498
-0.201199
-0.224503
-0.22457
-0.240385
-0.254932
-0.281267
-0.293394
-0.30638
-0.310475
-0.323869
-0.309005
-0.295475
-0.287421
-0.26905
-0.279955
-0.285317
-0.295498
-0.285679
-0.280996
-0.271358
-0.261742
-0.252059
-0.247172
-0.247331
-0.257444
-0.262534
-0.252376
-0.251697
-0.239751
-0.240702
-0.24905
-0.254525
-0.267036
-0.253733
-0.232941
-0.207692
-0.185385
-0.18233
-0.163484
-0.168778
-0.181471
-0.217511
-0.227059
-0.226245
-0.205905
-0.211516
-0.197738
-0.194118
-0.215521
-0.221788
-0.228168
-0.239864
-0.236923
-0.249276
-0.246855
-0.239435
-0.241878
-0.254435
-0.272195
-0.275091
-0.263145
-0.251244
-0.239389
-0.227602
-0.245702
-0.253552
-0.256245
-0.248824
-0.211313
-0.178666
-0.180747
-0.177376
-0.178371
-0.178847
-0.16396
-0.163914
-0.128575
-0.107964
-0.101991
-0.100588
-0.123552
-0.131199
-0.123552
-0.145837
-0.157873
-0.15491
-0.15181
-0.193597
-0.215091
-0.246335
-0.282263
-0.303032
-0.313733
-0.334661
-0.315815
-0.267172
-0.243733
-0.225339
-0.252104
-0.279163
-0.296493
-0.309253
-0.307353
-0.265792
-0.199366
-0.0530769
0.16819
0.574321
1.10034
1.67104
2.28661
2.85192
3.22717
3.36256
3.09308
2.38373
1.46439
0.545023
-0.324457
-0.529027
-0.183756
0.0816064
0.137104
0.0328056
-0.12138
-0.205498
-0.234751
-0.21914
-0.203552
-0.207851
-0.216991
-0.236131
-0.260203
-0.249208
-0.238235
-0.227285
-0.211425
-0.175565
-0.16966
-0.178688
-0.172715
-0.176696
-0.185746
-0.174977
-0.149411
-0.123891
-0.103303
-0.0876693
-0.0770585
-0.081425
-0.0708821
-0.0553844
-0.0151581
-0.0199997
-0.00993198
0.0401586
0.060249
0.0903394
0.12034
0.140181
0.159978
0.204683
0.259321
0.304231
0.339276
0.354457
0.374615
0.419751
0.469842
0.504955
0.540249
0.555701
0.551493
0.572511
0.578643
0.564615
0.550634
0.531539
0.517444
0.473416
0.434502
0.365634
0.271878
0.198235
0.144525
0.0906109
0.0310634
-0.00857472
-0.0505883
-0.099887
-0.181991
-0.232262
-0.255294
-0.269932
-0.284593
-0.276742
-0.279864
-0.283801
-0.313778
-0.335611
-0.353846
-0.358869
-0.364774
-0.335769
-0.326425
-0.316516
-0.311041
-0.310407
-0.329728
-0.324253
-0.338937
-0.313756
-0.303665
-0.288507
-0.313213
-0.327647
-0.351425
-0.339253
-0.325294
-0.298982
-0.280226
-0.23871
-0.21966
-0.218959
-0.232692
-0.24767
-0.250995
-0.243597
-0.225475
-0.211357
-0.193213
-0.198575
-0.212783
-0.24681
-0.251471
-0.276946
-0.252964
-0.234208
-0.220565
-0.241968
-0.268552
-0.260294
-0.267285
-0.279638
-0.277127
-0.284796
-0.272556
-0.265362
-0.278122
-0.285928
-0.293914
-0.321946
-0.325068
-0.313213
-0.271244
-0.259117
-0.266719
-0.269027
-0.27095
-0.262647
-0.249208
-0.25052
-0.226697
-0.222172
-0.202375
-0.187194
-0.191493
-0.175565
-0.149412
-0.133122
-0.126697
-0.110158
-0.103371
-0.156312
-0.193959
-0.216448
-0.198869
-0.191154
-0.188258
-0.205068
-0.241765
-0.258258
-0.314728
-0.346154
-0.352624
-0.329208
-0.34095
-0.312805
-0.299728
-0.271606
-0.25862
-0.26586
-0.283461
-0.306561
-0.290022
-0.228688
-0.0876244
-0.0318778
0.513733
1.02419
1.64448
2.31941
2.91912
3.27869
3.25821
2.68783
1.79765
0.872557
-0.0475565
-0.767851
-0.493303
-0.138869
0.0305656
0.0350224
-0.0653394
-0.175566
-0.255679
-0.270724
-0.265837
-0.251109
-0.246426
-0.236788
-0.232036
-0.247172
-0.237104
-0.232149
-0.23233
-0.222715
-0.2131
-0.208439
-0.178733
-0.173914
-0.168846
-0.158688
-0.14862
-0.143801
-0.114186
-0.0896608
-0.0651133
-0.0505205
-0.0408146
-0.0260636
-0.0164934
-0.00217223
0.0317193
0.0555202
0.0891853
0.108122
0.147172
0.171357
0.205384
0.229095
0.26267
0.316108
0.354502
0.403077
0.431765
0.455611
0.479593
0.493507
0.522353
0.536199
0.549955
0.544095
0.528529
0.518212
0.483122
0.438032
0.367805
0.327466
0.292126
0.2469
0.231719
0.116697
0.0516739
-0.0232581
-0.0881677
-0.118236
-0.13853
-0.139435
-0.151652
-0.161064
-0.17819
-0.193462
-0.226946
-0.24267
-0.259141
-0.285498
-0.292037
-0.314412
-0.307715
-0.317014
-0.306516
-0.322964
-0.295498
-0.267874
-0.249593
-0.240837
-0.24672
-0.272489
-0.28819
-0.278914
-0.269684
-0.255679
-0.25181
-0.262851
-0.258575
-0.248711
-0.258575
-0.26095
-0.266131
-0.253552
-0.233009
-0.199819
-0.175023
-0.180294
-0.193168
-0.200204
-0.191471
-0.182036
-0.176018
-0.173824
-0.180023
-0.190498
-0.201018
-0.22215
-0.238937
-0.25129
-0.238937
-0.226742
-0.21457
-0.222489
-0.225453
-0.243597
-0.277127
-0.280928
-0.269977
-0.254118
-0.248213
-0.25224
-0.246267
-0.265226
-0.294208
-0.313303
-0.312398
-0.291312
-0.280045
-0.278235
-0.285882
-0.283145
-0.294932
-0.286448
-0.252692
-0.213756
-0.15448
-0.139842
-0.134842
-0.16957
-0.174073
-0.188303
-0.172398
-0.126312
-0.0851358
-0.0586652
-0.0569005
-0.0898644
-0.117534
-0.135068
-0.152534
-0.144977
-0.132489
-0.134842
-0.137036
-0.219118
-0.266176
-0.273303
-0.305588
-0.308099
-0.27586
-0.248914
-0.237195
-0.245566
-0.25405
-0.262624
-0.256742
-0.256199
-0.246131
-0.216402
-0.151832
0.00776041
0.312466
0.802172
1.41686
2.11647
2.77104
3.22548
3.36489
3.35439
2.29394
1.37353
0.453077
-0.472308
-0.447896
-0.078484
0.125905
0.0805206
-0.0445925
-0.164525
-0.219412
-0.234321
-0.224344
-0.20957
-0.209819
-0.180068
-0.175181
-0.180158
-0.190158
-0.180068
-0.184955
-0.19
-0.165113
-0.155272
-0.135362
-0.120407
-0.115407
-0.120294
-0.115339
-0.0856559
-0.0763119
-0.0470133
-0.0126242
0.00194591
0.00151604
0.0110636
0.0254979
0.0597739
0.0938011
0.13767
0.186403
0.225158
0.244118
0.268258
0.287466
0.331652
0.400679
0.469548
0.528462
0.54767
0.547195
0.541991
0.546991
0.562127
0.572172
0.601946
0.611674
0.581493
0.546561
0.456697
0.361946
0.302127
0.21224
0.162217
0.117194
0.0873528
0.0277826
-0.0166518
-0.0714482
-0.0971042
-0.129321
-0.153484
-0.165113
-0.179231
-0.185679
-0.229095
-0.253643
-0.288394
-0.31724
-0.32819
-0.325113
-0.307964
-0.276629
-0.279751
-0.299502
-0.310452
-0.322014
-0.323258
-0.298891
-0.284502
-0.274864
-0.280159
-0.270385
-0.285498
-0.305656
-0.300837
-0.296131
-0.286516
-0.256878
-0.24724
-0.242398
-0.267285
-0.291425
-0.299299
-0.295
-0.283054
-0.267964
-0.244887
-0.224797
-0.22905
-0.233416
-0.227715
-0.226358
-0.229276
-0.196403
-0.188507
-0.199005
-0.218665
-0.248643
-0.269254
-0.270543
-0.272285
-0.27448
-0.246833
-0.234321
-0.226946
-0.24448
-0.272014
-0.279706
-0.297624
-0.295747
-0.274095
-0.267602
-0.271063
-0.284412
-0.287624
-0.280679
-0.298688
-0.286561
-0.254389
-0.196561
-0.183348
-0.19466
-0.22552
-0.221041
-0.221312
-0.206267
-0.181018
-0.14543
-0.124434
-0.103009
-0.0912216
-0.119117
-0.1419
-0.159615
-0.152262
-0.129774
-0.1219
-0.128597
-0.174864
-0.220973
-0.267127
-0.308371
-0.324615
-0.315814
-0.276991
-0.278032
-0.289027
-0.315158
-0.311516
-0.328371
-0.315679
-0.293235
-0.271131
-0.259208
-0.262534
-0.281018
-0.249729
-0.15362
0.0422172
0.352828
0.778258
1.30869
1.87419
2.43471
2.91034
3.18581
3.23115
2.99636
2.32652
1.41665
0.496878
-0.422738
-0.532104
-0.176425
0.0841629
0.134683
0.0150906
-0.129525
-0.168982
-0.228326
-0.212647
-0.201878
-0.216063
-0.215385
-0.219887
-0.204299
-0.17862
-0.182783
-0.171855
-0.185882
-0.17991
-0.184072
-0.158394
-0.147738
-0.117263
-0.111765
-0.116154
-0.105566
-0.109932
-0.0945023
-0.0642986
-0.0242534
0.000791907
0.0057466
0.0258597
0.0409955
0.0610859
0.0860407
0.10086
0.130633
0.17543
0.260294
0.305181
0.350271
0.380475
0.390814
0.396154
0.426471
0.466787
0.522353
0.568077
0.598959
0.614841
0.600701
0.59147
0.572149
0.567873
0.533574
0.529344
0.415317
0.341629
0.268077
0.204253
0.144774
0.0896378
0.0281672
-0.00504541
-0.0505658
-0.113688
-0.174661
-0.218032
-0.26267
-0.28172
-0.285385
-0.287444
-0.275317
-0.288937
-0.311041
-0.344661
-0.359819
-0.350611
-0.336312
-0.331606
-0.326539
-0.32129
-0.320837
-0.32043
-0.320136
-0.304932
-0.284819
-0.279842
-0.284819
-0.299683
-0.30948
-0.299186
-0.294004
-0.30405
-0.309027
-0.303665
-0.277466
-0.264887
-0.280294
-0.293303
-0.293824
-0.301991
-0.283167
-0.248235
-0.223167
-0.214186
-0.198235
-0.201425
-0.213892
-0.240656
-0.258054
-0.259005
-0.253937
-0.238823
-0.234367
-0.245747
-0.257466
-0.254683
-0.282036
-0.28457
-0.272263
-0.255113
-0.273077
-0.29095
-0.31871
-0.311561
-0.314389
-0.312376
-0.310272
-0.3031
-0.310611
-0.272896
-0.274774
-0.29629
-0.282579
-0.288507
-0.264299
-0.234729
-0.204683
-0.209253
-0.193507
-0.192511
-0.186312
-0.185045
-0.173597
-0.172036
-0.180294
-0.183258
-0.195882
-0.198077
-0.210068
-0.216855
-0.233552
-0.245317
-0.262082
-0.263688
-0.33
-0.356041
-0.361878
-0.347602
-0.338439
-0.324344
-0.300294
-0.296335
-0.30233
-0.298462
-0.304593
-0.316267
-0.328394
-0.275883
-0.158711
-0.00681013
0.289864
0.69138
1.22783
1.83907
2.49002
3.04072
3.33129
3.17176
3.06224
1.58278
0.663416
-0.255792
-0.585136
-0.259661
0.0306785
0.120927
0.0512441
-0.083326
-0.182828
-0.217263
-0.226674
-0.221154
-0.210634
-0.220136
-0.19957
-0.188937
-0.188258
-0.192557
-0.186788
-0.196086
-0.175475
-0.144887
-0.129344
-0.108756
-0.0980998
-0.0922853
-0.111403
-0.110611
-0.0951359
-0.0548645
-0.0198193
0.010226
0.0253842
0.0305879
0.0306783
0.0358142
0.0607688
0.0906105
0.120294
0.154751
0.189185
0.228597
0.253009
0.292489
0.326946
0.376289
0.420678
0.469932
0.489208
0.52362
0.543235
0.537896
0.53767
0.552489
0.557489
0.577488
0.562556
0.542602
0.49767
0.457692
0.397873
0.323077
0.26819
0.198393
0.163484
0.0987782
0.0242532
-0.0201585
-0.0646834
-0.114548
-0.140136
-0.141968
-0.165747
-0.172014
-0.206222
-0.253371
-0.297964
-0.323892
-0.339819
-0.35448
-0.355679
-0.337806
-0.335814
-0.339751
-0.363009
-0.368122
-0.369774
-0.366901
-0.329005
-0.330181
-0.33086
-0.331267
-0.346742
-0.352376
-0.358009
-0.353756
-0.329638
-0.325498
-0.316018
-0.316041
-0.320317
-0.343326
-0.354615
-0.343642
-0.325023
-0.308484
-0.294502
-0.289276
-0.279706
-0.270656
-0.278326
-0.295272
-0.281493
-0.269276
-0.275656
-0.270747
-0.275498
-0.285769
-0.29672
-0.308258
-0.310136
-0.29724
-0.299412
-0.296652
-0.299027
-0.296516
-0.30414
-0.316991
-0.350068
-0.348281
-0.321697
-0.315181
-0.318597
-0.336991
-0.350362
-0.363824
-0.372376
-0.376041
-0.329751
-0.298439
-0.271833
-0.27
-0.277805
-0.280271
-0.262421
-0.269299
-0.240837
-0.231968
-0.222647
-0.187873
-0.182715
-0.17224
-0.156493
-0.16552
-0.169366
-0.152964
-0.156222
-0.149185
-0.151833
-0.164299
-0.186538
-0.208642
-0.245814
-0.278054
-0.305317
-0.302489
-0.309502
-0.296493
-0.288507
-0.280837
-0.273439
-0.276425
-0.274774
-0.278371
-0.257262
-0.276222
-0.28543
-0.280045
-0.260023
-0.170362
-0.0108824
0.268484
0.697941
1.25728
1.90672
2.54604
3.08023
3.35919
3.35305
3.05679
2.28063
1.35966
0.433982
-0.486697
-0.642421
-0.303349
0.00563318
0.0995699
0.103552
-0.0971722
-0.197806
-0.238349
-0.223846
-0.19948
-0.200271
-0.186018
-0.171719
-0.19224
-0.217715
-0.21319
-0.228665
-0.214208
-0.194864
-0.160611
-0.136335
-0.131968
-0.122557
-0.108054
-0.123575
-0.119208
-0.114887
-0.0906559
-0.066561
-0.0523754
-0.038122
-0.0338687
-0.0195927
0.0246608
0.0386652
0.0674209
0.105973
0.144502
0.163168
0.186901
0.205611
0.249367
0.2881
0.336765
0.380317
0.413394
0.446494
0.479842
0.493371
0.501946
0.515475
0.543982
0.567308
0.570566
0.579005
0.587942
0.562263
0.546901
0.496675
0.436471
0.371154
0.310905
0.240611
0.175498
0.105498
0.0356791
-0.014072
-0.0489137
-0.06871
-0.0933933
-0.0931218
-0.113031
-0.138167
-0.159004
-0.181131
-0.205475
-0.227601
-0.248077
-0.251696
-0.252488
-0.249208
-0.280181
-0.308167
-0.337081
-0.356787
-0.332307
-0.31095
-0.286199
-0.283054
-0.285429
-0.292398
-0.313484
-0.324185
-0.309864
-0.275543
-0.241221
-0.251538
-0.251018
-0.269185
-0.260384
-0.274072
-0.264932
-0.257986
-0.223687
-0.198077
-0.152556
-0.163393
-0.182692
-0.216199
-0.209004
-0.206018
-0.188733
-0.174977
-0.164909
-0.169366
-0.193868
-0.214343
-0.235452
-0.246764
-0.233009
-0.204411
-0.220814
-0.227239
-0.243778
-0.250633
-0.242782
-0.245135
-0.23776
-0.240497
-0.238235
-0.240995
-0.253823
-0.261764
-0.284887
-0.293144
-0.276764
-0.275452
-0.274185
-0.267783
-0.276108
-0.279163
-0.286968
-0.28966
-0.292194
-0.249434
-0.206154
-0.172375
-0.167986
-0.183077
-0.197783
-0.187172
-0.196312
-0.185181
-0.173756
-0.156991
-0.0798642
-0.0774661
-0.0997285
-0.12681
-0.133801
-0.135747
-0.13776
-0.104548
-0.0911087
-0.127647
-0.184027
-0.230385
-0.2669
-0.288552
-0.295453
-0.267692
-0.260226
-0.252964
-0.261064
-0.274457
-0.303258
-0.282353
-0.256674
-0.256199
-0.265837
-0.265589
-0.23034
-0.165136
-0.0150229
0.274909
0.75966
1.35934
2.07405
2.74376
3.18357
3.35348
3.15851
2.49842
1.58821
0.667941
-0.252421
-0.662693
-0.302783
0.0473299
0.162534
0.067692
-0.107195
-0.21224
-0.227353
-0.222353
-0.202172
-0.191788
-0.216358
-0.225996
-0.230724
-0.225453
-0.200294
-0.180204
-0.165091
-0.174865
-0.159548
-0.154005
-0.163507
-0.153281
-0.128281
-0.118394
-0.118439
-0.103371
-0.0831224
-0.0927603
-0.0774209
-0.0623078
-0.0224888
-0.0178961
-0.0185069
0.0409049
0.0405203
0.0601357
0.0998415
0.149276
0.188507
0.23767
0.281697
0.320792
0.339932
0.379163
0.418529
0.447828
0.497172
0.541425
0.605769
0.62534
0.640113
0.635136
0.600294
0.555566
0.515905
0.496177
0.47638
0.456561
0.356946
0.277602
0.183394
0.109163
0.0448191
0.000384808
-0.0339817
-0.0484161
-0.0728958
-0.0975112
-0.13267
-0.158575
-0.201176
-0.21129
-0.222376
-0.233801
-0.217873
-0.253213
-0.293371
-0.306561
-0.341131
-0.341787
-0.333507
-0.316244
-0.310045
-0.295679
-0.297376
-0.314073
-0.305181
-0.305679
-0.28595
-0.29129
-0.291561
-0.281742
-0.276901
-0.277081
-0.277262
-0.287308
-0.291968
-0.270973
-0.248869
-0.249615
-0.262624
-0.262398
-0.26414
-0.253937
-0.243122
-0.218235
-0.196403
-0.19371
-0.185158
-0.180837
-0.203394
-0.224412
-0.238937
-0.228077
-0.222805
-0.208371
-0.204457
-0.215656
-0.221923
-0.233303
-0.254841
-0.241651
-0.243552
-0.240814
-0.238212
-0.225679
-0.238145
-0.245792
-0.258733
-0.281787
-0.299932
-0.273212
-0.266516
-0.239751
-0.252896
-0.26095
-0.288869
-0.306651
-0.309366
-0.2869
-0.244004
-0.215611
-0.181832
-0.172715
-0.188009
-0.203099
-0.227964
-0.18267
-0.141968
-0.115837
-0.0842307
-0.0872625
-0.0949775
-0.107579
-0.135
-0.12733
-0.139525
-0.136425
-0.158009
-0.184231
-0.220317
-0.266357
-0.282466
-0.308756
-0.320317
-0.307127
-0.289005
-0.280928
-0.277919
-0.290317
-0.283213
-0.271584
-0.260339
-0.25448
-0.258733
-0.253077
-0.232534
-0.192082
-0.0567421
0.183371
0.558326
1.08812
1.27283
2.4426
3.02244
3.29749
3.28747
2.86226
2.02206
1.09672
0.176425
-0.743824
-0.534027
-0.139163
0.120859
0.125927
0.000972569
-0.143914
-0.208892
-0.223778
-0.218665
-0.213484
-0.218235
-0.222919
