ekg
0
-0.00333333
-0.00699997
-0.0178571
0.00333339
0.0159091
0.0203847
-0.0029999
-0.00852937
-0.018421
-0.0142857
-0.0104348
0.00379992
0.0142592
0.0251724
0.00983864
-0.00469702
0.00171423
-0.00175673
0.00884616
0.0145122
0.0213953
0.0181112
0.0194682
0.0203062
0.0165687
-0.00169808
-0.000454485
0.00517541
0.0166101
0.0286066
0.0152381
0.0109231
0.00164187
-0.00702906
-0.00577468
-0.005274
0.0152667
0.00629872
0.0170254
0.00234574
-0.0126507
-0.0218235
-0.0110345
-0.020618
-0.0153297
-0.00489247
-0.00415796
0.00613403
-0.0138385
-0.00841588
-0.0179126
-0.0327142
-0.022757
-0.00743115
0.00819826
-0.00632745
-0.011087
-0.0358548
-0.0454202
-0.0400001
-0.0447968
-0.02476
-0.0145276
0.000852704
0.000572562
-0.02
-0.0255556
-0.0411679
-0.0473382
-0.024078
-0.0205944
-0.00675863
-0.0129592
-0.0240939
-0.0344039
-0.0438561
-0.0333548
-0.0230255
-0.0173585
-0.00642854
0.00944793
-0.00487882
-0.0242516
-0.0384911
-0.0328071
-0.02737
-0.0229143
-0.0106214
-0.027486
-0.0200277
-0.0327322
-0.0387568
-0.042861
-0.0397883
-0.0234554
-0.0130051
-0.0077948
-0.00271577
-0.0228142
-0.0279106
-0.0279804
-0.0331951
-0.0186232
-0.0139952
0.000782013
-0.00964791
-0.0203256
-0.0310369
-0.0416438
-0.047353
-0.0426471
-0.0330995
-0.023552
-0.0290045
-0.0244117
-0.0297058
-0.0349999
-0.0454524
-0.0410633
-0.0418552
-0.032647
-0.0284389
-0.0191402
-0.024819
-0.0304524
-0.0412443
-0.0572171
-0.0383031
-0.0144796
-0.000610828
0.0081901
0.011991
0.0107467
0.00434399
0.00782812
0.0111765
0.0343213
0.0574661
0.0905657
0.0786652
0.0717648
0.0647738
0.0426698
0.0404752
0.0380769
0.0457466
0.0484163
0.0212895
-0.0207693
-0.0375792
-0.0844117
-0.111244
-0.0980769
-0.0996832
-0.0811312
-0.0973981
-0.108416
-0.129276
-0.124909
-0.16052
-0.151063
-0.131538
-0.117036
-0.137353
-0.112556
-0.137489
-0.142489
-0.132466
-0.137579
-0.12785
-0.118032
-0.10819
-0.0681446
0.0120137
0.0372852
0.292534
0.467647
0.617692
0.662602
0.572534
0.342602
0.0376924
-0.287127
-0.556991
-0.651946
-0.567013
-0.422149
-0.287194
-0.217172
-0.172104
-0.121968
-0.101719
-0.0865836
-0.0916287
-0.0868323
-0.0669907
-0.0621265
-0.0571492
-0.062036
-0.0569004
-0.0617194
-0.0616288
-0.0466515
-0.046742
-0.0217646
-0.0266967
-0.0214931
-0.0362669
-0.0459049
-0.0407239
-0.0306108
-0.0104977
0.00459272
0.00977373
0.00999999
0.015362
0.0157692
-0.00884616
0.00142539
0.0314932
0.0315837
0.051742
0.0470815
0.042466
0.0528507
0.0382126
0.0435519
0.0588007
0.0889591
0.119185
0.124479
0.129841
0.125249
0.130724
0.131131
0.151493
0.176719
0.206945
0.22233
0.222805
0.243461
0.249117
0.254751
0.290339
0.315814
0.341335
0.3669
0.367647
0.383529
0.394683
0.405746
0.411674
0.432511
0.443303
0.479072
0.464909
0.465905
0.441991
0.417918
0.373574
0.364072
0.349366
0.339502
0.299796
0.255113
0.220497
0.175882
0.141244
0.10138
0.0764025
0.0663799
0.04138
0.0315384
0.0018099
-0.00798643
-0.0526698
-0.0524888
-0.0624887
-0.0574208
-0.0323076
-0.0470588
-0.0567874
-0.0814253
-0.0958824
-0.105045
-0.0991403
-0.0871041
-0.074276
-0.0557014
-0.0619458
-0.0635068
-0.0610634
-0.0650454
-0.0606109
-0.0524662
-0.0397512
-0.036629
-0.0477829
-0.0533259
-0.0584617
-0.063439
-0.0732806
-0.0630769
-0.0427829
-0.0224661
-0.0270815
-0.0266064
-0.046086
-0.060543
-0.0750905
-0.0697059
-0.059457
-0.0442308
-0.0389141
-0.0535746
-0.05819
-0.0778054
-0.0774887
-0.102308
-0.0822851
-0.0723077
-0.0723529
-0.0723076
-0.0772171
-0.0819457
-0.0966741
-0.11638
-0.121154
-0.106063
-0.0708142
-0.080226
-0.0895474
-0.118688
-0.117805
-0.121991
-0.111108
-0.110249
-0.094389
-0.0833936
-0.0922397
-0.105792
-0.109298
-0.112828
-0.116448
-0.105181
-0.0989139
-0.0775113
-0.0909049
-0.10414
-0.0972623
-0.12043
-0.108597
-0.0967872
-0.0849999
-0.0632126
-0.0666063
-0.0704977
-0.0849547
-0.0902262
-0.116199
-0.10767
-0.0840723
-0.0697284
-0.0790496
-0.0728958
-0.0840269
-0.104366
-0.114638
-0.10052
-0.0771943
-0.0544115
-0.0518776
-0.0395247
-0.0573074
-0.0603391
-0.053597
-0.0670585
-0.070769
-0.0396604
-0.00868756
-0.0328051
-0.0269455
-0.0411536
-0.0504748
-0.0549996
-0.0546603
-0.0496151
-0.0144567
-0.0193436
-0.0342079
-0.0539363
-0.0487101
-0.0586196
-0.0587327
-0.0439816
-0.0342079
-0.0294568
-0.0296152
-0.0447282
-0.0397735
-0.0599093
-0.0701129
-0.0604296
-0.0358369
-0.0212441
-0.0216061
-0.0268549
-0.0419906
-0.0422395
-0.0625788
-0.0529861
-0.0335518
-0.0242079
-0.0298187
-0.0403389
-0.0507689
-0.0512666
-0.0568548
-0.0576919
-0.0436874
-0.0248186
-0.0009498
0.00296426
-0.00309908
-0.00923032
0.00450271
-0.00194526
0.016358
0.0295479
0.0525571
0.0656113
0.078824
0.0769689
0.0800232
0.0430096
0.0408603
0.03853
0.0511091
0.0536882
0.0263806
-0.0207009
-0.0427823
-0.0648638
-0.0769453
-0.0689814
-0.0758818
-0.0875787
-0.084004
-0.100203
-0.106085
-0.141923
-0.147737
-0.138529
-0.124253
-0.0949091
-0.0954068
-0.105724
-0.125859
-0.130995
-0.141244
-0.131425
-0.111697
-0.1019
-0.0920812
-0.0571716
0.00794148
0.142987
0.293009
0.472851
0.642738
0.762444
0.757263
0.597217
0.322285
0.227376
-0.337556
-0.527602
-0.542851
-0.433099
-0.283371
-0.208484
-0.163484
-0.138462
-0.118394
-0.103507
-0.0987104
-0.0889367
-0.079163
-0.0744345
-0.0845249
-0.0894344
-0.0944344
-0.104457
-0.0895929
-0.0748644
-0.0551133
-0.0353395
-0.0604979
-0.0604753
-0.0604073
-0.0653848
-0.0704527
-0.0505658
-0.0307468
-0.0158374
-0.0307695
-0.0206565
-0.0304755
-0.0302719
-0.030204
-0.0201135
-0.0101587
0.0147733
0.0297733
0.0349317
0.0351805
0.0254521
0.00567836
0.0207688
0.035814
0.0457687
0.0758141
0.085995
0.0862666
0.0864928
0.0867192
0.0969228
0.117013
0.152036
0.172104
0.18733
0.192647
0.193145
0.203642
0.22405
0.239366
0.274661
0.309955
0.33543
0.350973
0.361651
0.337466
0.35328
0.37405
0.384842
0.41043
0.436063
0.436742
0.432511
0.423326
0.409027
0.399525
0.389796
0.360045
0.350249
0.315543
0.280882
0.221199
0.186516
0.126765
0.106946
0.0868552
0.0766969
0.0566968
0.0367873
0.0121267
-0.0225113
-0.0422397
-0.0571719
-0.0471718
-0.0571492
-0.0621039
-0.0669681
-0.0617646
-0.0714705
-0.0960858
-0.0854298
-0.0842307
-0.0573755
-0.0696831
-0.0511764
-0.0621266
-0.0630315
-0.0696831
-0.0826017
-0.0710633
-0.0620587
-0.0438235
-0.0607013
-0.0470588
-0.0626697
-0.067896
-0.0730092
-0.0730996
-0.0530996
-0.0380318
-0.0278959
-0.042715
-0.0374887
-0.0471267
-0.0568779
-0.0616742
-0.051629
-0.0416743
-0.0216969
-0.0316289
-0.0364705
-0.0461991
-0.0511086
-0.0660182
-0.071086
-0.0713348
-0.056742
-0.0520815
-0.0722851
-0.092285
-0.0923303
-0.102285
-0.10724
-0.0923077
-0.0923077
-0.0820588
-0.086561
-0.0908823
-0.100068
-0.104231
-0.108461
-0.102783
-0.0871946
-0.0765611
-0.0757692
-0.0848642
-0.0937556
-0.102579
-0.0964027
-0.105272
-0.109231
-0.0831675
-0.0719456
-0.080543
-0.0990498
-0.0974661
-0.110928
-0.104434
-0.0879411
-0.0714253
-0.0499999
-0.0538461
-0.0730543
-0.0728054
-0.0782127
-0.0938688
-0.0794117
-0.0691177
-0.067534
-0.0545475
-0.0601358
-0.0648643
-0.0646154
-0.0650001
-0.0610861
-0.0577151
-0.0246834
-0.0369232
-0.0343667
-0.042172
-0.0552264
-0.058507
-0.0520816
-0.0508147
-0.0398871
-0.0140952
-0.00337124
-0.0276925
-0.0320364
-0.0564933
-0.0611087
-0.0509051
-0.0258598
-0.0159051
-0.0309052
-0.025973
-0.0259731
-0.0309957
-0.0410636
-0.0262672
-0.0216519
-0.00703645
-0.00230795
-0.00748891
-0.017715
-0.0178735
-0.0330544
-0.0284616
-0.0240046
0.000452399
-0.00513583
-0.0256789
-0.0161088
-0.0215613
-0.0371042
-0.0477604
-0.0285297
-0.0093441
-0.0102264
-0.0109504
-0.0217196
-0.0224888
-0.023439
-0.0495702
-0.0358145
-0.0322399
-0.00377828
0.0046832
0.0131674
0.00671941
0.00515831
-0.00158381
0.0114931
0.00941169
0.042285
0.0751358
0.103032
0.105905
0.0937782
0.0614706
0.0540723
0.0416064
0.0291178
0.0516516
0.0343214
-0.0128732
-0.0598641
-0.0768098
-0.0936877
-0.0954524
-0.0821945
-0.0737781
-0.0751356
-0.0713348
-0.0921718
-0.107918
-0.123597
-0.129185
-0.129728
-0.120203
-0.100656
-0.0959953
-0.111176
-0.116289
-0.116403
-0.121651
-0.1069
-0.0972849
-0.0875338
-0.0726016
-0.0376016
0.0576019
0.172715
0.317647
0.477557
0.542398
0.492172
0.322036
0.0569684
-0.243054
-0.533009
-0.698032
-0.693145
-0.558371
-0.413597
-0.308824
-0.243982
-0.193982
-0.17905
-0.109163
-0.0893213
-0.0746154
-0.0700226
-0.0703846
-0.055611
-0.0458146
-0.0508825
-0.0508825
-0.0660182
-0.0611992
-0.0515386
-0.0469006
-0.0321494
-0.0272852
-0.0273077
-0.0223531
-0.0424436
-0.042602
-0.0277377
-0.0080092
0.00685501
0.0167645
-0.00821286
-0.00307715
-0.00798661
-0.00800925
-0.0179867
0.0268776
0.0468324
0.0318549
0.0520585
0.0523301
0.0474884
0.037579
0.0726242
0.0825337
0.102443
0.107466
0.122647
0.107896
0.13319
0.143393
0.168529
0.213642
0.228597
0.258642
0.278756
0.289095
0.294457
0.299864
0.315271
0.350611
0.380882
0.411199
0.406516
0.406991
0.397669
0.418529
0.424412
0.445113
0.445656
0.461199
0.456719
0.447217
0.432873
0.403507
0.368914
0.354118
0.334163
0.299072
0.289004
0.24914
0.204344
0.184548
0.114796
0.094819
0.0697285
0.0395476
0.0193892
0.00936663
-0.00558811
-0.035475
-0.045294
-0.0502262
-0.0601808
-0.0502487
-0.0503392
-0.0353166
-0.0602035
-0.0850224
-0.0847283
-0.109344
-0.0935292
-0.0722395
-0.065339
-0.052692
-0.0497056
-0.0519001
-0.0548638
-0.0640041
-0.0695245
-0.0664248
-0.0590494
-0.0416738
-0.0485969
-0.0499091
-0.065701
-0.0711761
-0.0714701
-0.0617643
-0.0617869
-0.046787
-0.0266739
-0.0315155
-0.0612441
-0.0558594
-0.0604974
-0.0652258
-0.0600449
-0.0550223
-0.0449772
-0.0448866
-0.0597962
-0.0596377
-0.074502
-0.0844116
-0.0693436
-0.0544341
-0.0646151
-0.044864
-0.0599771
-0.0650675
-0.0750222
-0.0950223
-0.0899544
-0.0749544
-0.0849319
-0.0649318
-0.079683
-0.0891174
-0.103574
-0.122918
-0.117217
-0.091493
-0.0858143
-0.0699545
-0.0789817
-0.0828279
-0.0966514
-0.110362
-0.119185
-0.107986
-0.0917872
-0.0854071
-0.0737104
-0.0769457
-0.0849999
-0.102941
-0.0958823
-0.0938687
-0.096923
-0.0799773
-0.0678959
-0.0606335
-0.0586425
-0.057104
-0.0664026
-0.0766968
-0.0777149
-0.0491855
-0.045543
-0.0510634
-0.0552036
-0.0577602
-0.0638914
-0.0693665
-0.0601584
-0.056742
-0.0339592
-0.0165836
-0.0195249
-0.0476471
-0.0510407
-0.0497285
-0.0534841
-0.0226245
-0.0118779
-0.00622171
-0.0156788
-0.0452263
-0.0497964
-0.0444571
-0.0543213
-0.0443214
-0.0444118
-0.019525
-0.0195249
-0.0295023
-0.0393893
-0.0444345
-0.0546607
-0.0399775
-0.0403847
-0.0307919
-0.0211313
-0.0264027
-0.0366516
-0.0469232
-0.0472398
-0.0526471
-0.0481675
-0.0337558
-0.0392309
-0.0346833
-0.0550454
-0.0454074
-0.0558825
-0.0614481
-0.0520591
-0.0377605
-0.0284618
-0.0141857
-0.0248193
-0.0304301
-0.0561314
-0.0670816
-0.0531223
-0.0392762
-0.0205431
-0.00181007
-0.00307715
-0.00436664
-0.000701487
-0.00223994
0.00606316
0.0141627
0.0221718
0.0351582
0.0531898
0.0811538
0.0691401
0.0769455
0.0546831
0.0372623
0.0247284
0.0322171
0.0248189
0.0174207
0.00515825
-0.0471041
-0.0593666
-0.0665612
-0.0787331
-0.0908145
-0.092534
-0.0990498
-0.115317
-0.136471
-0.137534
-0.148552
-0.13957
-0.12052
-0.11129
-0.1269
-0.15233
-0.152579
-0.162828
-0.16819
-0.15862
-0.14405
-0.124389
-0.109661
-0.104842
-0.114909
-0.0249999
0.069887
0.254729
0.464548
0.644276
0.74905
0.744005
0.559027
0.269095
-0.0859275
-0.411086
-0.57129
-0.531561
-0.391765
-0.266946
-0.197036
-0.162059
-0.132149
-0.112376
-0.0926926
-0.0980545
-0.0833711
-0.0785295
-0.0835747
-0.0885295
-0.0885975
-0.0938238
-0.0891404
-0.0744799
-0.0548192
-0.0400907
-0.0453168
-0.0602942
-0.0653168
-0.0704526
-0.0606337
-0.0458374
-0.0261089
-0.0312446
-0.0163804
-0.011403
-0.0213577
-0.0162898
-0.0113578
-0.00647098
0.00839329
0.0232123
0.033167
0.0132349
0.01828
0.0183253
0.0132574
0.0381896
0.0430539
0.0478955
0.0678729
0.0778955
0.0830313
0.0782576
0.0934386
0.108529
0.133393
0.15828
0.178258
0.198326
0.203507
0.208823
0.22414
0.234389
0.264593
0.299819
0.330113
0.340565
0.361131
0.366719
0.372398
0.38819
0.413846
0.424434
0.450068
0.455633
0.456244
0.446968
0.43767
0.428281
0.413733
0.403937
0.37414
0.349367
0.334548
0.279751
0.240023
0.200272
0.165385
0.140294
0.115113
0.0999324
0.0748419
0.0449324
0.025068
-0.00993192
-0.0400677
-0.045226
-0.0304296
-0.0356559
-0.030769
-0.0508368
-0.070769
-0.075588
-0.090475
-0.0804749
-0.0751129
-0.0642758
-0.0676016
-0.0549319
-0.0614024
-0.0673979
-0.0734386
-0.0853165
-0.0685745
-0.0435292
-0.0448414
-0.041855
-0.0536875
-0.0598413
-0.0604748
-0.0608141
-0.0510404
-0.0511989
-0.0362667
-0.0261084
-0.0410179
-0.045769
-0.0604975
-0.0752713
-0.0601581
-0.0550904
-0.0400678
-0.0299772
-0.0398189
-0.0445021
-0.0540723
-0.0836876
-0.0733936
-0.0581899
-0.0580994
-0.0579863
-0.0527601
-0.0674433
-0.0671718
-0.0818776
-0.0866288
-0.0965383
-0.076493
-0.0765157
-0.0715383
-0.0665609
-0.0915383
-0.101493
-0.101584
-0.0966741
-0.0916741
-0.0816741
-0.0765158
-0.0763347
-0.0959048
-0.0902487
-0.104502
-0.10871
-0.107986
-0.0921719
-0.0662217
-0.0800679
-0.0837783
-0.0872851
-0.0907013
-0.0991176
-0.0975791
-0.0810407
-0.0644797
-0.0677149
-0.0707692
-0.0936198
-0.106448
-0.0942532
-0.0920812
-0.0849546
-0.0628053
-0.0354977
-0.0630994
-0.0608144
-0.078846
-0.0925113
-0.0919909
-0.0772397
-0.0529864
-0.048733
-0.0589139
-0.0682126
-0.0663347
-0.0781674
-0.089389
-0.0856107
-0.0674207
-0.039932
-0.0180541
-0.0266061
-0.0354524
-0.0546153
-0.0541402
-0.0388009
-0.0336199
-0.028552
-0.0285293
-0.0284162
-0.0433257
-0.0381899
-0.0482126
-0.0583258
-0.0386199
-0.0239819
-0.0142307
-0.0243664
-0.024457
-0.0345701
-0.0445927
-0.0447962
-0.0401583
-0.0405657
-0.0260181
-0.00640279
-0.0316741
-0.0369456
-0.0372398
-0.0476243
-0.0380996
-0.0336652
-0.0242535
-0.00979644
-0.0103394
-0.0408371
-0.0312445
-0.0517648
-0.0523304
-0.0480317
-0.0288689
-0.0197061
-0.0155883
-0.0264255
-0.0272399
-0.0431448
-0.0541856
-0.0504073
-0.0469005
-0.0334163
-0.0149321
-0.0114932
-0.0230769
-0.0247059
-0.0215157
-0.0134614
-0.000610828
0.0220587
0.034638
0.052285
0.0548868
0.0675113
0.0700225
0.0723076
0.0795248
0.0816515
0.0588234
0.0510633
0.0384615
0.035905
-0.0165838
-0.0491177
-0.0615159
-0.0689366
-0.0611538
-0.0681675
-0.0849096
-0.106358
-0.112647
-0.138891
-0.140068
-0.136176
-0.122172
-0.108054
-0.103778
-0.119208
-0.124661
-0.140068
-0.135633
-0.121267
-0.111878
-0.0975114
-0.0880317
-0.0983485
-0.108484
-0.0587331
0.0159049
0.155362
0.324774
0.484208
0.583756
0.568461
0.43319
0.207941
-0.0774661
-0.377896
-0.568439
-0.609073
-0.519706
-0.400249
-0.290679
-0.220973
-0.171312
-0.126674
-0.0771266
-0.0676923
-0.0681674
-0.0736199
-0.069027
-0.0743664
-0.0746604
-0.0801356
-0.0655881
-0.0661311
-0.0316514
-0.0320814
-0.0473756
-0.0675792
-0.0678054
-0.0680768
-0.0784841
-0.0488913
-0.0243438
-0.0247058
-0.0300904
-0.030294
-0.0304071
-0.0306107
-0.0208596
-0.0111763
0.00343895
0.0231223
0.0278281
0.0276245
0.027534
0.0324888
0.0222399
0.0319684
0.0365611
0.0511765
0.0658597
0.0806788
0.0955658
0.100566
0.105475
0.115339
0.140045
0.169706
0.199434
0.214186
0.22914
0.239185
0.244253
0.259276
0.28414
0.314027
0.343959
0.379004
0.389208
0.394525
0.404909
0.405316
0.435769
0.461154
0.466515
0.486968
0.482443
0.47285
0.448325
0.44371
0.429027
0.419027
0.393846
0.383733
0.33362
0.288597
0.243574
0.203461
0.15319
0.137828
0.117307
0.0968324
0.0615156
0.0363119
0.0161536
-0.0339142
-0.0341178
-0.049344
-0.0397286
-0.0400454
-0.035249
-0.0304073
-0.0504525
-0.0753847
-0.0904073
-0.0955657
-0.0705206
-0.0502038
-0.054231
-0.057489
-0.0649323
-0.0719007
-0.0688916
-0.0815613
-0.0553169
-0.0503622
-0.0417874
-0.0390047
-0.0413801
-0.0483485
-0.0497511
-0.060724
-0.0613576
-0.0668553
-0.067172
-0.0422625
-0.0472625
-0.0472172
-0.0522851
-0.067353
-0.0775339
-0.0528054
-0.05319
-0.0435067
-0.0588008
-0.0588686
-0.0740497
-0.0844343
-0.0900451
-0.0807691
-0.0614479
-0.0720813
-0.0624886
-0.0777149
-0.0728958
-0.0980089
-0.0981447
-0.103213
-0.0982804
-0.0832351
-0.0780767
-0.0827374
-0.0822397
-0.0916515
-0.101086
-0.110611
-0.0951357
-0.0797058
-0.0691629
-0.0735746
-0.082828
-0.0919683
-0.0960633
-0.115113
-0.104231
-0.093371
-0.0723981
-0.0713121
-0.0800903
-0.0786424
-0.107172
-0.105679
-0.104434
-0.103643
-0.0684161
-0.0688007
-0.0697963
-0.0813121
-0.0928279
-0.104072
-0.0994568
-0.0986198
-0.0913347
-0.0675564
-0.0533031
-0.0586876
-0.05457
-0.0559953
-0.0728732
-0.0600451
-0.0424207
-0.0199999
-0.00771487
-0.0305656
-0.0334615
-0.0415609
-0.0448867
-0.0384614
-0.0223075
-0.0064252
0.00438923
-0.0049094
-0.0342307
-0.0437102
-0.0383257
-0.0530768
-0.0381672
-0.0382578
-0.0184162
-0.0285519
-0.0385519
-0.038484
-0.0484614
-0.0636198
-0.0539592
-0.0344568
-0.0299547
-0.0153167
-0.0205203
-0.0208144
-0.0411085
-0.0465384
-0.0570361
-0.0426922
-0.0283936
-0.029027
-0.0246152
-0.0401356
-0.045656
-0.0461763
-0.0517645
-0.0375337
-0.0433708
-0.0242757
-0.0202032
-0.0211535
-0.0320132
-0.0430313
-0.0241399
-0.0203843
-0.00187737
0.0165614
0.0350003
0.0334166
0.0268103
0.0100682
0.033213
0.061109
0.0889144
0.111629
0.0993216
0.077127
0.0548419
0.0376926
0.0253623
0.00296408
0.0054301
-0.0121038
-0.0145925
-0.0320585
-0.0491626
-0.076063
-0.0928051
-0.109434
-0.106086
-0.0876468
-0.0840268
-0.0851128
-0.10095
-0.106538
-0.127013
-0.137488
-0.132964
-0.128461
-0.108959
-0.0992984
-0.114502
-0.11457
-0.114547
-0.134592
-0.124638
-0.114909
-0.0500224
0.0548192
0.194661
0.354706
0.519797
0.664864
0.699842
0.649683
0.464435
0.204276
-0.11586
-0.415995
-0.495973
-0.570927
-0.440973
-0.326063
-0.236244
-0.196516
-0.156719
-0.126832
-0.106832
-0.101765
-0.101787
-0.106878
-0.102013
-0.0922397
-0.0724885
-0.0626695
-0.0626469
-0.0575111
-0.0723528
-0.0723981
-0.0675564
-0.0577375
-0.0329186
-0.033009
-0.0330543
-0.0279186
-0.0578281
-0.0678506
-0.052896
-0.0330317
-0.0181675
0.00174206
-0.00316745
-0.00803173
-0.0228055
-0.00757921
-0.0123983
0.00757909
0.0125564
0.0474659
0.0424206
0.0525338
0.0477374
0.042941
0.0480315
0.0480541
0.058009
0.0980089
0.103077
0.118213
0.118461
0.123733
0.128959
0.15905
0.179027
0.204118
0.244253
0.249525
0.274932
0.280452
0.295973
0.311403
0.336742
0.377172
0.38776
0.403461
0.419321
0.415203
0.42604
0.406742
0.432307
0.452737
0.458212
0.458687
0.444162
0.444592
0.380045
0.340384
0.300497
0.275497
0.270407
0.240339
0.190384
0.140588
0.100791
0.0559497
0.0260402
0.0159498
0.00583673
0.00579143
-0.0142539
-0.0391633
-0.0589597
-0.0688692
-0.0888013
-0.083824
-0.0840049
-0.0641181
-0.0991859
-0.0888918
-0.0880772
-0.0965841
-0.104435
-0.0966067
-0.0831
-0.0594575
-0.0460185
-0.0584167
-0.0619687
-0.0569007
-0.0732356
-0.0699326
-0.0620592
-0.0534846
-0.0393894
-0.0399324
-0.0452492
-0.0503849
-0.0553849
-0.0603396
-0.0653169
-0.0553848
-0.0554301
-0.0404074
-0.0303169
-0.0301132
-0.0597965
-0.0745476
-0.0893892
-0.0744345
-0.0595477
-0.0496382
-0.0646608
-0.0695704
-0.0795025
-0.0994119
-0.0995024
-0.0848644
-0.0803848
-0.0708373
-0.086154
-0.0863803
-0.106426
-0.11138
-0.116403
-0.121539
-0.111607
-0.0865839
-0.0914255
-0.0861313
-0.0805431
-0.0999096
-0.119163
-0.113462
-0.102806
-0.0921268
-0.0762896
-0.0904073
-0.089344
-0.108235
-0.112082
-0.110905
-0.099842
-0.0787559
-0.0625569
-0.0662447
-0.0697062
-0.0778509
-0.0859731
-0.0890726
-0.0872173
-0.0704074
-0.0635748
-0.0567423
-0.0600002
-0.0536426
-0.062896
-0.0779187
-0.088869
-0.0802265
-0.0665838
-0.0471495
-0.0763124
-0.068982
-0.0802717
-0.0658146
-0.0813349
-0.0676698
-0.0397738
-0.0274435
-0.0202942
-0.0184164
-0.0217422
-0.0504527
-0.0494346
-0.0535975
-0.0429866
-0.0225794
-0.0271948
-0.0368102
-0.0314029
-0.0410411
-0.0559053
-0.0459052
-0.0410636
-0.0213351
-0.00649345
-0.0116066
-0.0116066
-0.0267196
-0.0369006
-0.0471948
-0.0325793
-0.0180318
-0.023439
-0.0187784
-0.0240047
-0.0242083
-0.0294571
-0.0447965
-0.0352037
-0.0357919
-0.0163574
-0.0419005
-0.0423756
-0.0326923
-0.0430543
-0.0435068
-0.044095
-0.0347285
-0.0254977
-0.00628954
-0.0170135
-0.027715
-0.0333937
-0.0391402
-0.0549773
-0.0411084
-0.0173754
0.0112219
0.0248418
0.0235071
0.0171947
0.0157242
0.0190952
0.0122626
0.0552264
0.0831449
0.106086
0.10405
0.092059
0.0849097
0.0626698
0.0352263
0.0426472
0.0500002
0.0473531
0.019887
0.00757933
-0.0196605
-0.051923
-0.0690723
-0.086199
-0.0833257
-0.080294
-0.0821493
-0.118665
-0.119909
-0.121154
-0.12724
-0.123348
-0.129412
-0.100294
-0.10095
-0.0963799
-0.101583
-0.126787
-0.157013
-0.157307
-0.137647
-0.122964
-0.0982125
-0.0884161
-0.0635067
-0.00350666
0.091516
0.241493
0.426357
0.626177
0.725905
0.705634
0.555452
0.265475
-0.059638
-0.364797
-0.545113
-0.55043
-0.435815
-0.306131
-0.221267
-0.206312
-0.151335
-0.136425
-0.101539
-0.0917875
-0.0919912
-0.0873079
-0.0725115
-0.0776247
-0.0876925
-0.0928283
-0.102964
-0.0782129
-0.0685297
-0.043869
-0.0391632
-0.059231
-0.0691859
-0.0741858
-0.0841632
-0.0592763
-0.0344347
-0.0246158
-0.0197061
-0.0247062
-0.0296836
-0.034593
-0.0295479
-0.0345705
-0.019661
0.000248551
0.0252033
0.025158
0.0302259
0.0252259
0.00527114
0.0152938
0.0302938
0.0553164
0.0603843
0.0854748
0.0857011
0.0809726
0.0762214
0.0863346
0.111357
0.131335
0.166267
0.181267
0.196448
0.206787
0.212217
0.217602
0.237964
0.268303
0.30362
0.329027
0.33966
0.350407
0.351312
0.352285
0.373122
0.393891
0.419479
0.445
0.455543
0.451176
0.421832
0.412466
0.392964
0.403303
0.383461
0.358552
0.33862
0.308733
0.293914
0.22905
0.184072
0.16905
0.133982
0.118891
0.103801
0.0637105
0.0237784
-0.00604063
-0.0408823
-0.0457917
-0.0459048
-0.0412442
-0.0415383
-0.0517419
-0.0667645
-0.0616289
-0.0814705
-0.0962216
-0.10586
-0.0900451
-0.073552
-0.076199
-0.0628054
-0.0489366
-0.0501357
-0.0720587
-0.0703619
-0.0551584
-0.0364027
-0.0284389
-0.0354298
-0.0418552
-0.0576923
-0.0682126
-0.0687557
-0.0540724
-0.0543212
-0.0543891
-0.0644118
-0.0443891
-0.0593892
-0.0593439
-0.0744345
-0.0695928
-0.0647513
-0.050068
-0.0502942
-0.0355204
-0.0407014
-0.070905
-0.0813575
-0.076923
-0.0824885
-0.0680769
-0.0684162
-0.0735519
-0.0785745
-0.0834615
-0.0932805
-0.103077
-0.0978053
-0.0824887
-0.0722623
-0.0869681
-0.0864251
-0.0857237
-0.090045
-0.099389
-0.10871
-0.0931672
-0.0976017
-0.101946
-0.111086
-0.105136
-0.124095
-0.113122
-0.117217
-0.0963573
-0.0803844
-0.0743437
-0.078235
-0.0769002
-0.0904523
-0.094027
-0.0977147
-0.0867872
-0.0863573
-0.0814478
-0.0716515
-0.0974432
-0.10328
-0.0987101
-0.108348
-0.121923
-0.0993663
-0.0855428
-0.0608595
-0.0660405
-0.0566061
-0.0626469
-0.0641627
-0.0811311
-0.0584614
-0.0461763
-0.0340497
-0.0319908
-0.0399772
-0.0429637
-0.0511763
-0.0395021
-0.0482125
-0.037217
-0.0262668
-0.0254523
-0.0196604
-0.0239591
-0.0284161
-0.0530993
-0.0429636
-0.0330542
-0.0131899
0.00671959
-0.00332564
-0.00332558
-0.0283934
-0.0385292
-0.0337555
-0.0290948
0.00540751
-0.000158191
-0.000633359
-0.00597262
-0.0363573
-0.0417646
-0.0471267
-0.0375792
-0.02319
-0.0188234
-0.0044117
-0.00990945
-0.0253167
-0.0357918
-0.0364026
-0.0222172
-0.0031448
0.000859678
-6.78897e-05
-0.00604081
-0.00703621
-0.0181675
-0.00927609
-0.00563359
0.0178958
0.0212442
0.0145248
0.0377827
0.0411085
0.0493891
0.0626244
0.0707691
0.10362
0.116335
0.10905
0.101742
0.069457
0.0472172
0.0299774
0.00266957
-0.0197059
-0.0322173
-0.054706
-0.0621268
-0.0493667
-0.0513576
-0.0883485
-0.100204
-0.0969459
-0.0886654
-0.100226
-0.091697
-0.0878961
-0.0939595
-0.114864
-0.130724
-0.126539
-0.112353
-0.102896
-0.0984617
-0.113914
-0.104208
-0.0994799
-0.114729
-0.124932
-0.105272
-0.070679
0.0188686
0.133529
0.26828
0.323077
0.488009
0.522783
0.442443
0.277081
0.0416287
-0.208869
-0.469254
-0.639525
-0.644661
-0.534864
-0.420136
-0.320475
-0.250905
-0.18138
-0.116742
-0.0720363
-0.07724
-0.0923756
-0.112647
-0.0930091
-0.083439
-0.0638915
-0.0443214
-0.049638
-0.0548642
-0.0650453
-0.0602262
-0.0654978
-0.055724
-0.0461087
-0.0314254
-0.0265839
-0.0366743
-0.0416743
-0.0516743
-0.046697
-0.0468553
-0.0221269
-0.0173531
0.00246596
0.00753385
0.00266957
-0.0121496
-0.00712699
0.00771475
0.00751102
0.0222169
0.0321264
0.0371264
0.0422395
0.0424431
0.0325562
0.0426014
0.0676241
0.0976014
0.112579
0.127692
0.127918
0.138144
0.14328
0.163393
0.178416
0.218461
0.243552
0.268823
0.28914
0.299389
0.299773
0.31018
0.335588
0.351018
0.386493
0.407149
0.41294
0.413732
0.424524
0.415158
0.410723
0.421085
0.431334
0.451515
0.436719
0.426809
0.4019
0.357081
0.342194
0.312081
0.286922
0.276764
0.231651
0.20156
0.156583
0.121674
0.0816736
0.0615152
0.0562437
0.0360175
-0.014073
-0.0141409
-0.0190277
-0.039073
-0.0391182
-0.0491635
-0.0593445
-0.0445933
-0.0347064
-0.0295933
-0.0440503
-0.0629417
-0.0662223
-0.0842991
-0.0716973
-0.0489597
-0.0365389
-0.0248194
-0.0291407
-0.03448
-0.0510637
-0.0634619
-0.0609732
-0.0430093
-0.0395252
-0.0255659
-0.0362446
-0.0416517
-0.0467196
-0.0566067
-0.0715613
-0.0516292
-0.0368327
-0.0319006
-0.0168779
-0.0317196
-0.0464708
-0.0562446
-0.0661089
-0.0611089
-0.0461315
-0.0612673
-0.0513576
-0.0564029
-0.0813577
-0.0763124
-0.0763576
-0.086516
-0.0818553
-0.0772852
-0.0626925
-0.0680091
-0.0732127
-0.0932353
-0.113213
-0.12319
-0.0932806
-0.083258
-0.0781221
-0.062896
-0.0974434
-0.101878
-0.121335
-0.125747
-0.110113
-0.109547
-0.113937
-0.10319
-0.0871945
-0.0960633
-0.114796
-0.113597
-0.0974661
-0.0913348
-0.0800905
-0.0737557
-0.0771946
-0.0904524
-0.093552
-0.081629
-0.0847512
-0.0830091
-0.0712218
-0.0593666
-0.0576472
-0.0611765
-0.0752263
-0.0800679
-0.0857241
-0.0821041
-0.0888689
-0.060249
-0.0613349
-0.0652489
-0.0774661
-0.0684615
-0.0690045
-0.0698869
-0.0516063
-0.033914
-0.0315385
-0.0244796
-0.0225566
-0.0360181
-0.0497285
-0.0587105
-0.0429412
-0.0272399
-0.016629
-0.0210182
-0.0354978
-0.0302037
-0.0649323
-0.0446833
-0.0346154
-0.0295475
-0.0145927
-0.00970584
-0.0196607
-0.0345701
-0.039457
-0.0494797
-0.0496606
-0.0399321
-0.0253394
-0.0206788
-0.0308824
-0.0410407
-0.0461313
-0.0712444
-0.056448
-0.04681
-0.027172
-0.0226018
-0.0229186
-0.0281674
-0.0383258
-0.0285068
-0.038801
-0.0342082
-0.0247512
-0.0153847
-0.00595033
-0.0164254
-0.0268553
-0.0373304
-0.0380092
-0.0388463
-0.0248192
-0.00592774
0.00294101
0.0219229
0.0208369
0.0196605
0.0133483
0.0167646
0.0250225
0.0431447
0.0711538
0.0941403
0.0871267
0.0902036
0.0682127
0.0460634
0.0387331
0.031267
0.0387557
0.0163574
0.00409496
-0.0181449
-0.0553169
-0.0726472
-0.0649775
-0.0723079
-0.0844798
-0.0813803
-0.0831902
-0.0897512
-0.116086
-0.13224
-0.148371
-0.134502
-0.11052
-0.106358
-0.111991
-0.117398
-0.127738
-0.143032
-0.153326
-0.138688
-0.118959
-0.0892534
-0.0895022
-0.0796833
-0.0347285
0.0552716
0.190181
0.369978
0.549797
0.71957
0.794367
0.704163
0.649163
0.179118
-0.175973
-0.461154
-0.571312
-0.521584
-0.381923
-0.267127
-0.227217
-0.182285
-0.16233
-0.122466
-0.0976695
-0.0829183
-0.0632351
-0.088484
-0.0886197
-0.0936197
-0.0936198
-0.0936425
-0.0887104
-0.0890046
-0.0692761
-0.0694571
-0.0545701
-0.0495475
-0.0694795
-0.0695022
-0.0696154
-0.0547285
-0.0399774
-0.025181
-0.0153168
-0.0203393
-0.0302262
-0.0301583
-0.0351809
-0.0352262
-0.0204299
-0.000588238
-0.0106335
0.00941163
0.00459254
-0.00524902
-0.0101359
-0.0151134
0.0048641
0.0248188
0.0448188
0.0499319
0.0551581
0.0504749
0.0457236
0.070882
0.10095
0.120927
0.140973
0.161199
0.171583
0.162013
0.162488
0.192896
0.21828
0.253552
0.293869
0.324231
0.339751
0.350475
0.356335
0.352127
0.362851
0.393439
0.413959
0.424434
0.424932
0.43052
0.411086
0.411516
0.411787
0.411832
0.406855
0.386945
0.347036
0.302149
0.28233
0.222466
0.182511
0.157466
0.142262
0.122013
0.0968549
0.0718549
0.0319228
-0.00805467
-0.0180547
-0.0331678
-0.0484393
-0.0386656
-0.0487335
-0.0486656
-0.0584847
-0.0632585
-0.0830547
-0.0926701
-0.0769462
-0.0656114
-0.0733942
-0.0654078
-0.0616295
-0.0624892
-0.0737788
-0.0603399
-0.054073
-0.0494349
-0.0509734
-0.0330321
-0.0247968
-0.0409054
-0.0515842
-0.057014
-0.0573308
-0.0376022
-0.037738
-0.0426927
-0.0376022
-0.0373307
-0.0471498
-0.0669914
-0.0719009
-0.0818783
-0.0668557
-0.0518104
-0.0367424
-0.0465162
-0.0562674
-0.0709959
-0.075747
-0.0657017
-0.0607244
-0.065747
-0.0457017
-0.0555434
-0.060385
-0.070204
-0.0952266
-0.095385
-0.0857018
-0.0861542
-0.0765162
-0.0716746
-0.086652
-0.0865615
-0.111358
-0.106177
-0.100973
-0.0907469
-0.0704302
-0.074955
-0.0793442
-0.0935524
-0.107693
-0.116878
-0.111086
-0.10034
-0.0894347
-0.0683714
-0.0821722
-0.105792
-0.119344
-0.117964
-0.106629
-0.0903623
-0.0839595
-0.062421
-0.0656789
-0.0636879
-0.0765839
-0.0894346
-0.0923305
-0.0804301
-0.0589821
-0.0480545
-0.052602
-0.047602
-0.0580092
-0.0685975
-0.0839369
-0.0636654
-0.0473984
-0.0297514
-0.0366518
-0.0370364
-0.0374211
-0.0484617
-0.0552945
-0.0426473
-0.0255433
-0.0288464
-0.00751162
-0.01129
-0.0152491
-0.0243216
-0.033507
-0.0279414
-0.027602
-0.0123984
0.0077827
-0.0121042
-0.0319458
-0.0418101
-0.036697
-0.0466744
-0.0316969
-0.0267874
-0.0120363
-0.0122173
-0.0273304
-0.0174661
-0.022534
-0.0276697
-0.0229186
-0.0182127
-0.00850683
-0.00377822
-0.0290045
-0.0242533
-0.0393664
-0.044457
-0.0246832
-0.0400678
-0.0205203
-0.0109728
-0.00128955
-0.0165837
-0.0118778
-0.0322171
-0.0376922
-0.0332806
-0.0240498
-0.00990951
-0.0107918
-0.0116742
-0.0174659
-0.0332352
-0.0392533
-0.0304298
-0.0217872
0.00174218
0.015317
0.0138916
0.0123984
0.000905156
0.014231
0.0173758
0.0553848
0.0732129
0.10595
0.128756
0.106561
0.0743893
0.05224
0.0249775
0.0177151
0.0153621
-0.00194561
-0.0141854
-0.0410858
-0.0577827
-0.0692986
-0.0907239
-0.102104
-0.0884613
-0.0897509
-0.0857916
-0.0965608
-0.102059
-0.112375
-0.132647
-0.128077
-0.103597
-0.104095
-0.0894794
-0.0896604
-0.0947283
-0.104615
-0.119479
-0.114344
-0.109321
-0.0893664
-0.039457
0.055543
0.180701
0.31595
0.436199
0.536425
0.576516
0.526538
0.371448
0.151538
-0.153235
-0.252873
-0.592625
-0.612421
-0.507285
-0.377285
-0.282376
-0.222376
-0.172285
-0.117217
-0.106946
-0.086742
-0.0866742
-0.0866063
-0.0716969
-0.0617421
-0.0417874
-0.0516517
-0.0514029
-0.0511767
-0.0560862
-0.051041
-0.0410184
-0.0360863
-0.041041
-0.0159279
-0.0156337
-0.020317
-0.0250908
-0.0348192
-0.0195931
0.000633121
-0.00411803
0.00617605
0.00656062
0.00205839
0.0075109
-0.00210452
0.00316697
0.0183706
0.0436874
0.0539137
0.0542757
0.0446829
0.0402033
0.0356332
0.0510177
0.0813344
0.096606
0.1169
0.132285
0.127805
0.143371
0.138959
0.149434
0.194819
0.220181
0.245588
0.26604
0.266629
0.272353
0.283077
0.303778
0.334389
0.369977
0.39061
0.406447
0.427466
0.42371
0.425067
0.431289
0.432352
0.443235
0.443981
0.439728
0.43552
0.426312
0.362081
0.337669
0.29319
0.268574
0.243869
0.22414
0.199479
0.149909
0.100407
0.0508369
0.031199
0.00642526
0.0164931
0.0216516
0.0169683
0.00237548
-0.0271268
-0.0465612
-0.0660861
-0.0757919
-0.0755883
-0.065362
-0.0651131
-0.0597285
-0.0690724
-0.0829412
-0.0912896
-0.0940498
-0.0812896
-0.0581222
-0.0497511
-0.0365384
-0.0539819
-0.067353
-0.0820588
-0.0673076
-0.0641854
-0.0562216
-0.0428053
-0.0338234
-0.0442533
-0.0493665
-0.0492308
-0.0739366
-0.0636424
-0.0383483
-0.0480316
-0.0226921
-0.027217
-0.026674
-0.0509953
-0.0553392
-0.0697283
-0.0591627
-0.0586649
-0.0481446
-0.0376015
-0.0470359
-0.0565155
-0.080882
-0.0853615
-0.0799543
-0.0796376
-0.0743888
-0.0790721
-0.0787554
-0.0834839
-0.093235
-0.113099
-0.128009
-0.10785
-0.0976242
-0.0873528
-0.0919456
-0.0863574
-0.0956108
-0.0947964
-0.109027
-0.10328
-0.0875564
-0.0916516
-0.0855882
-0.0843891
-0.0930091
-0.106493
-0.115023
-0.118552
-0.0971492
-0.0907012
-0.0890271
-0.0871719
-0.0851131
-0.0879411
-0.10086
-0.0988009
-0.0917646
-0.0796606
-0.0574207
-0.0599999
-0.062534
-0.0801809
-0.0933484
-0.0923077
-0.0821493
-0.0778279
-0.0590724
-0.0552262
-0.060724
-0.0700452
-0.0829412
-0.0844118
-0.0652035
-0.061018
-0.0374435
-0.0341855
-0.0367647
-0.0346833
-0.0528958
-0.0614706
-0.0554299
-0.0446832
-0.0239141
-0.00830323
-0.0226245
-0.0318779
-0.051154
-0.0554752
-0.0700226
-0.0547285
-0.0246379
-0.0195475
-0.0194569
-0.0192986
-0.0290497
-0.0387781
-0.0487104
-0.0387555
-0.0338687
-0.0290046
-0.0191177
-0.0240724
-0.0389819
-0.0488915
-0.0638688
-0.0739367
-0.0542083
-0.0344571
-0.019706
-0.0148643
-0.00993216
-0.0449774
-0.055068
-0.0602942
-0.0406334
-0.0311313
-0.0115611
-0.0168778
-0.0222624
-0.0375112
-0.0428054
-0.0532354
-0.0588689
-0.0496154
-0.0404976
-0.0313574
-0.032285
-0.0282126
-0.0290497
-0.0250677
-0.0263121
-0.00282788
0.0154979
0.0288691
0.0321948
0.030498
0.0487332
0.0519007
0.0649097
0.0877604
0.0904074
0.0779414
0.0505658
0.0432808
0.0260409
0.00889164
-0.0182804
-0.0354071
-0.0375564
-0.0395474
-0.0414252
-0.0679184
-0.0742534
-0.0904524
-0.111493
-0.127466
-0.123484
-0.109412
-0.100181
-0.100679
-0.106063
-0.12129
-0.141448
-0.146629
-0.12681
-0.117036
-0.102194
-0.0973076
-0.0972397
-0.102081
-0.091923
-0.0518778
0.0830544
0.252851
0.44767
0.637511
0.762534
0.752624
0.607737
0.342783
0.02276
-0.302376
-0.517602
-0.537715
-0.447828
-0.402806
-0.242738
-0.187715
-0.14767
-0.117806
-0.083077
-0.0683033
-0.0934617
-0.0834617
-0.0883712
-0.0983938
-0.0984164
-0.103643
-0.0839368
-0.0692081
-0.0443439
-0.0543439
-0.0542534
-0.0591176
-0.0790045
-0.0789819
-0.0440951
-0.0342761
-0.0292987
-0.0292308
-0.024163
-0.0390046
-0.043801
-0.0337331
-0.0387557
-0.0339367
-0.00407249
0.00585973
0.0109954
0.00124425
-0.00348431
0.00174195
0.0017873
0.0266968
0.0516516
0.0616968
0.0567873
0.0570362
0.0623304
0.0575792
0.0627375
0.0928732
0.112873
0.132896
0.147986
0.153145
0.168394
0.178597
0.168778
0.198914
0.239004
0.274118
0.304366
0.299796
0.310339
0.320905
0.33147
0.347036
0.377556
0.403167
0.428937
0.439706
0.440452
0.431176
0.431855
0.407443
0.417919
0.398281
0.403484
0.353733
0.33405
0.264434
0.224683
0.199819
0.164864
0.139774
0.134547
0.104434
0.0644796
0.02457
0.00468314
-0.030249
-0.0452716
-0.0404752
-0.0457242
-0.0508372
-0.0658147
-0.0706564
-0.100543
-0.100408
-0.105362
-0.0853169
-0.0800907
-0.0642309
-0.0674889
-0.0598644
-0.0913351
-0.0823305
-0.0784165
-0.0651586
-0.0581903
-0.04767
-0.0335749
-0.0454527
-0.0473758
-0.0588917
-0.070249
-0.0658599
-0.071335
-0.0516064
-0.0317196
-0.0365613
-0.0413576
-0.0562672
-0.0611315
-0.0510409
-0.0610862
-0.0361766
-0.0262898
-0.0463125
-0.0612219
-0.0610862
-0.0760408
-0.0861089
-0.0812445
-0.0716065
-0.0519912
-0.0472627
-0.0725115
-0.087851
-0.0831676
-0.0934392
-0.108779
-0.0941405
-0.0843893
-0.0646155
-0.084774
-0.0796382
-0.104367
-0.114027
-0.113711
-0.0984393
-0.0931452
-0.0727831
-0.0872855
-0.0866746
-0.0858828
-0.100091
-0.114276
-0.10853
-0.102851
-0.10215
-0.0812899
-0.090317
-0.0941857
-0.0979414
-0.106742
-0.0955659
-0.0844346
-0.0733261
-0.0570816
-0.0606337
-0.063982
-0.0825568
-0.0916744
-0.0914481
-0.0919459
-0.0729414
-0.0589594
-0.0643213
-0.0735522
-0.0663576
-0.0678056
-0.0832354
-0.0732129
-0.0634165
-0.0492762
-0.0455658
-0.0222172
-0.0291176
-0.0414706
-0.0541855
-0.0476018
-0.0264254
-0.0204072
-0.00957012
0.00628948
-0.0128281
-0.032059
-0.0315385
-0.0362217
-0.0311087
-0.0261991
-0.00640261
-0.00153846
-0.0116967
-0.0318552
-0.0470815
-0.0323757
-0.0379187
-0.0234617
-0.014095
-0.0146607
-0.0201584
-0.0455205
-0.0458599
-0.0562671
-0.0369006
-0.027602
-0.0282807
-0.00891417
-0.00954771
-0.0201132
-0.0205882
-0.0311313
-0.03181
-0.0226244
-0.0285521
-0.0045023
-0.0104525
-0.0163348
-0.0421042
-0.0379639
-0.0388463
-0.0399549
-0.0362217
-0.0175793
-0.00895941
-0.010249
-0.0115386
-0.0230093
-0.00970608
-0.00156128
0.0214251
0.0292758
0.0570812
0.0599092
0.0678052
0.0706559
0.0933029
0.0857463
0.0781218
0.0754296
0.0726467
0.0549545
0.0423527
0.0298866
-0.00757945
-0.0300003
-0.0424663
-0.0499776
-0.0473759
-0.0495478
-0.0665613
-0.0732355
-0.0748192
-0.10629
-0.112647
-0.118937
-0.100204
-0.0913805
-0.0922854
-0.0980319
-0.103484
-0.118982
-0.12948
-0.115046
-0.0956564
-0.0761089
-0.0814935
-0.081765
-0.0869461
-0.0971271
-0.0173759
0.0972847
0.251855
0.421448
0.541063
0.560814
0.445701
0.220588
-0.0696837
-0.36
-0.585362
-0.695815
-0.64629
-0.526675
-0.421991
-0.362308
-0.302489
-0.252828
-0.193258
-0.108801
-0.0592764
-0.0496383
-0.0449324
-0.075136
-0.0852944
-0.0905433
-0.0759279
-0.0712898
-0.0466518
-0.0369686
-0.02724
-0.0373306
-0.0373306
-0.0423984
-0.0426246
-0.0329639
-0.00825793
-0.0085746
0.0062443
0.0112218
0.00122184
-0.0137782
-0.0239366
-0.00414026
0.0105657
0.030362
0.0252715
0.0252715
0.0303847
0.0255657
0.0207013
0.0256788
0.0555883
0.0754525
0.0903847
0.100362
0.0955431
0.100724
0.0958598
0.11086
0.110815
0.145792
0.175792
0.205815
0.20095
0.206222
0.216516
0.236697
0.271833
0.307014
0.327285
0.347715
0.363258
0.368914
0.374548
0.390249
0.410905
0.441652
0.462353
0.468077
0.473824
0.469615
0.460317
0.45095
0.431516
0.426855
0.412081
0.412262
0.387557
0.352919
0.323303
0.26862
0.233824
0.208982
0.183982
0.153937
0.133846
0.118891
0.0640724
0.0292534
-0.0156335
-0.0156109
-0.0207239
-0.0108823
-0.0109276
-0.0358372
-0.040611
-0.05543
-0.0602264
-0.0651132
-0.0550906
-0.0547286
-0.0438011
-0.0471042
-0.0495929
-0.0564707
-0.0683033
-0.0707241
-0.0441856
-0.0290046
-0.0250906
-0.027172
-0.0196607
-0.0369231
-0.0436879
-0.0450227
-0.0561087
-0.0319232
-0.0275341
-0.0178056
-0.0277151
-0.0323531
-0.0419459
-0.0515386
-0.0463125
-0.046222
-0.0361767
-0.041041
-0.0457921
-0.0503849
-0.0549098
-0.0743442
-0.088937
-0.0836203
-0.0683714
-0.0581678
-0.0529189
-0.0525795
-0.0672854
-0.0919007
-0.0965387
-0.101267
-0.0912671
-0.0814256
-0.0714934
-0.0715386
-0.0864029
-0.106245
-0.111177
-0.126018
-0.125905
-0.0907693
-0.0855883
-0.0751585
-0.0794572
-0.0936652
-0.11276
-0.116855
-0.110928
-0.105023
-0.0890498
-0.0930543
-0.09681
-0.0953169
-0.0987332
-0.117195
-0.120679
-0.0941857
-0.0926246
-0.0858373
-0.093869
-0.10172
-0.114457
-0.107195
-0.0950001
-0.0977604
-0.0805432
-0.073258
-0.0659503
-0.0738463
-0.0773756
-0.0867648
-0.0821946
-0.0785522
-0.0752264
-0.0615159
-0.056697
-0.055362
-0.0823532
-0.0882581
-0.0890499
-0.0853848
-0.0626473
-0.0505432
-0.0437785
-0.03724
-0.0309052
-0.0397742
-0.0588013
-0.0581678
-0.0476701
-0.0323985
-0.0171497
-0.0169234
-0.0266518
-0.0362899
-0.0460863
-0.0409506
-0.0459279
-0.0310183
-0.0211315
-0.0161766
-0.0261087
-0.0409504
-0.0508146
-0.0658825
-0.0560861
-0.0414255
-0.0368327
-0.026991
-0.0370816
-0.0421269
-0.0621948
-0.0622172
-0.0523983
-0.042715
-0.0380769
-0.0385068
-0.0336877
-0.0488462
-0.0440271
-0.0542761
-0.0545928
-0.0500226
-0.0406561
-0.0212218
-0.0168779
-0.0224887
-0.0431224
-0.0538011
-0.0596156
-0.0705658
-0.0467649
-0.0281223
-0.0194797
-0.0108371
-0.0121946
-0.00859743
-9.06587e-05
-0.00676489
0.00128943
0.00920796
0.0521265
0.0749545
0.0728503
0.080769
0.0585971
0.0462442
0.0637554
0.0461989
0.0485971
0.0359954
0.0285973
0.00124437
-0.0409049
-0.0480316
-0.0651583
-0.072285
-0.0742533
-0.0760633
-0.0776922
-0.0840271
-0.105204
-0.131267
-0.122217
-0.118167
-0.10905
-0.0948867
-0.0904297
-0.105882
-0.111154
-0.131425
-0.136697
-0.122104
-0.102466
-0.107783
-0.0880314
-0.0832124
-0.0582577
0.00669706
0.151561
0.346403
0.571109
0.765837
0.825611
0.720453
0.470498
0.120521
-0.249457
-0.514683
-0.575
-0.485384
-0.335814
-0.23104
-0.181176
-0.156267
-0.141289
-0.116289
-0.0964477
-0.0768096
-0.082149
-0.0773978
-0.0725336
-0.0725562
-0.0725787
-0.0927145
-0.0829181
-0.0732575
-0.063529
-0.0437554
-0.0438685
-0.0489363
-0.0739363
-0.0839589
-0.0841172
-0.0442982
-0.0245923
-0.00981861
0.000113487
-0.0298412
-0.0297282
-0.0346603
-0.0296603
-0.0298186
-0.0100901
0.0147515
0.0246609
0.0297061
-0.000271261
-0.000226021
0.0147514
0.0197514
0.0296383
0.0444799
0.0793667
0.0693668
0.0895251
0.0897288
0.0898871
0.0949325
0.11991
0.144842
0.179751
0.199819
0.205045
0.220272
0.230543
0.245747
0.265951
0.291131
0.326312
0.351652
0.347037
0.37767
0.373371
0.379095
0.399729
0.425249
0.435724
0.446312
0.441878
0.442625
0.433326
0.428982
0.394435
0.384593
0.369729
0.349797
0.30991
0.280068
0.245272
0.19543
0.15552
0.125453
0.100317
0.0952038
0.0601133
0.045068
0.00515854
-0.0146831
-0.0496379
-0.0596606
-0.0698642
-0.0549999
-0.0601358
-0.0600905
-0.0800452
-0.0799322
-0.104842
-0.0996153
-0.0892081
-0.0881674
-0.0662669
-0.0632125
-0.0642985
-0.0700678
-0.0963348
-0.0838233
-0.0829185
-0.0587782
-0.050769
-0.042941
-0.0346153
-0.0605881
-0.0711312
-0.0765159
-0.0868326
-0.0871266
-0.0623076
-0.0373981
-0.0423076
-0.0521945
-0.0621039
-0.0719909
-0.071923
-0.056923
-0.0519683
-0.0319909
-0.0419456
-0.0567873
-0.0665611
-0.0663348
-0.0762217
-0.0812443
-0.0663348
-0.0714706
-0.0614027
-0.0661765
-0.0858597
-0.105475
-0.110385
-0.110339
-0.100453
-0.0856108
-0.0607693
-0.0758371
-0.0807919
-0.105747
-0.100815
-0.101131
-0.101584
-0.101923
-0.0871945
-0.0773529
-0.0823755
-0.0971493
-0.111991
-0.116742
-0.111448
-0.106041
-0.100565
-0.0949094
-0.0990496
-0.107964
-0.121719
-0.110498
-0.109208
-0.0928732
-0.0864931
-0.0699771
-0.0733482
-0.0964478
-0.094389
-0.102398
-0.0903167
-0.0932804
-0.0613346
-0.0542758
-0.0520586
-0.0547283
-0.0623301
-0.0949998
-0.0926468
-0.0855654
-0.0638686
-0.0378504
-0.0376015
-0.0380993
-0.054208
-0.0657012
-0.076923
-0.0674207
-0.0567872
-0.040045
-0.0473075
-0.0392305
-0.036493
-0.0344795
-0.0480769
-0.0572624
-0.0467647
-0.036674
-0.0166515
-0.0369003
-0.022104
-0.0422398
-0.0473756
-0.0426018
-0.0329185
-0.0384162
-0.0139593
-0.00941175
-0.00484169
-0.0351358
-0.0304977
-0.040905
-0.0364254
-0.0171493
-0.0128733
0.00640279
-0.00916284
-0.0296379
-0.0500904
-0.0556108
-0.0462442
-0.0320362
-0.022828
-0.0136877
-0.0144796
-0.0151356
-0.0356561
-0.0462669
-0.0369909
-0.0378959
-0.0288914
-0.0148868
-0.0257918
-0.0216516
-0.0273981
-0.0433032
-0.0392987
-0.0404525
-0.0217421
-0.0181449
-0.0145928
-0.00599557
-0.0124208
-0.0288914
-0.0354525
-0.042285
-0.00938922
-0.00162899
0.0261086
0.0388008
0.0365384
0.0343212
0.031923
0.0393891
0.0665836
0.0887102
0.115814
0.102896
0.089932
0.0720813
0.0542532
0.0313572
0.0333256
0.0302488
0.0171265
-0.0108825
-0.0237106
-0.041335
-0.0638916
-0.0814029
-0.098869
-0.0912899
-0.0935296
-0.0957016
-0.092489
-0.104027
-0.105272
-0.13138
-0.142534
-0.133598
-0.124638
-0.120566
-0.0964708
-0.102104
-0.112579
-0.128077
-0.133643
-0.124231
-0.129978
-0.0807921
-0.00147069
0.112986
0.272534
0.422127
0.536652
0.581086
0.490452
0.294774
-0.00583726
-0.291312
-0.541742
-0.642172
-0.572602
-0.448122
-0.32862
-0.239254
-0.189955
-0.135566
-0.131109
-0.081516
-0.077059
-0.097602
-0.0982356
-0.0989369
-0.0796382
-0.0652717
-0.0508599
-0.0612671
-0.0666516
-0.0769911
-0.0624887
-0.0579865
-0.04362
-0.0292308
-0.0196381
-0.0199775
-0.0301811
-0.040498
-0.0359278
-0.0114483
-0.0119686
0.012511
0.00710374
0.0118097
-0.00341654
-0.00866532
-0.0138916
0.000746369
0.015339
0.0450224
0.0546604
0.0543889
0.0492305
0.0440495
0.0388458
0.0635969
0.0681897
0.0927825
0.122398
0.137104
0.141945
0.146855
0.146742
0.166583
0.181312
0.221018
0.260701
0.285543
0.290543
0.310701
0.315973
0.331222
0.35638
0.381516
0.416674
0.436968
0.442421
0.448145
0.458778
0.449366
0.454842
0.465226
0.480498
0.47586
0.481176
0.461538
0.426765
0.386945
0.376991
0.361923
0.341765
0.316538
0.286448
0.271357
0.20138
0.151357
0.101289
0.0661764
0.0508596
0.0304297
0.0150903
-0.000113308
-0.0102038
-0.040136
-0.0701586
-0.0652717
-0.0555205
-0.0608147
-0.0611088
-0.0463124
-0.0712444
-0.080792
-0.074819
-0.0831448
-0.0658598
-0.0580317
-0.0500453
-0.0474435
-0.0507014
-0.0702941
-0.0661539
-0.0781222
-0.0756561
-0.0578959
-0.0645701
-0.0507692
-0.0464479
-0.0569005
-0.0620589
-0.0722399
-0.0621495
-0.0471495
-0.0472625
-0.0373983
-0.0325114
-0.0375793
-0.0525793
-0.0675794
-0.0677151
-0.0729866
-0.0684391
-0.0639143
-0.0444347
-0.0448645
-0.0702264
-0.080498
-0.0907469
-0.0809506
-0.076222
-0.076403
-0.0813804
-0.0712899
-0.0809506
-0.0955432
-0.100113
-0.0947061
-0.0993667
-0.0890273
-0.0886201
-0.0980093
-0.0871269
-0.0961314
-0.105181
-0.109344
-0.0985973
-0.092896
-0.0721041
-0.0662444
-0.0701584
-0.068914
-0.0925792
-0.101312
-0.0850905
-0.078914
-0.067647
-0.0663801
-0.0651809
-0.0642533
-0.0887783
-0.0941403
-0.105294
-0.102081
-0.0838461
-0.0803846
-0.0751809
-0.0733258
-0.0797511
-0.105045
-0.0901356
-0.0857012
-0.0720134
-0.0638461
-0.0559501
-0.0680994
-0.0553166
-0.0726016
-0.0650451
-0.0627148
-0.0455656
-0.0384842
-0.0314705
-0.0295248
-0.0477148
-0.0460181
-0.0693891
-0.0531448
-0.0522172
-0.0414932
-0.020905
-0.0054298
-0.0150452
-0.0346833
-0.0543891
-0.0642307
-0.0492534
-0.0395249
-0.0247964
-0.0199999
-0.0102035
-0.0353845
-0.0455428
-0.0507917
-0.0511762
-0.0466061
-0.0321038
-0.0376016
-0.0280541
-0.0334614
-0.0388685
-0.0442532
-0.0498188
-0.0554749
-0.0312667
-0.027036
-0.0277373
-0.0134386
-0.0391174
-0.0397735
-0.0506558
-0.0417192
-0.0529863
-0.0292532
-0.0254749
-0.0217646
-0.0280994
-0.0194116
-0.0208595
-0.00755638
0.0104979
0.033439
0.0613123
0.0792083
0.0920815
0.0850226
0.0829638
0.0707467
0.0633937
0.0409275
0.043484
0.0262669
0.00418538
-0.012715
-0.0444345
-0.0660408
-0.0676471
-0.0791403
-0.07043
-0.0765386
-0.0773983
-0.108009
-0.138507
-0.153892
-0.144208
-0.124593
-0.109955
-0.105159
-0.100294
-0.110249
-0.135091
-0.13991
-0.144751
-0.124797
-0.109887
-0.0999322
-0.0998417
-0.0847058
-0.0295023
0.0707693
0.195996
0.385995
0.580928
0.725837
0.735747
0.710792
0.350995
0.0211764
-0.338643
-0.58353
-0.623688
-0.508778
-0.353892
-0.233937
-0.163891
-0.138778
-0.128733
-0.108665
-0.0937332
-0.0788236
-0.0788915
-0.0738689
-0.073801
-0.0787331
-0.0735974
-0.0785973
-0.0786426
-0.0638689
-0.0440499
-0.0491178
-0.0540726
-0.0438011
-0.0434617
-0.0531676
-0.0530544
-0.0330317
-0.0230317
0.00203621
0.00719452
0.00253391
-0.00203609
-0.00660622
0.00362003
-0.0012669
0.0188236
0.0339367
0.0391404
0.0544345
0.0497739
0.0451584
0.0454526
0.0356787
0.0558145
0.0809729
0.101131
0.101471
0.106878
0.10233
0.11276
0.113054
0.153371
0.188643
0.223937
0.234185
0.23957
0.255
0.27552
0.275928
0.301357
0.341765
0.382285
0.407896
0.418665
0.41957
0.430611
0.436652
0.437602
0.448529
0.469389
0.485294
0.491131
0.447036
0.417919
0.37362
0.344253
0.309706
0.295045
0.265452
0.225815
0.181177
0.136584
0.0820363
0.0473304
0.0324209
0.00739831
0.0124436
0.00260192
-0.0220361
-0.0316516
-0.051199
-0.0707918
-0.0806561
-0.0756335
-0.0556561
-0.0555656
-0.050362
-0.0750453
-0.0746155
-0.0891629
-0.103507
-0.0924662
-0.0659504
-0.0536201
-0.0553395
-0.0463802
-0.0523305
-0.0783712
-0.0660408
-0.0653169
-0.0611766
-0.0330997
-0.0402943
-0.0369005
-0.0427829
-0.0580544
-0.0680544
-0.0679638
-0.0629412
-0.0527829
-0.0425567
-0.04724
-0.0518779
-0.0564707
-0.0510861
-0.0657693
-0.0554526
-0.0451586
-0.0298191
-0.0244119
-0.0488462
-0.0633032
-0.0928281
-0.092466
-0.0921946
-0.0720814
-0.071991
-0.0767874
-0.076448
-0.0860634
-0.110724
-0.125588
-0.115611
-0.0957014
-0.0807691
-0.0808144
-0.0856335
-0.100294
-0.104864
-0.119389
-0.118937
-0.103484
-0.0929186
-0.0773303
-0.0865384
-0.0905656
-0.104389
-0.113167
-0.122014
-0.100905
-0.0947962
-0.0986875
-0.0972848
-0.0906786
-0.0888234
-0.0919455
-0.095045
-0.108145
-0.0862442
-0.0793211
-0.0722623
-0.0799772
-0.0775111
-0.0849546
-0.0823301
-0.0897285
-0.0723075
-0.055294
-0.0488234
-0.0430768
-0.0580315
-0.0636197
-0.0744794
-0.0854071
-0.0658368
-0.0652939
-0.0544569
-0.0464252
-0.0575111
-0.053597
-0.0403165
-0.0527825
-0.0609275
-0.0546151
-0.0386197
-0.0278278
-0.0322623
-0.0366966
-0.066131
-0.0657691
-0.0754975
-0.0753392
-0.0403843
-0.0204749
-0.0154749
-0.0203617
-0.030158
-0.0450449
-0.0700903
-0.0602713
-0.0505426
-0.0358595
-0.016063
-0.00613087
-0.0211535
-0.0261761
-0.0362214
-0.0414022
-0.0417868
-0.0171263
-0.0274657
-0.0378277
-0.0179861
-0.0330993
-0.0383029
-0.0536649
-0.0441399
-0.0397282
-0.0152259
-0.0256783
-0.0261307
-0.0315155
-0.0419453
-0.0475335
-0.0431897
-0.033959
-0.0297508
-0.03052
-0.0412893
-0.0421038
-0.0579408
-0.0589816
-0.0501807
-0.0166966
0.00171971
0.0251133
0.0285523
0.0218555
0.000113308
0.0132356
0.0261993
0.0638915
0.0914481
0.0990047
0.101674
0.0893894
0.0570591
0.0347062
0.0171496
0.0195931
0.0168329
0.0090726
-0.0185517
-0.0359727
-0.0631899
-0.0803165
-0.107375
-0.119412
-0.101357
-0.0981674
-0.0897285
-0.0911085
-0.117308
-0.128348
-0.149253
-0.145091
-0.14586
-0.131516
-0.112127
-0.117557
-0.122873
-0.133122
-0.133371
-0.128665
-0.134027
-0.129389
-0.0797513
0.0149093
0.134683
0.30457
0.479502
0.634321
0.69905
0.66862
0.528212
0.267896
0.172647
-0.347579
-0.557738
-0.588009
-0.488394
-0.368801
-0.264254
-0.199706
-0.165136
-0.135498
-0.110747
-0.105996
-0.116313
-0.0967649
-0.0872626
-0.082851
-0.0583714
-0.0587108
-0.0739143
-0.0790048
-0.0991632
-0.074412
-0.0648646
-0.035385
-0.0308601
-0.0361995
-0.0514031
-0.0564936
-0.0564936
-0.0616296
-0.0518785
-0.03215
-0.0174441
-0.0175799
-0.0176477
-0.00771564
-0.0228287
-0.0378512
-0.0129643
0.0168322
0.0265833
0.0413796
0.0211987
0.0162214
0.026244
0.0212666
0.026244
0.0560402
0.0658594
0.0957236
0.0857915
0.0908594
0.100927
0.125927
0.135905
0.155724
0.17552
0.215452
0.230588
0.235746
0.24604
0.276402
0.281629
0.311742
0.336923
0.372194
0.387602
0.398258
0.393914
0.399638
0.410249
0.410701
0.441063
0.436357
0.466674
0.467081
0.452444
0.41776
0.387964
0.357964
0.337806
0.317647
0.287444
0.247308
0.212308
0.177353
0.132285
0.0971269
0.0718781
0.056516
0.0361767
0.00588268
-0.0192758
-0.0392757
-0.0592531
-0.0694115
-0.079615
-0.0698639
-0.0650675
-0.0652711
-0.0754295
-0.065339
-0.074796
-0.0937552
-0.0970358
-0.0845697
-0.0664702
-0.0380539
-0.0496603
-0.0469001
-0.0602711
-0.0540268
-0.0651807
-0.0573074
-0.0346376
-0.0215154
-0.027805
-0.0385968
-0.0390493
-0.0393207
-0.0545244
-0.0596602
-0.0498412
-0.0500901
-0.0402936
-0.0304294
-0.0455878
-0.0505879
-0.060701
-0.0807915
-0.0710856
-0.0614929
-0.0318097
-0.0421717
-0.0424657
-0.0627599
-0.0781218
-0.0836196
-0.0941625
-0.0796604
-0.0601355
-0.0654975
-0.0657237
-0.100837
-0.0907916
-0.100588
-0.100384
-0.100158
-0.095045
-0.079751
-0.0842305
-0.0836423
-0.0829183
-0.10224
-0.111584
-0.110973
-0.105384
-0.0747962
-0.0840722
-0.0882125
-0.122194
-0.116244
-0.115294
-0.109389
-0.103439
-0.0823979
-0.0762668
-0.0949997
-0.103688
-0.0876242
-0.0921491
-0.102307
-0.078122
-0.0744794
-0.0757238
-0.0811763
-0.0704749
-0.0934386
-0.080045
-0.0857012
-0.0660179
-0.0566288
-0.0528731
-0.0494115
-0.0462215
-0.0631445
-0.0552034
-0.0676242
-0.0553843
-0.0333934
-0.0115382
-0.0347282
-0.0329183
-0.0261762
-0.0497056
-0.0484838
-0.0224658
-0.0267871
-0.0162667
-0.0108821
-0.0105202
-0.0202487
-0.0350677
-0.0500679
-0.0602488
-0.0256109
-0.0259728
-0.016448
-0.0218101
-0.0271267
-0.0323756
-0.0377376
-0.0430543
-0.0335069
-0.0140724
-0.00470591
0.00968325
0.00414038
-0.0212895
-0.0217872
-0.0323529
-0.0430769
-0.0338461
-0.0297285
-0.0156108
-0.0163574
-0.0270135
-0.0326697
-0.0434842
-0.0493665
-0.035362
-0.0265158
-0.012828
-0.00907236
-0.000384569
-0.00667417
0.00194579
-0.00968319
0.0135747
-0.00834841
0.0295927
0.0325339
0.035543
0.0536652
0.0666516
0.0694796
0.0771493
0.0896381
0.0921494
0.0795475
0.0671267
0.0498416
0.0375566
0.0252715
-0.012172
-0.0495703
-0.0419458
-0.0642083
-0.0562445
-0.0730544
-0.094638
-0.101063
-0.117376
-0.128688
-0.129932
-0.111154
-0.112127
-0.107896
-0.108326
-0.128733
-0.13414
-0.129683
-0.125226
-0.105634
-0.0909956
-0.101335
-0.101425
-0.111448
-0.0816289
-0.0118778
0.122964
0.272715
0.447421
0.572217
0.577195
0.427217
0.207195
-0.0728732
-0.363009
-0.57819
-0.648394
-0.573552
-0.43362
-0.33862
-0.283597
-0.228688
-0.198869
-0.134163
-0.0945247
-0.0697736
-0.0698642
-0.079819
-0.0998869
-0.114977
-0.0951357
-0.0753394
-0.0656334
-0.0357918
-0.0359275
-0.0309049
-0.0407918
-0.0406786
-0.0507011
-0.0358369
-0.0160632
0.00368804
-0.00637978
0.00868803
-0.00615352
-0.0109952
-0.0259048
-0.0109499
-0.0111082
0.00884658
0.0138692
0.0240502
0.0292311
0.0295253
0.0297742
0.02991
0.0450457
0.0651135
0.0800909
0.0951588
0.105295
0.100566
0.0958149
0.0910185
0.116109
0.131086
0.156064
0.176177
0.206335
0.201629
0.216991
0.222331
0.252647
0.292964
0.31319
0.343507
0.353756
0.364208
0.359751
0.365294
0.385928
0.421561
0.43715
0.462806
0.45362
0.46948
0.445272
0.436064
0.431788
0.432353
0.432851
0.433168
0.418394
0.393733
0.343982
0.299276
0.264548
0.224661
0.199774
0.199752
0.164684
0.149684
0.0948194
0.0550004
0.0101361
-0.00475079
-0.00977343
-0.0149092
-0.00995433
-0.0399317
-0.0447959
-0.0445697
-0.0793435
-0.0891625
-0.0740493
-0.068891
-0.0734385
-0.0572848
-0.0554521
-0.0477372
-0.0794566
-0.0861534
-0.0785516
-0.0570584
-0.0668548
-0.0479181
-0.0549316
-0.0522393
-0.0692076
-0.0855424
-0.0914474
-0.0671034
-0.0676239
-0.038031
-0.0380763
-0.0529179
-0.0676011
-0.0772843
-0.0770354
-0.0718771
-0.0518771
-0.0668319
-0.0466509
-0.0513342
-0.0608817
-0.085497
-0.100203
-0.100067
-0.0799994
-0.0700446
-0.0650221
-0.0699089
-0.0747052
-0.104615
-0.11457
-0.119683
-0.109886
-0.0851803
-0.0653387
-0.095384
-0.100248
-0.115045
-0.104773
-0.114434
-0.109072
-0.108665
-0.108235
-0.102692
-0.0919905
-0.101086
-0.110068
-0.124004
-0.117963
-0.1169
-0.095882
-0.0797734
-0.0835517
-0.097149
-0.0956784
-0.109027
-0.117443
-0.100814
-0.0991853
-0.0874658
-0.075588
-0.068597
-0.071425
-0.0741853
-0.087036
-0.080045
-0.0784387
-0.0619229
-0.0464025
-0.0515835
-0.0723754
-0.0787103
-0.0750224
-0.0857691
-0.0853392
-0.0583482
-0.0497509
-0.0402939
-0.0508143
-0.0619455
-0.0587781
-0.0562216
-0.0641174
-0.0474206
-0.0509726
-0.034683
-0.0333709
-0.0471944
-0.0560631
-0.0652487
-0.0496604
-0.0443437
-0.0341401
-0.0138913
-0.0286877
-0.0384163
-0.0432805
-0.0481901
-0.0581675
-0.0483938
-0.0436879
-0.0239593
-0.0191178
-0.0393441
-0.0394573
-0.0595703
-0.0596834
-0.0600227
-0.0553622
-0.0307468
-0.0261089
-0.0364934
-0.0417423
-0.0469911
-0.04724
-0.0476698
-0.0481901
-0.0487558
-0.0242309
-0.0196834
-0.0349097
-0.0402264
-0.0507694
-0.0514483
-0.0472854
-0.0481677
-0.0290273
-0.0198192
-0.0306789
-0.0514708
-0.0523531
-0.0383486
-0.0146609
0.00893646
0.0224206
0.0359501
0.0344795
0.0330089
0.0314252
0.0447058
0.0677148
0.0855428
0.098303
0.100973
0.0837556
0.0566289
0.0342985
0.0219004
0.0143664
0.00171942
-0.00599557
-0.0186651
-0.0262896
-0.0388688
-0.0563123
-0.0886651
-0.100995
-0.103303
-0.105656
-0.117738
-0.114525
-0.111041
-0.12224
-0.138303
-0.134389
-0.145407
-0.13638
-0.132376
-0.128077
-0.118665
-0.114095
-0.119299
-0.129503
-0.134729
-0.104955
-0.0752491
0.0145473
0.0543664
0.309366
0.479412
0.639479
0.749412
0.759276
0.609118
0.338869
-0.011335
-0.36638
-0.55638
-0.561403
-0.441493
-0.311674
-0.226901
-0.172127
-0.117444
-0.102579
-0.0927378
-0.097783
-0.102874
-0.1081
-0.0934166
-0.0837787
-0.0690503
-0.0592086
-0.0743669
-0.0693443
-0.0793895
-0.0796385
-0.074842
-0.0600682
-0.0403624
-0.0355886
-0.0257016
-0.045679
-0.0356337
-0.0456564
-0.0457695
-0.0409731
-0.026154
-0.0362898
-0.0214028
-0.00631237
-0.0111993
-0.021154
-0.0261767
-0.0212445
0.00361991
0.00850672
0.0134614
0.0185294
0.013733
-0.00604075
0.0140498
0.0490271
0.0639593
0.0889366
0.0989819
0.099095
0.104299
0.104615
0.109864
0.124932
0.139977
0.185068
0.190339
0.215701
0.226199
0.236765
0.242308
0.262828
0.288303
0.318801
0.349434
0.360204
0.391063
0.392036
0.392896
0.408529
0.41905
0.434525
0.47
0.475453
0.470928
0.461425
0.451878
0.427195
0.417353
0.402376
0.387308
0.382263
0.327308
0.262399
0.222579
0.167783
0.132806
0.12267
0.107534
0.0823532
0.0772626
0.0272626
0.00233036
-0.0226017
-0.0625792
-0.0575792
-0.0576471
-0.0627376
-0.0626698
-0.0774208
-0.0817195
-0.105837
-0.0988235
-0.106109
-0.0927376
-0.0789141
-0.065068
-0.0518327
-0.0597512
-0.0691857
-0.075249
-0.0672174
-0.0692987
-0.0658598
-0.0568101
-0.057353
-0.0476245
-0.0726243
-0.0724886
-0.0823981
-0.0724208
-0.0574886
-0.0476017
-0.0475792
-0.0524886
-0.072285
-0.0620361
-0.0819003
-0.0818551
-0.0469003
-0.0619908
-0.0621266
-0.0571718
-0.0620814
-0.0820361
-0.0919909
-0.0922398
-0.0976018
-0.0780995
-0.07862
-0.0840046
-0.0942082
-0.0943666
-0.114389
-0.114389
-0.109412
-0.0993667
-0.0942987
-0.0790951
-0.0836427
-0.0980997
-0.122511
-0.127036
-0.126561
-0.111154
-0.0906562
-0.0899321
-0.099095
-0.1081
-0.121991
-0.120973
-0.135
-0.129072
-0.108122
-0.102081
-0.095905
-0.109525
-0.103077
-0.116606
-0.115068
-0.10871
-0.10267
-0.0920588
-0.081923
-0.0873076
-0.0981221
-0.104095
-0.124525
-0.114095
-0.0874434
-0.0803167
-0.076018
-0.0760633
-0.0760859
-0.0816514
-0.0927827
-0.0843211
-0.0612216
-0.038597
-0.0362893
-0.0242079
-0.0272396
-0.045294
-0.0635971
-0.0771719
-0.0759954
-0.0451356
-0.0244343
-0.0188233
-0.018303
-0.0278732
-0.0424433
-0.0523301
-0.0423981
-0.0276243
-0.0280091
-0.0234162
-0.0238008
-0.0291855
-0.039525
-0.0499321
-0.0504751
-0.0461765
-0.0319231
-0.0177376
-0.00843894
-0.00407237
-0.0195927
-0.0351357
-0.0508371
-0.0466062
-0.0375112
-0.0184614
-0.014389
-0.0202712
-0.0261084
-0.0319454
-0.0378504
-0.0539138
-0.0351129
-0.0163798
-0.0126694
-0.00891376
-0.0251128
-0.0313571
-0.0427598
-0.0444114
-0.0362214
-0.0132576
-0.0053165
0.00269258
0.0155433
0.00832605
-0.00393635
0.00862014
0.0159732
0.0581676
0.090317
0.107398
0.109616
0.0818328
0.0540047
0.0310862
0.0130997
0.020068
0.0170816
-0.0107465
-0.0234388
-0.0509049
-0.0831222
-0.100226
-0.107308
-0.0794343
-0.0864027
-0.0932353
-0.0947964
-0.111063
-0.122172
-0.133213
-0.149163
-0.130203
-0.116199
-0.107217
-0.108145
-0.113823
-0.129434
-0.13
-0.140633
-0.121289
-0.127104
-0.0779182
-0.00361967
0.110747
0.240181
0.384684
0.509186
0.553598
0.462987
0.272149
0.00140285
-0.0891401
-0.559593
-0.689977
-0.660475
-0.535973
-0.416561
-0.33733
-0.268077
-0.188733
-0.129231
-0.0947284
-0.0851582
-0.0856333
-0.086312
-0.0920586
-0.0778731
-0.0636197
-0.0641628
-0.0544795
-0.0497962
-0.055113
-0.0605655
-0.0411311
-0.0267645
-0.0173075
-0.022692
-0.0129862
-0.0182351
-0.0234613
-0.0337555
-0.0341628
-0.00970578
-0.00024873
0.014344
0.0190273
0.00389147
-0.00119901
-0.01638
-0.00167418
0.0229186
0.0274435
0.0520137
0.0716742
0.0665159
0.0614253
0.061267
0.0610633
0.0857466
0.0954525
0.125113
0.129864
0.144751
0.149728
0.149728
0.159638
0.189412
0.22405
0.268688
0.298416
0.303281
0.323281
0.343326
0.358416
0.373462
0.408439
0.433462
0.458507
0.468801
0.479299
0.469955
0.470724
0.476222
0.486516
0.501742
0.491946
0.482127
0.45233
0.432534
0.387624
0.347534
0.31733
0.297036
0.281719
0.241583
0.211493
0.166402
0.121312
0.0861309
0.0607916
0.0303616
0.0348412
0.0244114
0.0140947
-0.00108641
-0.0362448
-0.0463805
-0.0516973
-0.0519462
-0.0423308
-0.022625
-0.0228965
-0.0429417
-0.0525571
-0.0566974
-0.0602268
-0.0631454
-0.0505435
-0.0477155
-0.0152946
-0.0237334
-0.0433489
-0.0583263
-0.075453
-0.0582584
-0.0659733
-0.0581453
-0.0347289
-0.0359281
-0.0366746
-0.0520594
-0.0522404
-0.0573081
-0.0524666
-0.0276927
-0.032851
-0.0331677
-0.0483487
-0.0634166
-0.0935524
-0.0887107
-0.0890048
-0.0695025
-0.0600907
-0.0555885
-0.065973
-0.0862897
-0.106561
-0.111719
-0.116878
-0.107081
-0.0923756
-0.0725793
-0.072534
-0.097285
-0.101878
-0.12638
-0.125995
-0.100656
-0.0904071
-0.0800225
-0.0795021
-0.0838913
-0.0930766
-0.112126
-0.121221
-0.11043
-0.104706
-0.083959
-0.0931219
-0.0971944
-0.0960631
-0.104841
-0.118665
-0.117511
-0.11138
-0.0851808
-0.0638911
-0.0626467
-0.0715606
-0.0760177
-0.0962214
-0.0972621
-0.094072
-0.0912893
-0.0882802
-0.0841851
-0.0786648
-0.0864928
-0.0927598
-0.103054
-0.118371
-0.0791625
-0.0555199
-0.0572394
-0.0641173
-0.0462892
-0.0485743
-0.0711761
-0.0539589
-0.0370132
-0.0402937
-0.0336195
-0.0320131
-0.0404068
-0.0540268
-0.0578502
-0.0569001
-0.0512665
-0.0257914
-0.0154294
-0.0102031
-0.00986385
-0.0195698
-0.0394114
-0.0443209
-0.054502
-0.0298188
-0.0451354
-0.025407
-0.025588
-0.0356333
-0.0357012
-0.0559728
-0.0462895
-0.051742
-0.0421718
-0.0326923
-0.0381899
-0.0386651
-0.0389818
-0.0493891
-0.0599774
-0.0556787
-0.0365158
-0.027285
-0.0230995
-0.0338234
-0.0394118
-0.0700905
-0.0708371
-0.0567874
-0.0478733
-0.0190498
-0.0052489
-0.0213574
0.00746614
-0.00875562
-0.0201358
-0.00676465
0.00635761
0.039457
0.0773757
0.0903394
0.0883259
0.0763123
0.069163
0.0519006
0.0343666
0.0267422
0.0290499
0.0363802
0.0138236
-0.0186651
-0.0561312
-0.0786198
-0.0961537
-0.0887104
-0.086199
-0.0833257
-0.100294
-0.106991
-0.123507
-0.144887
-0.156154
-0.152353
-0.133575
-0.119525
-0.125249
-0.120769
-0.131222
-0.146561
-0.161946
-0.137308
-0.127715
-0.1231
-0.128417
-0.118462
-0.0734619
0.00658339
0.156629
0.326561
0.531357
0.721176
0.826018
0.79095
0.585905
0.295882
-0.0440727
-0.379209
-0.584367
-0.589638
-0.485023
-0.355181
-0.265181
-0.215204
-0.160295
-0.145453
-0.105702
-0.0860637
-0.0713125
-0.0615162
-0.0816972
-0.0867651
-0.101788
-0.0918556
-0.0770818
-0.0723533
-0.04767
-0.0479415
-0.048032
-0.0480773
-0.0679415
-0.0678737
-0.0478284
-0.0479642
-0.0231451
-0.00332612
-0.00832611
-0.0183035
-0.0281904
-0.0380998
-0.0330773
-0.00809985
-0.00823563
0.0167191
0.00667387
0.0217643
0.0269001
0.0220585
0.0171716
0.0272395
0.0471491
0.0570812
0.0720812
0.0772396
0.0824432
0.0726922
0.0679184
0.0879863
0.102941
0.132873
0.162805
0.177828
0.188032
0.193371
0.203665
0.214027
0.234276
0.27448
0.299796
0.310113
0.350656
0.361448
0.36733
0.373077
0.393801
0.399457
0.440045
0.455565
0.466086
0.471719
0.462421
0.468054
0.463484
0.443642
0.448688
0.428755
0.413891
0.359072
0.334276
0.284434
0.244502
0.209434
0.174185
0.138914
0.13371
0.0836424
0.0386876
0.0137556
-0.0112445
-0.041335
-0.0315161
-0.0468102
-0.0518554
-0.0567876
-0.0666971
-0.101516
-0.0913351
-0.101018
-0.110362
-0.0890275
-0.0770366
-0.0790728
-0.0752265
-0.0858827
-0.0816519
-0.0784166
-0.0865388
-0.0562447
-0.0624438
-0.0544348
-0.0514483
-0.068032
-0.0839369
-0.0844799
-0.0798419
-0.0500455
-0.0351812
-0.0350454
-0.0448191
-0.0395024
-0.049118
-0.0688465
-0.0786428
-0.0785522
-0.0584843
-0.053326
-0.0430545
-0.0476926
-0.0622628
-0.0618104
-0.096471
-0.0813125
-0.0862673
-0.0661767
-0.0610409
-0.0708374
-0.0855432
-0.105249
-0.105091
-0.100181
-0.095498
-0.0858374
-0.0810183
-0.0911767
-0.0960637
-0.115883
-0.115656
-0.125498
-0.115317
-0.105136
-0.0797287
-0.0941178
-0.103349
-0.117421
-0.116471
-0.120498
-0.124548
-0.0936654
-0.0976474
-0.0915387
-0.0752491
-0.0838238
-0.0922175
-0.105611
-0.10905
-0.0925116
-0.0809278
-0.0792763
-0.0873985
-0.0703396
-0.0832582
-0.0960183
-0.0987784
-0.0666744
-0.0696608
-0.058258
-0.0574661
-0.0572851
-0.0627375
-0.08362
-0.0893891
-0.0944797
-0.0783258
-0.0506787
-0.0417421
-0.056991
-0.0572851
-0.0582353
-0.0550452
-0.0573983
-0.0402942
-0.0235747
-0.0021494
-0.00590509
-0.0148191
-0.0237105
-0.0327829
-0.0421269
-0.021629
-0.0112897
-0.00610864
0.00411761
-0.0257466
-0.0406336
-0.0404979
-0.0654978
-0.0557467
-0.0409276
-0.0361539
-0.0364479
-0.0115384
-0.0216063
-0.026742
-0.0319231
-0.0422171
-0.0275565
-0.0179411
-0.00834823
-0.0136424
-0.0439817
-0.0442533
-0.0345021
-0.0549546
-0.0455654
-0.0362442
-0.0168098
-0.0172396
-0.0376243
-0.0379862
-0.0434388
-0.0489817
-0.0446379
-0.035407
-0.0263119
-0.0123074
-0.0182124
-0.0392304
-0.0352259
-0.0513797
-0.0577825
-0.0343661
-0.0161082
0.0071497
0.0152945
0.0034619
0.011584
0.00954789
0.00228554
0.019842
0.0623986
0.0999325
0.107353
0.0948645
0.0874212
0.0499098
0.0223306
0.0246157
0.0418102
0.0289822
0.0213804
-0.0210178
-0.0481219
-0.0751355
-0.0971264
-0.0990494
-0.100882
-0.107489
-0.0989137
-0.110022
-0.116018
-0.126764
-0.12733
-0.152828
-0.143371
-0.128959
-0.114525
-0.114932
-0.110181
-0.120384
-0.135565
-0.130701
-0.125995
-0.116403
-0.0818098
-0.0570587
0.0977377
0.237647
0.412647
0.567534
0.672308
0.651855
0.491448
0.221109
-0.114072
-0.419163
-0.594299
-0.604525
-0.474864
-0.340249
-0.245656
-0.176063
-0.131403
-0.101538
-0.0964932
-0.0965836
-0.106697
-0.116946
-0.102262
-0.0925792
-0.082828
-0.0779639
-0.0779865
-0.0729412
-0.0730769
-0.0832806
-0.0635973
-0.0439366
-0.0491855
-0.0493438
-0.0445249
-0.0696154
-0.0645702
-0.0546607
-0.0447512
-0.0348869
-0.0250453
-0.0150679
-0.0199549
-0.0147285
-0.00957012
-0.0145928
-0.0147286
0.0151357
0.034932
0.0498415
0.0298415
0.0299772
0.0351808
0.0302261
0.0402486
0.065226
0.0801355
0.0850676
0.10509
0.125158
0.125407
0.155611
0.160701
0.190724
0.230633
0.270566
0.270656
0.28586
0.306222
0.321629
0.336946
0.362217
0.397466
0.417737
0.418122
0.42871
0.459547
0.450452
0.446289
0.452081
0.462647
0.473099
0.49362
0.489276
0.449955
0.415633
0.376108
0.34147
0.326561
0.296493
0.276493
0.221538
0.176674
0.136878
0.107081
0.0571718
0.032104
0.00703615
0.00687766
0.00176454
-0.0082128
-0.0280997
-0.0529188
-0.0628057
-0.0777377
-0.0727829
-0.0528961
-0.0428961
-0.0478281
-0.0525793
-0.0671494
-0.0810408
-0.0992987
-0.0718779
-0.0487784
-0.0152262
-0.0266742
-0.0437557
-0.0620588
-0.0569004
-0.0431448
-0.0452036
-0.0274207
-0.0240496
-0.019932
-0.0254297
-0.0255881
-0.055475
-0.0753166
-0.0501582
-0.0551129
-0.0351355
-0.0302486
-0.0403392
-0.0353844
-0.0503619
-0.0703393
-0.0754297
-0.0656106
-0.0658595
-0.0412441
-0.0615609
-0.0717645
-0.0768322
-0.0668776
-0.0869002
-0.0920359
-0.0721264
-0.077149
-0.0719228
-0.076493
-0.0909274
-0.110271
-0.124683
-0.114117
-0.10362
-0.0780314
-0.0673979
-0.071606
-0.0856104
-0.0944793
-0.103461
-0.117511
-0.101606
-0.095769
-0.0898414
-0.0787328
-0.0775337
-0.0862893
-0.0849319
-0.108574
-0.102285
-0.0959499
-0.0747056
-0.0637102
-0.0730766
-0.0829635
-0.0885971
-0.0998187
-0.101176
-0.0920812
-0.0718322
-0.0649996
-0.0714476
-0.0715833
-0.0662666
-0.0762892
-0.0769227
-0.0681897
-0.0596377
-0.0416059
-0.0386874
-0.0457915
-0.0528956
-0.0650223
-0.0673299
-0.0598639
-0.0576693
-0.0206557
-0.00366479
-0.0167869
-0.0249544
-0.048348
-0.0519906
-0.0609047
-0.0399997
-0.0143663
-0.013846
-0.0184162
-0.0178279
-0.0323075
-0.0369003
-0.0516287
-0.0316288
-0.0317193
-0.0218777
-0.00196803
-0.0219907
-0.0269454
-0.0319002
-0.0469455
-0.0421265
-0.0424885
-0.0179411
-0.0132577
-0.00841612
-0.0284387
-0.0485971
-0.0489364
-0.0444342
-0.0400224
-0.0356333
-0.0112441
-0.0117645
-0.0423076
-0.0329184
-0.0386423
-0.0544568
-0.0355202
-0.0317193
-0.00798625
-0.00434375
0.0043214
0.0130093
0.0115162
0.00495499
0.00828075
0.0313578
0.0543894
0.0673305
0.0853849
0.0884392
0.0814256
0.0443668
0.0371948
0.0350229
0.0327379
0.0254754
0.0184392
-0.0284159
-0.0651355
-0.0867417
-0.0983255
-0.0898413
-0.0813798
-0.0626014
-0.0885744
-0.0992531
-0.104683
-0.129954
-0.145339
-0.140656
-0.126018
-0.11138
-0.101538
-0.111606
-0.126538
-0.131357
-0.136154
-0.141063
-0.120995
-0.105995
-0.0859727
-0.0608368
0.0244799
0.144842
0.300136
0.465408
0.610589
0.660724
0.575837
0.335996
0.011222
-0.333461
-0.603144
-0.702873
-0.617669
-0.452624
-0.322624
-0.287579
-0.167443
-0.13224
-0.117036
-0.0968548
-0.0967642
-0.0966964
-0.0817642
-0.0617417
-0.0566965
-0.0664476
-0.0711083
-0.0808594
-0.0857236
-0.0756558
-0.0555652
-0.0455652
-0.0354295
-0.0351354
-0.0397508
-0.074321
-0.063959
-0.0486875
-0.0384612
-0.00330293
0.00705904
0.00744367
-0.00208127
0.00350696
-0.000995338
-0.00561082
0.00970602
0.024887
0.0501357
0.0504525
0.0459502
0.0315158
0.0320814
0.0474887
0.0678055
0.0830771
0.108394
0.128779
0.129254
0.12991
0.140566
0.161018
0.181493
0.201855
0.227127
0.237534
0.278009
0.29362
0.309276
0.30991
0.340566
0.361199
0.371765
0.407421
0.413213
0.444186
0.420249
0.446357
0.442443
0.443507
0.464389
0.475226
0.481109
0.472036
0.442986
0.398914
0.374638
0.345181
0.325588
0.290927
0.28138
0.221878
0.177466
0.137941
0.0933255
0.0536873
0.064004
0.0391398
0.0393208
0.0246149
-0.00495517
-0.0194801
-0.0439597
-0.0585751
-0.063213
-0.047919
-0.0426928
-0.0523533
-0.0518782
-0.0713125
-0.0905886
-0.0895479
-0.0830773
-0.0859053
-0.0679641
-0.0642537
-0.0554076
-0.0518782
-0.0444348
-0.0585298
-0.0691633
-0.0660411
-0.0533713
-0.0352718
-0.0314483
-0.0370139
-0.052376
-0.0522176
-0.0518782
-0.0565162
-0.046109
-0.0557244
-0.0303398
-0.0448874
-0.0492766
-0.0585073
-0.0628511
-0.0573534
-0.0419461
-0.0516068
-0.0611994
-0.0506791
-0.0600683
-0.0695254
-0.0890728
-0.103733
-0.0886881
-0.0836428
-0.0785524
-0.0784392
-0.103213
-0.107987
-0.117828
-0.122693
-0.122466
-0.102195
-0.0919686
-0.0766065
-0.0860635
-0.100272
-0.114412
-0.123507
-0.117715
-0.101878
-0.100996
-0.0899548
-0.0937104
-0.10224
-0.115701
-0.129118
-0.127579
-0.111041
-0.104457
-0.082828
-0.0760633
-0.0840949
-0.092104
-0.0948868
-0.0976696
-0.0804976
-0.0733483
-0.0661764
-0.0539139
-0.0666968
-0.0697058
-0.0833257
-0.0876696
-0.078009
-0.0691176
-0.0706561
-0.0670362
-0.0625566
-0.0716968
-0.0792533
-0.0853165
-0.0806785
-0.0760179
-0.0670587
-0.0538234
-0.0460407
-0.0586424
-0.0564705
-0.0547963
-0.0535067
-0.0424207
-0.0415385
-0.0557466
-0.0298868
-0.0340497
-0.0432127
-0.0575565
-0.0570813
-0.0767194
-0.061561
-0.0614932
-0.0514252
-0.0412443
-0.0459728
-0.0607917
-0.0606334
-0.0706561
-0.0558596
-0.0311085
-0.0312895
-0.0365156
-0.0616062
-0.0416967
-0.0568097
-0.056855
-0.0420133
-0.0472621
-0.042624
-0.0429182
-0.0531896
-0.0483706
-0.053529
-0.0638006
-0.059253
-0.0647508
-0.0553164
-0.0458819
-0.0414476
-0.0421037
-0.0426466
-0.0583254
-0.0890946
-0.0750222
-0.0461308
-0.0373525
-0.0285743
-0.0348639
-0.041244
-0.0527146
-0.0293888
-0.0112213
0.00681031
0.034661
0.0425795
0.0454754
0.0483713
0.056222
0.0638917
0.0764935
0.0689369
0.0513351
0.0338011
0.0363351
0.0190725
-0.0080089
-0.0401357
-0.0572397
-0.0743213
-0.0662894
-0.0780543
-0.0745701
-0.0908824
-0.121968
-0.147873
-0.143756
-0.154638
-0.145588
-0.136312
-0.12681
-0.117127
-0.127217
-0.147217
-0.14233
-0.152466
-0.13767
-0.112919
-0.108009
-0.0830543
-0.0830317
-0.0629185
0.0221041
0.162104
0.351923
0.546697
0.741516
0.831448
0.796448
0.626493
0.331516
-0.0135744
-0.353778
-0.53905
-0.589298
-0.459525
-0.329683
-0.249751
-0.199841
-0.16
-0.110181
-0.0704297
-0.0656787
-0.0658146
-0.0859277
-0.0910635
-0.111086
-0.111131
-0.0862672
-0.0765386
-0.066697
-0.046878
-0.0419685
-0.0470589
-0.0570138
-0.0719458
-0.0619233
-0.0570816
-0.0372627
-0.0174437
-0.00751156
-0.0173984
-0.0122401
-0.027059
-0.0269911
-0.0169232
-0.0319685
-0.00201386
0.00305402
0.0181671
0.00828034
0.0184839
0.0186197
0.0187328
0.0388686
0.0638912
0.0739139
0.0889366
0.0840271
0.0941854
0.104389
0.10457
0.119683
0.134661
0.159525
0.194457
0.224593
0.239796
0.24509
0.255384
0.285588
0.320679
0.34586
0.356221
0.381719
0.382398
0.393145
0.398891
0.409547
0.425181
0.435769
0.461493
0.46724
0.452986
0.458756
0.42457
0.400226
0.400701
0.380995
0.361199
0.326357
0.286606
0.246855
0.202172
0.162398
0.117421
0.102262
0.0871267
0.0869458
0.0368327
0.00183266
-0.0330541
-0.0629862
-0.0779636
-0.0630992
-0.0682802
-0.0584838
-0.0534837
-0.0734159
-0.0781898
-0.0879408
-0.0976919
-0.0924656
-0.0918548
-0.0656556
-0.0585515
-0.0555199
-0.0665833
-0.0771942
-0.077986
-0.0645697
-0.0475788
-0.0321262
-0.0282124
-0.0351127
-0.0421489
-0.0536648
-0.0645924
-0.0551807
-0.0556105
-0.0508819
-0.0359046
-0.0356784
-0.0504521
-0.0552487
-0.0651808
-0.0653166
-0.0656106
-0.0559275
-0.0411988
-0.06638
-0.081493
-0.0866288
-0.0867645
-0.107013
-0.102511
-0.0980994
-0.0736424
-0.0690722
-0.0793663
-0.0895021
-0.104502
-0.114457
-0.124298
-0.124095
-0.103891
-0.0936651
-0.0934162
-0.102919
-0.117398
-0.11181
-0.131267
-0.125634
-0.115045
-0.124412
-0.108688
-0.102715
-0.106674
-0.110588
-0.11457
-0.118529
-0.112557
-0.0965611
-0.0804978
-0.0842987
-0.0829412
-0.0964252
-0.0998416
-0.108484
-0.112602
-0.097285
-0.082534
-0.0782805
-0.099276
-0.11009
-0.120023
-0.123846
-0.116244
-0.08819
-0.0682577
-0.0430316
-0.0532352
-0.0589591
-0.0700904
-0.0866061
-0.0884161
-0.0657465
-0.0484614
-0.0363574
-0.0293438
-0.0323528
-0.040475
-0.0488007
-0.057398
-0.0513121
-0.035475
-0.0198641
-0.0192759
-0.0187782
-0.0232352
-0.0378731
-0.0527147
-0.0327826
-0.033054
-0.018416
-0.00366497
-0.00889111
-0.0391173
-0.0292984
-0.0596378
-0.040045
-0.0406107
-0.0162442
-0.0169455
-0.00757909
-0.0180089
-0.0284162
-0.0338234
-0.0444115
-0.0402261
-0.0360405
-0.0168777
-0.0226921
-0.023416
-0.02914
-0.0498866
-0.0357916
-0.0368098
-0.0329185
-0.0191175
-0.0153167
-0.0215384
-0.0377375
-0.0340723
-0.0305655
-0.0222172
0.0159277
0.0290048
0.0320364
0.0450003
0.0330092
0.02586
0.0485749
0.0511314
0.0685749
0.110883
0.113145
0.110407
0.0878057
0.0752492
0.0576248
0.0349325
0.0121045
-0.0108367
-0.0388006
-0.0416512
-0.0392531
-0.0616288
-0.0888233
-0.0909726
-0.0930993
-0.0950902
-0.107036
-0.0987554
-0.110158
-0.111448
-0.142511
-0.148439
-0.144298
-0.135136
-0.130973
-0.106787
-0.112443
-0.112964
-0.128303
-0.138575
-0.138891
-0.124298
-0.059751
0.0497513
0.184186
0.338778
0.483462
0.563236
0.532919
0.362557
0.117059
-0.188529
-0.284072
-0.689434
-0.739728
-0.634819
-0.495045
-0.400362
-0.330769
-0.261312
-0.181923
-0.122443
-0.0828732
-0.0830994
-0.0983031
-0.108597
-0.10405
-0.0845247
-0.0600902
-0.0455654
-0.04095
-0.0511989
-0.0464025
-0.056674
-0.0670134
-0.0574431
-0.0429409
-0.0283707
-0.0237327
-0.0339363
-0.044072
-0.0342305
-0.0395019
-0.0247961
-0.0152712
0.00941205
0.0141632
0.0340953
0.0190954
-0.0007689
-0.00079155
-0.000859439
0.0240274
0.0588465
0.0536655
0.0686202
0.0787786
0.0738464
0.0788464
0.0788238
0.108665
0.123598
0.13353
0.16353
0.163643
0.173824
0.18396
0.21396
0.233914
0.263914
0.299005
0.314254
0.324661
0.350113
0.355634
0.366086
0.381448
0.411901
0.437308
0.447874
0.463688
0.46957
0.465543
0.461267
0.466901
0.472466
0.487941
0.503281
0.498597
0.473801
0.439095
0.399366
0.359547
0.339525
0.319457
0.294412
0.264389
0.219457
0.159525
0.124615
0.0896604
0.0645247
0.0443662
0.0341626
0.0289817
0.018846
-0.0110636
-0.0259957
-0.0509505
-0.0710184
-0.0611542
-0.0563352
-0.0513578
-0.0510864
-0.0402266
-0.0586881
-0.0614935
-0.0738012
-0.0707921
-0.0678736
-0.0457018
-0.0296836
-0.035023
-0.0507469
-0.053213
-0.0810184
-0.0683939
-0.0601586
-0.0565161
-0.0475568
-0.0382355
-0.0384618
-0.0433939
-0.0781903
-0.0779866
-0.0629414
-0.0379413
-0.0429639
-0.0328735
-0.0476246
-0.0522627
-0.066946
-0.0767196
-0.0616066
-0.0516064
-0.0467649
-0.0468553
-0.0418553
-0.0567649
-0.0766743
-0.0766969
-0.0769231
-0.0821719
-0.0675567
-0.0578734
-0.0729865
-0.087896
-0.102715
-0.117466
-0.13733
-0.112217
-0.112081
-0.106855
-0.101357
-0.0956333
-0.119774
-0.143733
-0.127737
-0.111855
-0.11095
-0.0999547
-0.10371
-0.102353
-0.110882
-0.119298
-0.127783
-0.121289
-0.104819
-0.088122
-0.0913346
-0.0994341
-0.0922621
-0.110045
-0.112873
-0.110656
-0.103439
-0.0862893
-0.079321
-0.062692
-0.0767418
-0.0865834
-0.0973074
-0.118687
-0.0853842
-0.0763345
-0.07595
-0.073778
-0.0597283
-0.0695925
-0.0644794
-0.0800676
-0.066493
-0.0632803
-0.040769
-0.0285066
-0.0314478
-0.0345248
-0.0627148
-0.0511311
-0.0648868
-0.0538461
-0.0429637
-0.0421946
-0.026561
-0.0208144
-0.025113
-0.0495023
-0.049095
-0.0438461
-0.033733
-0.0286877
-0.0185747
-0.0384614
-0.0383031
-0.0580769
-0.0729185
-0.0629864
-0.0281222
-0.0182805
-0.0284388
-0.0336199
-0.0236651
-0.0285971
-0.0385971
-0.0587782
-0.0339818
-0.0243437
-0.0196605
-0.0149773
-0.0152262
-0.0254978
-0.0457014
-0.0509956
-0.0414255
-0.0420589
-0.022783
-0.0234618
-0.0140953
-0.0197061
-0.0303171
-0.0411088
-0.0270364
-0.0180773
0.010701
0.0245473
0.0484161
0.0422169
0.0359047
0.0295246
0.0328956
0.046063
0.0791399
0.0921264
0.115022
0.112986
0.0759951
0.0538911
0.0366286
0.0391853
0.0466061
0.0289366
0.0214025
-0.001041
-0.038326
-0.0555433
-0.0926247
-0.119729
-0.101901
-0.0838011
-0.0854528
-0.106901
-0.133055
-0.14405
-0.159842
-0.155498
-0.141154
-0.126742
-0.112217
-0.132489
-0.132557
-0.127602
-0.152647
-0.147647
-0.12776
-0.112873
-0.107941
-0.0829414
-0.0278056
0.0773754
0.252692
0.437986
0.648122
0.79819
0.86319
0.693258
0.403371
0.0135069
-0.386289
-0.611131
-0.611086
-0.481086
-0.331176
-0.291221
-0.176244
-0.141131
-0.115905
-0.110679
-0.115543
-0.110588
-0.0956334
-0.0857918
-0.0858371
-0.085837
-0.0758144
-0.110679
-0.105543
-0.0955204
-0.0805884
-0.0606109
-0.0555883
-0.060362
-0.0650452
-0.0596833
-0.0644795
-0.0792987
-0.0542759
-0.0242986
-0.0142308
-0.0240045
-0.0236425
-0.0182806
-0.0279412
-0.0376019
-0.0273303
-0.00212663
0.00305432
0.0133711
0.0187784
0.0291857
0.019638
0.0349774
0.030249
0.0504299
0.0755656
0.0857919
0.106086
0.111539
0.126991
0.117398
0.127738
0.152964
0.178145
0.188394
0.218778
0.219321
0.224955
0.245702
0.271425
0.292082
0.33267
0.358303
0.379118
0.400113
0.416245
0.417489
0.418666
0.429616
0.450498
0.476245
0.492082
0.493009
0.488801
0.469661
0.44043
0.430973
0.406358
0.386539
0.376629
0.331901
0.292308
0.24776
0.1931
0.153235
0.108371
0.0683033
0.0583259
0.0334616
0.0138011
-0.0157917
-0.0454524
-0.0551808
-0.0649546
-0.0698866
-0.0647735
-0.0695699
-0.0793436
-0.0890269
-0.103552
-0.107918
-0.121877
-0.130068
-0.102443
-0.0938005
-0.0944567
-0.069796
-0.065882
-0.0681897
-0.08233
-0.0633934
-0.0554748
-0.0475336
-0.0489817
-0.0497282
-0.0552033
-0.0651806
-0.0800901
-0.0849996
-0.0698866
-0.0598413
-0.0497282
-0.0394793
-0.0541399
-0.05371
-0.0583254
-0.0679861
-0.0628955
-0.042805
-0.0476466
-0.0573751
-0.0620132
-0.0966964
-0.111515
-0.111425
-0.0964024
-0.0915383
-0.0767193
-0.081855
-0.0918776
-0.0919455
-0.112013
-0.122081
-0.122081
-0.112104
-0.102217
-0.0971718
-0.1119
-0.11647
-0.125882
-0.120203
-0.124502
-0.0988914
-0.0932579
-0.0925566
-0.08681
-0.0958145
-0.109728
-0.123416
-0.122104
-0.100792
-0.089525
-0.0732127
-0.0718325
-0.0702715
-0.0885746
-0.0917647
-0.0949321
-0.0931674
-0.0913575
-0.0795022
-0.0675113
-0.0704073
-0.0932806
-0.0964028
-0.110023
-0.109367
-0.0946153
-0.080543
-0.0864931
-0.0719457
-0.0862895
-0.094276
-0.0758823
-0.0914028
-0.0864706
-0.0669683
-0.0430316
-0.0297511
-0.0318552
-0.049276
-0.0571041
-0.0653847
-0.0588915
-0.0376923
-0.046629
-0.0158145
-0.030136
-0.0394571
-0.0688012
-0.0684391
-0.0732582
-0.0583034
-0.043439
-0.0336201
-0.0388011
-0.0390047
-0.0291631
-0.0443894
-0.0546834
-0.035136
-0.0207015
-0.016335
-0.0119458
-0.0274209
-0.0328734
-0.0383486
-0.0438462
-0.0643668
-0.0499322
-0.0255884
-0.0261766
-0.0316969
-0.0371947
-0.0427829
-0.0633938
-0.0591178
-0.0399548
-0.0159277
-0.0169232
-0.00787342
-0.0187784
-0.0346155
-0.0454752
-0.0665386
-0.057783
-0.0391405
-0.020611
-0.0171044
-0.0235296
-0.0351586
-0.0369008
-0.0237106
-0.000814676
0.0119455
0.0294569
0.0569681
0.0494568
0.0619456
0.0643662
0.081674
0.0688459
0.0658143
0.05276
0.0446378
0.0516062
0.0237328
-0.00416303
-0.0370591
-0.0650002
-0.0830092
-0.0809503
-0.0737557
-0.0662218
-0.0885296
-0.0805658
-0.112421
-0.124253
-0.155996
-0.15276
-0.139321
-0.140656
-0.141742
-0.132579
-0.148281
-0.168937
-0.164661
-0.170362
-0.151109
-0.141719
-0.127308
-0.137783
-0.123122
-0.103462
-0.0290046
0.100385
0.274774
0.47414
0.623575
0.6381
0.54767
0.32733
0.0418779
-0.263688
-0.509231
-0.629909
-0.56552
-0.450973
-0.331289
-0.266561
-0.206923
-0.162443
-0.103099
-0.0988461
-0.0895249
-0.100045
-0.0904976
-0.100792
-0.111199
-0.131697
-0.0873755
-0.0780543
-0.0587556
-0.0493213
-0.0497059
-0.0549773
-0.0453393
-0.0608144
-0.0562896
-0.0518552
-0.0323756
-0.0127602
-0.0130543
-0.0283031
-0.0334389
-0.0337104
-0.0340272
-0.00945705
-0.0049547
-0.000497758
0.00411767
0.0088914
0.00375563
0.00855201
0.0282806
0.0329411
0.0524886
0.0670813
0.0817873
0.0816516
0.0865158
0.0864705
0.0813574
0.0961538
0.12586
0.165475
0.185113
0.199932
0.209932
0.215
0.255022
0.27
0.279796
0.309638
0.324638
0.379706
0.394955
0.405407
0.420814
0.431289
0.446697
0.477149
0.502556
0.497986
0.513416
0.503846
0.479412
0.489728
0.474864
0.479864
0.484706
0.474524
0.439434
0.389389
0.359479
0.299479
0.264479
0.24923
0.213891
0.203461
0.158054
0.12776
0.0824655
0.042194
0.0119225
0.00153792
-0.00391459
-0.0143897
-0.00984222
-0.0401589
-0.0454078
-0.0605661
-0.080815
-0.0860186
-0.0661317
-0.0559281
-0.0701135
-0.063462
-0.0608827
-0.0626701
-0.074367
-0.0765164
-0.0646612
-0.0491408
-0.0400005
-0.0319009
-0.0492991
-0.0714259
-0.0830774
-0.0842087
-0.0700684
-0.0557019
-0.0361317
-0.0262675
-0.0363579
-0.051358
-0.0764033
-0.0814937
-0.0717427
-0.0620367
-0.0526023
-0.0529642
-0.0532131
-0.0683487
-0.093394
-0.108552
-0.0939597
-0.0694574
-0.060091
-0.0556566
-0.0761544
-0.0864936
-0.091652
-0.096833
-0.117082
-0.102376
-0.0975797
-0.0776476
-0.067489
-0.0771949
-0.0967652
-0.10629
-0.125838
-0.115385
-0.10491
-0.0944123
-0.0888242
-0.0930775
-0.0972404
-0.106313
-0.105408
-0.114571
-0.108756
-0.102942
-0.0919462
-0.0908377
-0.0845481
-0.103055
-0.121584
-0.130091
-0.12362
-0.12215
-0.0808603
-0.0749779
-0.0846159
-0.0849326
-0.105725
-0.122127
-0.118779
-0.120385
-0.100905
-0.0900685
-0.0876477
-0.0886204
-0.0936204
-0.0933716
-0.108553
-0.0744575
-0.0558603
-0.0526929
-0.0396612
-0.0467653
-0.0590955
-0.0567199
-0.0746611
-0.0728059
-0.0612448
-0.0348196
-0.0234394
-0.0321724
-0.0309961
-0.0400231
-0.0392766
-0.0437788
-0.0334847
-0.0233942
-0.028349
-0.0182811
-0.0282359
-0.0381227
-0.0431453
-0.0482359
-0.03853
-0.0339824
-0.0344802
-0.0298648
-0.0351137
-0.0454303
-0.050747
-0.0410638
-0.0465841
-0.0371498
-0.0378058
-0.0284393
-0.0289598
-0.0443896
-0.0547968
-0.0503397
-0.0410638
-0.0368104
-0.032738
-0.023643
-0.0244348
-0.0301588
-0.0358148
-0.0466067
-0.0475343
-0.0287561
-0.0050683
-0.00644827
0.0321715
0.0307689
0.0142983
0.00773722
-0.0040502
0.0188684
0.0666286
0.0943887
0.107126
0.094909
0.0826466
0.0652258
0.0427144
0.0450675
0.0423526
0.0444793
0.021719
-0.0110185
-0.0386204
-0.0661091
-0.0935751
-0.101064
-0.0935524
-0.101041
-0.103281
-0.0902493
-0.107037
-0.123575
-0.129978
-0.13629
-0.132512
-0.113688
-0.109797
-0.115656
-0.141335
-0.136833
-0.137218
-0.162557
-0.142942
-0.138417
-0.128914
-0.0893442
-0.0346383
0.0653391
0.210339
0.375294
0.535136
0.684864
0.749502
0.754231
0.524004
0.238868
-0.0811315
-0.411222
-0.631358
-0.671584
-0.586878
-0.452263
-0.332444
-0.252557
-0.217647
-0.182715
-0.142874
-0.113145
-0.0933713
-0.0788238
-0.0743216
-0.0796609
-0.0848418
-0.0949549
-0.0851586
-0.0853848
-0.065679
-0.0559957
-0.0513576
-0.0365839
-0.0367649
-0.0468102
-0.0518329
-0.0619234
-0.0620591
-0.0523306
-0.0226249
-0.00780576
-0.00285095
-0.0078283
-0.0277606
-0.0277606
-0.0228738
-0.0230095
0.0169679
0.0118775
0.0268775
0.0319681
0.0221039
0.0122622
0.0173302
0.0323075
0.052285
0.0473302
0.0873755
0.0975112
0.0877827
0.0930316
0.0882352
0.108416
0.123439
0.163439
0.178597
0.203937
0.214321
0.229864
0.24543
0.265882
0.301312
0.341629
0.362104
0.37785
0.408756
0.409706
0.425656
0.441471
0.452104
0.477647
0.488213
0.503778
0.494434
0.495091
0.485611
0.470973
0.456177
0.441199
0.431222
0.411335
0.366493
0.316697
0.286946
0.237059
0.202082
0.177059
0.146991
0.1369
0.112014
0.062172
0.0273078
-0.00273752
-0.0277601
-0.0328053
-0.0430768
-0.0432804
-0.0483256
-0.0582804
-0.0880542
-0.107602
-0.106697
-0.105158
-0.0779184
-0.0699771
-0.0613347
-0.0723303
-0.0782352
-0.0751583
-0.093371
-0.0730995
-0.0693439
-0.0615836
-0.0540045
-0.0561085
-0.0725341
-0.0733712
-0.0787784
-0.07405
-0.0642535
-0.0542988
-0.0642535
-0.0341178
-0.0238464
-0.0485296
-0.0582807
-0.0630319
-0.0529414
-0.0478058
-0.0426926
-0.037489
-0.0321723
-0.0517651
-0.0512901
-0.0858829
-0.0806567
-0.0754531
-0.0754984
-0.050521
-0.050521
-0.0653174
-0.0900686
-0.104865
-0.10982
-0.0999781
-0.0852723
-0.0854986
-0.100634
-0.0906116
-0.100431
-0.120182
-0.119933
-0.124661
-0.119458
-0.109164
-0.103734
-0.108032
-0.102241
-0.1162
-0.135136
-0.129164
-0.123168
-0.122263
-0.0961547
-0.0899104
-0.103372
-0.116788
-0.125046
-0.118281
-0.121517
-0.109752
-0.107897
-0.0909284
-0.0987566
-0.106426
-0.109051
-0.101585
-0.109187
-0.0869014
-0.0598654
-0.0583269
-0.057354
-0.0571504
-0.0727838
-0.0941187
-0.0956571
-0.087173
-0.0772182
-0.0608382
-0.062897
-0.0686889
-0.0790961
-0.0850462
-0.0769016
-0.0594128
-0.0524218
-0.0458382
-0.039526
-0.0284175
-0.0523314
-0.0564038
-0.0556799
-0.0401595
-0.0397975
-0.0345939
-0.00945807
-0.00436771
-0.0341867
-0.0440508
-0.0440056
-0.0391186
-0.0393449
-0.0346842
-0.0249783
-0.0201139
-0.025295
-0.0404307
-0.0556343
-0.0609283
-0.0613129
-0.0468333
-0.0422404
-0.0426702
-0.0431228
-0.0284395
-0.0437336
-0.0541635
-0.0697064
-0.0652946
-0.0459055
-0.0414937
-0.0319461
-0.0324212
-0.0477378
-0.0530772
-0.0436202
-0.0492311
-0.0250229
-0.0259051
-0.0217423
-0.0225343
-0.0383035
-0.0541631
-0.0552039
-0.0413577
-0.0128055
-0.0142761
0.0292307
0.022647
0.0262216
0.00968307
0.0129637
0.0259953
0.0538006
0.0764703
0.10414
0.0918323
0.0695699
0.0722396
0.0298188
0.0273076
0.0296605
0.0118552
0.0140497
-0.00362003
-0.0210634
-0.0634391
-0.0907241
-0.107873
-0.104955
-0.0970364
-0.0989368
-0.085611
-0.112036
-0.128145
-0.154095
-0.150023
-0.160928
-0.156833
-0.142647
-0.128394
-0.128982
-0.119389
-0.124638
-0.139887
-0.135226
-0.125633
-0.111086
-0.0715383
-0.00183249
0.118077
0.268009
0.447896
0.647783
0.792534
0.837172
0.82181
0.481493
0.151267
-0.208869
-0.499027
-0.604299
-0.529661
-0.380068
-0.265452
-0.20586
-0.151154
-0.116448
-0.101652
-0.106787
-0.0971267
-0.102511
-0.093009
-0.0883709
-0.0787103
-0.0689818
-0.0690497
-0.0890722
-0.0842985
-0.0745927
-0.0699095
-0.0652263
-0.0405204
-0.0507239
-0.0607918
-0.045837
-0.0509276
-0.0511312
-0.0414252
-0.0217646
-0.0121492
-0.0173755
-0.00744343
0.00751132
-0.0125791
-0.0176018
-0.00273746
0.0220814
0.0268326
0.0365837
0.0414705
0.0214478
0.0164478
0.0114252
0.0263799
0.0462215
0.0510631
0.0858822
0.115927
0.110973
0.106086
0.106086
0.130928
0.150679
0.175452
0.205339
0.215452
0.225611
0.246018
0.23638
0.261674
0.286855
0.316991
0.352195
0.377602
0.388145
0.398846
0.389479
0.389977
0.420475
0.430724
0.44095
0.476199
0.471493
0.446878
0.407194
0.397375
0.372285
0.347127
0.316878
0.296606
0.261493
0.216425
0.161493
0.116425
0.0861763
0.0657917
0.0452939
0.0347735
0.0193211
-0.00101823
-0.0261767
-0.0663576
-0.0865386
-0.0967876
-0.087172
-0.0775568
-0.0628283
-0.0729867
-0.0879187
-0.107512
-0.111652
-0.100068
-0.0977605
-0.0795703
-0.0707241
-0.0666065
-0.0625793
-0.0700681
-0.0741405
-0.0748193
-0.0618327
-0.0594347
-0.0616971
-0.0632355
-0.0441857
-0.0648192
-0.0602264
-0.0754753
-0.0807468
-0.0610862
-0.0563351
-0.0316291
-0.04681
-0.0518553
-0.0619006
-0.0819457
-0.0871269
-0.0724661
-0.0678734
-0.0632807
-0.0586201
-0.0639142
-0.079163
-0.0995477
-0.100159
-0.0957694
-0.0864933
-0.0822625
-0.0779412
-0.068326
-0.0886201
-0.118914
-0.124186
-0.114299
-0.114412
-0.104525
-0.10448
-0.104254
-0.0988916
-0.108484
-0.123032
-0.11767
-0.112353
-0.122059
-0.101629
-0.0910636
-0.0904527
-0.114593
-0.113643
-0.122783
-0.096946
-0.0762219
-0.0703621
-0.0744345
-0.0833712
-0.102149
-0.110973
-0.120091
-0.114638
-0.0950228
-0.0859956
-0.0724435
-0.0738462
-0.0895025
-0.0939142
-0.0968102
-0.0882128
-0.073688
-0.0638462
-0.0443441
-0.03543
-0.0319685
-0.0535975
-0.0655206
-0.0628508
-0.0454753
-0.02362
-0.0319684
-0.0254074
-0.0138689
-0.0374436
-0.046154
-0.0601811
-0.0545024
-0.0291628
-0.0239819
0.00610852
0.00119913
-0.00880098
-0.0188462
-0.0440046
-0.0393214
-0.0298416
-0.0204977
-0.00626701
-0.00194561
-0.0175566
-0.0280995
-0.0387557
-0.0445475
-0.0254524
-0.0365384
-0.017534
-0.0134616
-0.0143213
-0.0300905
-0.025905
-0.0318553
-0.0128734
-0.0190498
-0.0152262
0.00864261
0.00755668
-0.00359714
-0.0197284
-0.0307918
-0.027104
-0.0285067
-0.0100904
-0.0017646
-0.0133709
-0.00999987
-0.0265609
-0.0532804
-0.0451583
-0.0371718
-0.00954735
0.00296396
0.0205432
0.028077
0.0156111
0.00805444
0.0203847
0.0375113
0.0745023
0.0864253
0.103326
0.110272
0.0972852
0.0492988
0.0363576
0.0283712
0.0302263
0.0071494
-0.0157239
-0.0233935
-0.0459501
-0.0633256
-0.0905428
-0.0926469
-0.0997509
-0.101719
-0.0984613
-0.0999319
-0.116357
-0.127579
-0.133642
-0.154638
-0.145746
-0.131855
-0.132918
-0.108755
-0.114366
-0.109819
-0.115294
-0.12086
-0.101538
-0.0272396
0.0869685
0.261245
0.415588
0.545068
0.564729
0.434367
0.183756
-0.1419
-0.462557
-0.678213
-0.748801
-0.644321
-0.504774
-0.395203
-0.340701
-0.281357
-0.217149
-0.192941
-0.0886649
-0.0692306
-0.0747961
-0.100294
-0.0957917
-0.101448
-0.0771717
-0.0680314
-0.0388234
-0.0344116
-0.0348868
-0.0551809
-0.0455655
-0.0509275
-0.0463799
-0.037104
-0.0328053
-0.0233935
-0.00889128
-0.0192984
-0.0246605
-0.0250677
-0.0105881
0.00377834
0.0081901
0.0427376
0.0322624
0.016923
0.0166967
0.00142527
0.0110859
0.0407917
0.0453845
0.0750678
0.0748188
0.0797284
0.0746605
0.0896606
0.0845473
0.0893438
0.12405
0.148756
0.173575
0.188529
0.193552
0.203575
0.213507
0.233394
0.263077
0.28276
0.342511
0.362466
0.362557
0.377738
0.382919
0.407964
0.428009
0.4581
0.468303
0.483711
0.494299
0.495
0.485656
0.491199
0.491539
0.481833
0.487104
0.467376
0.43276
0.388077
0.373326
0.333507
0.298575
0.278394
0.268213
0.222986
0.177851
0.12276
0.10267
0.0776017
0.0523981
0.0371267
0.0368099
0.0365611
0.0164253
-0.00873297
-0.0387782
-0.0688687
-0.0689818
-0.0591628
-0.0543891
-0.0594795
-0.0492306
-0.0583708
-0.0516514
-0.0692305
-0.0912215
-0.0832351
-0.0409047
-0.0347057
-0.0399319
-0.0365835
-0.0441626
-0.057036
-0.0594116
-0.0612216
-0.047579
-0.0387102
-0.0245699
-0.025045
-0.0254523
-0.0403618
-0.0501581
-0.0599772
-0.0498867
-0.0399545
-0.0350677
-0.0200676
-0.0299545
-0.0497057
-0.0694569
-0.0792984
-0.064321
-0.0794115
-0.0695019
-0.0346151
-0.0346829
-0.0498188
-0.0600677
-0.0653166
-0.070656
-0.0760406
-0.0614253
-0.0465836
-0.0616515
-0.0716288
-0.0763347
-0.086018
-0.105724
-0.0954297
-0.0952261
-0.0998868
-0.0793211
-0.0786651
-0.0977601
-0.126787
-0.10586
-0.12
-0.104072
-0.098122
-0.0870813
-0.0807916
-0.104344
-0.112737
-0.116154
-0.124706
-0.0982577
-0.101764
-0.0801581
-0.068416
-0.0715609
-0.0843437
-0.0972396
-0.0954749
-0.0838234
-0.0634388
-0.0688686
-0.0651809
-0.072036
-0.0788912
-0.104909
-0.10957
-0.0873981
-0.068484
-0.0635971
-0.0586424
-0.0544116
-0.045837
-0.0877601
-0.090113
-0.0778958
-0.0807918
-0.0689819
-0.0372398
-0.0355431
-0.0288236
-0.0473303
-0.0511765
-0.0503168
-0.0695928
-0.0489367
-0.038439
-0.0479866
-0.0525566
-0.0620816
-0.056697
-0.0564934
-0.0514482
-0.0416291
-0.031878
-0.027059
-0.037127
-0.0372401
-0.0572401
-0.0723984
-0.0726473
-0.0730318
-0.0485749
-0.0340953
-0.0343441
-0.0445703
-0.0498418
-0.0600228
-0.0653847
-0.0708598
-0.0564933
-0.0470816
-0.0426698
-0.0432128
-0.0637331
-0.0542309
-0.0597738
-0.0655657
-0.0665159
-0.072534
-0.0335974
-0.0296154
-0.0306562
-0.0466969
-0.047896
-0.0443214
-0.0259504
-0.00769252
0.0154975
0.00861967
0.0166966
0.0147963
0.0327827
0.0655881
0.078303
0.0858143
0.0882578
0.0857239
0.0482577
0.0408595
0.0234387
-0.0040952
-0.021697
-0.0343214
-0.0369233
-0.0342989
-0.0564255
-0.0783938
-0.0950907
-0.121674
-0.138145
-0.124683
-0.115996
-0.11715
-0.128009
-0.143688
-0.164163
-0.174525
-0.184932
-0.165407
-0.13086
-0.121267
-0.121425
-0.126584
-0.126606
-0.131493
-0.151425
-0.106448
-0.0316063
0.00823534
0.293145
0.498213
0.713303
0.863462
0.873575
0.703597
0.413462
0.00825799
-0.386855
-0.596855
-0.611855
-0.46181
-0.311742
-0.22172
-0.161923
-0.11233
-0.102647
-0.0778959
-0.0980318
-0.108009
-0.123032
-0.117919
-0.0880318
-0.0782127
-0.0683485
-0.0785295
-0.0685521
-0.0734615
-0.0683711
-0.0783031
-0.0783709
-0.0634615
-0.0586199
-0.0386651
-0.0236424
-0.0285067
-0.0482805
-0.0430542
-0.0578505
-0.0326922
-0.0077374
0.00221735
0.0122173
0.0123757
-0.00735283
-0.00705874
-0.00185502
-0.0166967
0.0183486
0.0333938
0.0684164
0.0585749
0.0738236
0.0741404
0.0844798
0.0797738
0.0900227
0.130181
0.155362
0.160566
0.180724
0.181131
0.191674
0.207127
0.232489
0.262738
0.287964
0.303371
0.333914
0.334616
0.355317
0.385996
0.411652
0.437308
0.448122
0.48905
0.500023
0.491131
0.492285
0.493258
0.484208
0.5
0.510611
0.506312
0.481923
0.442579
0.388303
0.348959
0.30948
0.284932
0.240113
0.225249
0.195543
0.145905
0.0963123
0.0617422
0.026991
0.00712681
-0.00785053
-0.00282788
-0.01276
-0.032466
-0.0620814
-0.0666967
-0.0763348
-0.0960407
-0.0908144
-0.0857466
-0.0703845
-0.0696154
-0.07362
-0.0863349
-0.0930997
-0.0989367
-0.0891178
-0.0692309
-0.0551585
-0.0424661
-0.0415159
-0.0523078
-0.0540498
-0.0659051
-0.0721042
-0.0576925
-0.0528734
-0.0128282
-0.0224435
-0.0419685
-0.0563576
-0.0609051
-0.0505432
-0.0752491
-0.0449549
-0.034525
-0.043982
-0.0533937
-0.0678055
-0.082172
-0.0916742
-0.0911991
-0.0709729
-0.0607919
-0.0455204
-0.065181
-0.0697738
-0.0843892
-0.0991855
-0.109253
-0.104412
-0.114638
-0.0846606
-0.0844117
-0.0940498
-0.103575
-0.113054
-0.117647
-0.107262
-0.101742
-0.0861539
-0.0902715
-0.0892308
-0.102941
-0.111697
-0.12043
-0.124163
-0.132896
-0.111606
-0.0951584
-0.103529
-0.106787
-0.1
-0.113145
-0.13638
-0.114548
-0.107738
-0.0807922
-0.0686653
-0.086403
-0.09405
-0.101584
-0.104231
-0.0871722
-0.0805207
-0.0593443
-0.0588466
-0.069005
-0.0693896
-0.094729
-0.104525
-0.0990503
-0.0965615
-0.0726247
-0.0525343
-0.0819461
-0.0666294
-0.0719235
-0.0780095
-0.0797742
-0.0670592
-0.0647063
-0.0276248
-0.0307695
-0.0489371
-0.0521724
-0.0605886
-0.0743896
-0.0483941
-0.0426475
-0.0270592
-0.0364711
-0.0258374
-0.0401813
-0.0495931
-0.0492085
-0.0488691
-0.0337108
-0.0236654
-0.00855237
-0.0283713
-0.0431452
-0.0528737
-0.052738
-0.0577605
-0.0478511
-0.0430773
-0.0483036
-0.0383489
-0.0233036
-0.0432585
-0.0532811
-0.0534621
-0.0437337
-0.039073
-0.0243897
-0.0246612
-0.0148875
-0.0399101
-0.0500233
-0.0553852
-0.0408604
-0.0315164
-0.0321046
-0.0278512
-0.0285978
-0.0443445
-0.0451363
-0.0560414
-0.0572178
-0.0336657
-0.0252947
0.0179632
0.0262664
0.0195243
0.00780481
0.0108591
0.0287099
0.0613796
0.0988908
0.121289
0.118687
0.0960402
0.0584837
0.0409272
0.0232801
0.0106103
0.0127824
0.014977
-0.0126022
-0.0449777
-0.0771272
-0.0991408
-0.120996
-0.122806
-0.114548
-0.116132
-0.107534
-0.118756
-0.144638
-0.145272
-0.145883
-0.151426
-0.146901
-0.127353
-0.132851
-0.113123
-0.118236
-0.128168
-0.133032
-0.138032
-0.133055
-0.108258
-0.0234164
0.096561
0.226584
0.401719
0.556855
0.646901
0.646968
0.516833
0.456629
0.011448
-0.318643
-0.558597
-0.658439
-0.603462
-0.493529
-0.358733
-0.264027
-0.189276
-0.149389
-0.11448
-0.109435
-0.119344
-0.134457
-0.144661
-0.109932
-0.100294
-0.0804073
-0.0654299
-0.0803168
-0.0852715
-0.100226
-0.105226
-0.0903168
-0.0854073
-0.0554073
-0.0503167
-0.0601131
-0.069819
-0.064638
-0.0745701
-0.049638
-0.0296832
-0.0247738
-0.00481886
0.000294209
-0.0245474
-0.0342985
-0.0240497
-0.00889122
0.0161088
0.0361088
0.0412445
0.0314028
0.036697
0.0319912
0.02724
0.0373531
0.0723757
0.082421
0.117511
0.112692
0.122987
0.153371
0.163665
0.163846
0.178959
0.223982
0.269027
0.299253
0.32457
0.335181
0.355814
0.36638
0.39681
0.437195
0.462692
0.483394
0.499344
0.505453
0.506606
0.517602
0.518371
0.529027
0.524615
0.550158
0.540747
0.501448
0.462082
0.427511
0.392806
0.357919
0.332919
0.307941
0.263009
0.218122
0.168348
0.113552
0.0736199
0.0587104
0.0386199
0.0285293
0.00846153
-0.00647068
-0.0363802
-0.0661539
-0.0810407
-0.0860406
-0.0761086
-0.0811992
-0.0512217
-0.0660633
-0.0805203
-0.0843437
-0.0876244
-0.0851131
-0.0719908
-0.0735067
-0.0499548
-0.041991
-0.0392535
-0.0585068
-0.0692762
-0.0811993
-0.0785749
-0.0608147
-0.0425567
-0.0336879
-0.0492762
-0.0694345
-0.0744346
-0.0694572
-0.0845704
-0.0598871
-0.0452716
-0.0407466
-0.0359729
-0.0661538
-0.0812445
-0.0964256
-0.0918102
-0.0823758
-0.0880771
-0.0787783
-0.0792534
-0.0996608
-0.104774
-0.119842
-0.125
-0.120181
-0.110227
-0.0902265
-0.0950229
-0.0895703
-0.0890273
-0.118394
-0.132693
-0.142172
-0.126742
-0.126245
-0.100611
-0.0997514
-0.118756
-0.117851
-0.131923
-0.131086
-0.110272
-0.104525
-0.093756
-0.102783
-0.0967425
-0.105521
-0.129344
-0.143145
-0.121878
-0.110996
-0.0957018
-0.086109
-0.092195
-0.108937
-0.121086
-0.143145
-0.139412
-0.129299
-0.107534
-0.0889598
-0.0890729
-0.0939146
-0.104141
-0.109933
-0.116313
-0.0980774
-0.0800683
-0.0672402
-0.0644574
-0.061652
-0.0637787
-0.0808828
-0.0881904
-0.0707018
-0.0685298
-0.0465389
-0.0397062
-0.0429641
-0.0413578
-0.0498645
-0.0635523
-0.0675795
-0.0619234
-0.0665162
-0.0261768
-0.0309052
-0.0306563
-0.040498
-0.0504075
-0.0605433
-0.0408601
-0.0263578
-0.0168781
-0.0173532
-0.0278282
-0.0430998
-0.043507
-0.0640047
-0.0545702
-0.055249
-0.035973
-0.0266517
-0.042353
-0.0429865
-0.0536653
-0.0593892
-0.0553169
-0.0414029
-0.0426246
-0.0188237
-0.0199323
-0.0209957
-0.0470363
-0.0683033
-0.0647286
-0.0262671
-0.0029186
0.0302262
0.0284615
0.0366516
0.0148642
0.013009
0.0108371
0.0435519
0.0709954
0.103416
0.115814
0.108122
0.070475
0.0578506
0.0200678
0.0121493
0.019095
0.0109728
-0.0171041
-0.0399774
-0.0626244
-0.100158
-0.117489
-0.119751
-0.131991
-0.119186
-0.111244
-0.118009
-0.13457
-0.160747
-0.171719
-0.14767
-0.163552
-0.139321
-0.14
-0.130453
-0.125769
-0.135995
-0.141222
-0.146471
-0.141787
-0.137217
-0.122715
-0.0280996
0.101584
0.271403
0.466312
0.656176
0.77595
0.780611
0.615113
0.329593
-0.0257919
-0.39595
-0.646041
-0.681222
-0.576516
-0.4369
-0.302398
-0.217919
-0.158348
-0.11871
-0.0989819
-0.109231
-0.099457
-0.114751
-0.110158
-0.105724
-0.0711539
-0.0666064
-0.0669006
-0.0721042
-0.067353
-0.0876245
-0.0929186
-0.0683711
-0.0538009
-0.0391403
-0.0394344
-0.0444798
-0.049525
-0.0496155
-0.0497287
-0.0300229
-0.0203169
0.00452465
0.00443423
0.004502
-0.000430107
-0.0154527
-0.000611126
0.00416261
0.0138685
0.0336649
0.0435292
0.0435292
0.0435971
0.048597
0.0635518
0.0733935
0.0981672
0.122964
0.142918
0.142873
0.143077
0.153258
0.158393
0.193393
0.208258
0.228099
0.258099
0.288258
0.293642
0.319027
0.319479
0.339796
0.380045
0.390226
0.435656
0.446289
0.462149
0.478076
0.478913
0.474524
0.489999
0.515294
0.53061
0.540972
0.536334
0.501674
0.471877
0.44199
0.401923
0.386719
0.351493
0.326199
0.286063
0.236018
0.19095
0.130791
0.0854519
0.0600447
0.0447055
0.00432068
-0.0159055
-0.0460639
-0.071109
-0.0811769
-0.0913579
-0.0816068
-0.0769687
-0.0772855
-0.077557
-0.0826927
-0.0873759
-0.101448
-0.109774
-0.10224
-0.0939144
-0.0750684
-0.0561543
-0.042919
-0.0609055
-0.0905208
-0.091833
-0.0793216
-0.0670592
-0.0643442
-0.0509958
-0.0569912
-0.0625569
-0.062851
-0.0729415
-0.0779868
-0.0831224
-0.0733035
-0.068507
-0.0436881
-0.0588238
-0.0537559
-0.0685975
-0.0835297
-0.0785523
-0.0736654
-0.0789142
-0.0592083
-0.0694345
-0.0846156
-0.0996608
-0.114797
-0.120136
-0.110543
-0.116131
-0.0868101
-0.0974436
-0.107919
-0.108145
-0.133235
-0.133439
-0.123733
-0.10905
-0.0942533
-0.0993212
-0.109118
-0.12371
-0.133145
-0.137579
-0.136991
-0.126493
-0.110905
-0.100294
-0.0994796
-0.118461
-0.11733
-0.146244
-0.140158
-0.129095
-0.123054
-0.111878
-0.100543
-0.0940726
-0.102466
-0.115769
-0.114073
-0.117308
-0.105634
-0.0890499
-0.0727151
-0.0919459
-0.106878
-0.122715
-0.124344
-0.111154
-0.0976472
-0.0779186
-0.0713803
-0.0779186
-0.0731674
-0.073145
-0.0886652
-0.0750906
-0.0721946
-0.064706
-0.0476019
-0.0406336
-0.0338688
-0.0522173
-0.060724
-0.059457
-0.0535068
-0.0378733
-0.0325114
-0.0222626
-0.0270816
-0.0369909
-0.0520137
-0.0672173
-0.0575342
-0.0431222
-0.0337331
-0.0142536
-0.0197514
-0.0251812
-0.0406789
-0.0461993
-0.0517876
-0.0474663
-0.0432128
-0.0289369
-0.0246609
-0.0352944
-0.0508372
-0.0663351
-0.0619913
-0.0578284
-0.0488012
-0.0297289
-0.0255433
-0.0263804
-0.0370592
-0.0478057
-0.0486201
-0.0544798
-0.0456111
-0.0368102
-0.0180545
-0.0292763
-0.0304979
-0.0366291
-0.0480093
-0.0644798
-0.046222
-0.0330997
-0.0101134
-0.00208169
0.000836849
0.00875551
0.0115609
-0.00588256
0.0114026
0.0485519
0.0555202
0.0925338
0.109502
0.116629
0.0886198
0.0555429
0.0224433
0.0441401
0.0557917
0.0425338
0.0293891
0.00142533
-0.0514254
-0.0792534
-0.107059
-0.109796
-0.117353
-0.0947511
-0.101833
-0.0985972
-0.120158
-0.141516
-0.147896
-0.139163
-0.14052
-0.126765
-0.117828
-0.113801
-0.134548
-0.145226
-0.14586
-0.136516
-0.13233
-0.123122
-0.104005
-0.0647511
0.0296607
0.164186
0.363665
0.572964
0.762127
0.816267
0.745453
0.469774
0.0842083
-0.316289
-0.586855
-0.637466
-0.523144
-0.358959
-0.239751
-0.18052
-0.136221
-0.121787
-0.112285
-0.112896
-0.118642
-0.119457
-0.0953164
-0.0861534
-0.0718774
-0.0724882
-0.0730312
-0.0936194
-0.0892077
-0.0799317
-0.0807462
-0.0314475
-0.0370585
-0.0476014
-0.0479634
-0.0633254
-0.0487779
-0.049321
-0.0399091
-0.0354521
-0.0309725
-0.0314023
-0.0268096
-0.0321715
-0.0376241
-0.0381897
-0.0238233
-0.0144567
0.0148872
0.0194347
0.00902742
0.0186881
-0.0016287
0.00794142
0.0173759
0.026765
0.0761767
0.0856338
0.0902039
0.0949777
0.0996609
0.104299
0.143869
0.168371
0.212806
0.227308
0.261991
0.25681
0.276675
0.296539
0.311448
0.351358
0.396154
0.411018
0.446086
0.446312
0.451697
0.447149
0.467579
0.472873
0.477986
0.497986
0.508145
0.498371
0.488529
0.46371
0.433733
0.418461
0.398009
0.372466
0.326968
0.291516
0.231267
0.176018
0.140746
0.0953617
0.0797509
0.0540495
0.0434161
0.0227599
-0.00773787
-0.0231903
-0.0636202
-0.0691632
-0.074774
-0.0804076
-0.0609505
-0.0665162
-0.0519912
-0.0722401
-0.0923758
-0.102195
-0.111403
-0.084774
-0.0672175
-0.058688
-0.0498192
-0.0612672
-0.0639594
-0.0733485
-0.0695703
-0.06224
-0.0551586
-0.047534
-0.0441177
-0.0500906
-0.0607693
-0.0762218
-0.0866969
-0.057285
-0.0479186
-0.0435294
-0.0340497
-0.0345248
-0.0449772
-0.0654072
-0.0708823
-0.0664705
-0.0772398
-0.0630994
-0.0589365
-0.0747736
-0.0805202
-0.0863572
-0.107217
-0.113054
-0.0989137
-0.0946603
-0.0904069
-0.105995
-0.106425
-0.121606
-0.111674
-0.116832
-0.106991
-0.0971717
-0.0972848
-0.0923752
-0.0823299
-0.116991
-0.106606
-0.116312
-0.121063
-0.105905
-0.0857689
-0.0755425
-0.0851806
-0.0845019
-0.0987779
-0.123099
-0.112443
-0.101877
-0.0913345
-0.0856557
-0.0848186
-0.0786422
-0.102579
-0.106651
-0.106357
-0.101606
-0.102488
-0.099072
-0.0907915
-0.0870132
-0.0922395
-0.116018
-0.108348
-0.0993435
-0.0795019
-0.0695019
-0.0550223
-0.0561762
-0.0626242
-0.0593663
-0.0514929
-0.0638006
-0.0516965
-0.0349092
-0.018235
-0.021606
-0.0299771
-0.0435292
-0.0622848
-0.0663798
-0.0558369
-0.0505201
-0.0204297
-0.00538439
-0.0104297
-0.00549752
-0.0256559
-0.0260632
-0.0265835
-0.0222849
-0.0180315
-0.0138233
-0.02457
-0.0151806
-0.0258142
-0.0563798
-0.0420586
-0.0180087
-0.0190946
-0.0052259
-0.00115353
-0.0269907
-0.0478731
-0.0487555
-0.0497509
-0.0608596
-0.0570813
-0.0083257
-0.00450212
-0.0107012
-0.021855
-0.0379862
-0.0442759
-0.0506787
-0.0323076
0.00101823
0.00943452
-0.00212657
-0.0237328
-0.0104296
-0.00717175
0.00101835
0.00882387
0.0315161
0.0491179
0.0716519
0.074231
0.0716969
0.0990499
0.111244
0.103326
0.0952263
0.0819911
0.0688236
0.0656562
0.0375793
0.00445718
-0.0487102
-0.0769455
-0.0551808
-0.0633256
-0.066312
-0.0840948
-0.0767192
-0.0991852
-0.136516
-0.143936
-0.136131
-0.11828
-0.120249
-0.106991
-0.118439
-0.13966
-0.160837
-0.161991
-0.14819
-0.139411
-0.11552
-0.106493
-0.0973527
-0.108054
-0.138665
-0.0992985
-0.0350677
0.0991405
0.238349
0.397579
0.566878
0.636267
0.570679
0.365113
0.0795024
-0.24129
-0.532104
-0.722873
-0.738529
-0.61905
-0.474457
-0.390045
-0.315679
-0.241312
-0.212014
-0.107738
-0.0684167
-0.0589597
-0.0694574
-0.0950003
-0.100679
-0.0913577
-0.0772175
-0.053032
-0.0388464
-0.034593
-0.0400907
-0.0455659
-0.0509958
-0.0514256
-0.0270364
-0.0176699
-0.0182355
-0.0137558
-0.00911772
-0.0244119
-0.0347738
-0.0350906
-0.0354979
-0.0311087
0.00839353
0.0280768
0.0278279
0.00766957
0.00253379
0.0172397
0.0217872
0.0312668
0.0507238
0.0651809
0.074751
0.0696152
0.0844795
0.0843437
0.0841854
0.113869
0.128507
0.16319
0.162986
0.172964
0.178032
0.193009
0.222873
0.23276
0.237624
0.302534
0.322511
0.347647
0.352941
0.358371
0.388733
0.399072
0.429525
0.450045
0.47052
0.496063
0.496629
0.502172
0.487602
0.482851
0.492964
0.492806
0.502579
0.477534
0.452511
0.417444
0.382285
0.35215
0.331901
0.316471
0.27595
0.255521
0.210227
0.175
0.129887
0.0896382
0.0692989
0.0638238
0.0583712
0.0379866
0.0226699
0.0025568
-0.0125111
-0.0425564
-0.0626922
-0.0530541
-0.0482804
-0.0481673
-0.0474433
-0.0460181
-0.0588235
-0.0708597
-0.062647
-0.0597737
-0.0528507
-0.0372171
-0.0280316
-0.035
-0.0478505
-0.0757691
-0.09319
-0.0599547
-0.0613348
-0.0624434
-0.0432127
-0.0538461
-0.053982
-0.0689141
-0.0638235
-0.0588008
-0.0389593
-0.0541403
-0.0342986
-0.0493665
-0.0392307
-0.0489592
-0.0737104
-0.0635973
-0.0785746
-0.0736426
-0.0537782
-0.0487782
-0.0637104
-0.0686878
-0.0986199
-0.108688
-0.103914
-0.104367
-0.0949322
-0.080543
-0.091086
-0.106357
-0.121448
-0.126539
-0.126697
-0.116878
-0.101991
-0.0869908
-0.0818098
-0.0913121
-0.110633
-0.124887
-0.119253
-0.123484
-0.127783
-0.107059
-0.101176
-0.115068
-0.118778
-0.122421
-0.13104
-0.119751
-0.113461
-0.102013
-0.0904748
-0.0888233
-0.0919681
-0.0999545
-0.112941
-0.115927
-0.0939591
-0.0868551
-0.0798188
-0.0779862
-0.0715609
-0.0908144
-0.105814
-0.111832
-0.0885519
-0.0755202
-0.0769455
-0.0670813
-0.0755881
-0.0873529
-0.093009
-0.078371
-0.0692986
-0.0610859
-0.0534616
-0.0462896
-0.0292987
-0.0376697
-0.0461991
-0.0599548
-0.068914
-0.0481448
-0.047534
-0.0370362
-0.0416064
-0.0411087
-0.045724
-0.0654978
-0.0653847
-0.0603621
-0.0505657
-0.0308599
-0.0211314
-0.0313578
-0.031584
-0.046765
-0.0569233
-0.0572175
-0.0426927
-0.0330546
-0.0284619
-0.0288464
-0.0291632
-0.0643669
-0.0597514
-0.0602039
-0.0509278
-0.0517876
-0.0524663
-0.0381224
-0.0386428
-0.0391404
-0.044706
-0.0503395
-0.0461087
-0.0419231
-0.0277602
-0.0285521
-0.0244344
-0.0301358
-0.0509502
-0.0668325
-0.0579185
-0.0342761
-0.0206561
-0.00719452
0.00622165
-0.000316799
-0.00687796
0.00142515
-0.00531691
0.0275564
0.0452714
0.0829411
0.105565
0.113145
0.100792
0.0782578
0.0556334
0.0529185
0.045113
0.0423303
0.0395249
0.0167874
-0.0158145
-0.0683031
-0.0957466
-0.103213
-0.085656
-0.102873
-0.0898641
-0.0967646
-0.103348
-0.139683
-0.145928
-0.162149
-0.158303
-0.134457
-0.120362
-0.126109
-0.136629
-0.156991
-0.137285
-0.15267
-0.128122
-0.12371
-0.109276
-0.109661
-0.0849772
-0.0102035
0.0996155
0.26948
0.459118
0.683643
0.84319
0.882851
0.757625
0.482398
0.12224
-0.252918
-0.523167
-0.61362
-0.524004
-0.369366
-0.26966
-0.189977
-0.165158
-0.125203
-0.11043
-0.105792
-0.0961988
-0.0816513
-0.0869908
-0.0822849
-0.0724433
-0.0926017
-0.0878053
-0.0680994
-0.063484
-0.058846
-0.0391854
-0.0394342
-0.0345474
-0.0395926
-0.0396379
-0.0497059
-0.0549321
-0.0402262
-0.0154298
-0.035543
-0.0255204
-0.0254977
-0.0254298
-0.0403846
-0.00552046
-0.000746727
0.0340949
0.0490044
0.0440044
0.0390497
0.00920796
0.0242985
0.0294342
0.0444342
0.0594342
0.0744795
0.0845699
0.0947509
0.100068
0.080407
0.0907465
0.115814
0.150769
0.185814
0.201063
0.221357
0.236719
0.247195
0.257579
0.272873
0.278145
0.333394
0.358846
0.374434
0.385271
0.406222
0.407194
0.438099
0.443846
0.449479
0.465158
0.460837
0.476516
0.477353
0.463054
0.44362
0.423869
0.408914
0.388982
0.344117
0.289276
0.264547
0.214819
0.165
0.129977
0.119887
0.099751
0.0895926
0.0446153
0.0147963
-0.0250226
-0.0499095
-0.0649095
-0.0499095
-0.0449774
-0.0299549
-0.0398191
-0.0595929
-0.0693213
-0.0839366
-0.0932353
-0.0971494
-0.0652488
-0.0524661
-0.0586199
-0.0540045
-0.0592987
-0.0551584
-0.0572852
-0.0660635
-0.0616516
-0.0284164
-0.0355205
-0.0371946
-0.0481674
-0.0386199
-0.0637103
-0.0787556
-0.0487103
-0.0285746
-0.033371
-0.0330089
-0.0375565
-0.0471944
-0.0667645
-0.0713573
-0.0611311
-0.0459275
-0.0457239
-0.0504976
-0.0502713
-0.0599546
-0.0695926
-0.0743211
-0.0841854
-0.079208
-0.059321
-0.0545473
-0.0746831
-0.0796831
-0.0996379
-0.0944569
-0.104299
-0.0991853
-0.0941401
-0.0688235
-0.0833483
-0.0876017
-0.106719
-0.115769
-0.124864
-0.10914
-0.118394
-0.0925338
-0.0965157
-0.100317
-0.104027
-0.107692
-0.136312
-0.135
-0.138846
-0.0976015
-0.0862441
-0.0946152
-0.112783
-0.105927
-0.104095
-0.11224
-0.0953845
-0.0785065
-0.0616514
-0.0599772
-0.0684613
-0.0773527
-0.0919455
-0.0917419
-0.0873528
-0.0829183
-0.0677826
-0.0614478
-0.0686876
-0.0695699
-0.0644342
-0.0939591
-0.0789139
-0.0745926
-0.0508595
-0.0274885
-0.0344115
-0.0266513
-0.0443436
-0.052511
-0.055882
-0.039502
-0.0283707
-0.0173525
-0.0213345
-0.0104748
-0.0246829
-0.0440722
-0.0486649
-0.0435517
-0.0385745
-0.0187328
-0.0187554
-0.0137101
-0.0335518
-0.0384613
-0.0485517
-0.04871
-0.0440269
-0.0193661
-0.0297282
-0.0349093
-0.0450451
-0.0552488
-0.0355428
-0.0359501
-0.0313799
-0.0269003
-0.00239813
-0.0128053
-0.028122
-0.0334615
-0.0338914
-0.0494117
-0.0500226
-0.0357917
-0.0166742
-0.0223755
-0.0329863
-0.0586424
-0.0643212
-0.0501356
-0.0611086
-0.0473529
-0.0287328
-0.0200677
-0.00140262
-0.00273746
0.000859857
-0.000678658
-0.012466
0.010543
0.0334616
0.0662443
0.0740046
0.0919003
0.0847737
0.0773981
0.0449546
0.0222623
0.0245022
0.0317193
0.0289364
0.00117624
-0.0314029
-0.0590274
-0.0766292
-0.0993214
-0.0970364
-0.089706
-0.0821722
-0.10448
-0.126426
-0.153145
-0.159751
-0.161245
-0.16267
-0.14405
-0.130249
-0.14129
-0.141991
-0.167489
-0.177964
-0.16853
-0.144073
-0.134638
-0.125226
-0.120634
-0.10086
-0.0559957
0.0339364
0.148801
0.318552
0.373212
0.57285
0.562488
0.43733
0.177217
-0.132806
-0.417896
-0.648122
-0.708349
-0.613756
-0.469073
-0.359367
-0.299502
-0.249525
-0.199661
-0.144796
-0.0950679
-0.0754073
-0.0708145
-0.0661086
-0.0763349
-0.0864933
-0.0716969
-0.06681
-0.0720363
-0.0573756
-0.0327829
-0.0280997
-0.0133712
-0.0285069
-0.0385521
-0.04862
-0.0437557
-0.0239593
-0.0191855
0.000588238
-0.00461537
-0.00461543
-0.0145476
-0.0145702
-0.00961542
0.010181
0.0250904
0.03
0.0449321
0.0299321
0.0150905
0.0302262
0.0303167
0.050362
0.0602941
0.0901357
0.100045
0.11009
0.100294
0.100498
0.105701
0.110702
0.135611
0.160543
0.20043
0.225453
0.225611
0.24086
0.241176
0.251471
0.28172
0.3269
0.361968
0.377262
0.397715
0.408348
0.39914
0.409955
0.445656
0.456267
0.491697
0.512127
0.507647
0.513258
0.513801
0.499231
0.49448
0.48457
0.484525
0.479457
0.459502
0.429638
0.384932
0.330045
0.275045
0.244841
0.21457
0.194298
0.15405
0.114072
0.0741854
0.0392759
0.00429851
-0.0109051
-0.0111767
-0.0114029
-0.00653863
-0.0116064
-0.0365385
-0.0614706
-0.0663576
-0.0810409
-0.0753847
-0.0592309
-0.05224
-0.0449775
-0.0367422
-0.0735069
-0.0659051
-0.0795023
-0.0746154
-0.0510635
-0.0535069
-0.0511992
-0.0633939
-0.069887
-0.0859277
-0.0916743
-0.0772174
-0.072602
-0.062783
-0.0577151
-0.0474889
-0.0572174
-0.0619007
-0.0666745
-0.0614935
-0.0712898
-0.0610636
-0.0558147
-0.0454754
-0.0600002
-0.0644121
-0.0738691
-0.0934165
-0.0832582
-0.0882356
-0.0782356
-0.0830998
-0.0830318
-0.0828508
-0.102806
-0.127851
-0.112964
-0.118168
-0.0932806
-0.0981902
-0.0979186
-0.0975566
-0.107036
-0.116584
-0.121199
-0.125679
-0.120181
-0.0945248
-0.0886651
-0.102624
-0.116561
-0.130407
-0.134344
-0.143303
-0.122285
-0.106176
-0.0948415
-0.0933483
-0.106606
-0.114751
-0.122964
-0.116108
-0.109366
-0.0925792
-0.0755881
-0.0583935
-0.0810179
-0.0885971
-0.091199
-0.114095
-0.0975564
-0.0766515
-0.0614251
-0.0519681
-0.0728731
-0.088846
-0.0994116
-0.0847284
-0.0829184
-0.0697736
-0.0553845
-0.0354522
-0.0456786
-0.0614478
-0.0678279
-0.0896831
-0.0670134
-0.0598415
-0.0380542
-0.0265609
-0.0251356
-0.0286877
-0.0674207
-0.0713574
-0.0756107
-0.0600903
-0.0347736
-0.0295473
-0.0292531
-0.0238459
-0.0284613
-0.0480994
-0.0428506
-0.0328053
-0.032941
-0.0181221
-0.0132804
-0.0283481
-0.0333256
-0.0482577
-0.0582351
-0.0433708
-0.0385744
-0.0139138
-0.00423044
-0.0143887
-0.0195472
-0.034615
-0.0448412
-0.0351353
-0.0406331
-0.0361534
-0.0216511
-0.012081
-0.017443
-0.0328503
-0.0382124
-0.0436421
-0.034253
-0.0349317
-0.0257915
-0.0266513
-0.037443
-0.0433028
-0.0491852
-0.0702711
-0.0465155
-0.0428503
0.0105885
0.0290276
0.0373985
0.0258374
0.0441179
0.0374211
0.0605432
0.0784392
0.0810637
0.0987332
0.0813805
0.0542085
0.0270139
0.00979668
-0.0124658
-0.0148413
-0.0172621
-0.0347056
-0.0320812
-0.0493211
-0.0863121
-0.0980994
-0.0948642
-0.106584
-0.09819
-0.0947059
-0.0860634
-0.102014
-0.127715
-0.138235
-0.153688
-0.154163
-0.139683
-0.140113
-0.115498
-0.115724
-0.13086
-0.130837
-0.135747
-0.130747
-0.105747
-0.0308145
0.0839368
0.233801
0.418824
0.598914
0.71405
0.749027
0.653914
0.603733
0.13362
-0.176493
-0.456516
-0.586448
-0.551312
-0.436222
-0.321267
-0.24638
-0.186629
-0.131833
-0.101991
-0.0670136
-0.0820135
-0.106901
-0.106787
-0.102014
-0.0723078
-0.0576471
-0.0478734
-0.0429186
-0.057896
-0.082896
-0.0728507
-0.0728734
-0.0730092
-0.0531223
-0.0181902
-0.0231903
-0.0230771
-0.0278735
-0.0427604
-0.0476925
-0.0327151
-0.0378056
-0.0178056
-0.00276035
-0.00251144
-0.012172
-0.0118327
-0.0264707
-0.00128973
0.00877815
0.0388914
0.0390271
0.0491855
0.0395474
0.0349773
0.050294
0.0504977
0.0556335
0.0907466
0.100882
0.146131
0.136539
0.1319
0.15224
0.167489
0.19767
0.227715
0.237896
0.268168
0.278688
0.289322
0.284932
0.315521
0.311109
0.351607
0.382218
0.418009
0.423892
0.42491
0.410837
0.411629
0.417331
0.427919
0.443394
0.443846
0.444367
0.424887
0.40043
0.370905
0.331154
0.311313
0.286448
0.246584
0.221855
0.17715
0.107512
0.0678509
0.0380772
0.0231224
0.0130771
0.0130545
-0.0169001
-0.0217418
-0.0513798
-0.0560405
-0.0757689
-0.0755879
-0.08052
-0.0903844
-0.0801354
-0.064502
-0.0732124
-0.0862894
-0.0835971
-0.080113
-0.0612215
-0.0521944
-0.0435745
-0.0401129
-0.0386876
-0.0486876
-0.0599999
-0.0618777
-0.068665
-0.0599999
-0.0558369
-0.0512894
-0.0414025
-0.0461988
-0.0558594
-0.0504069
-0.0750449
-0.079864
-0.0447282
-0.0345924
-0.0292531
-0.0387779
-0.0533028
-0.0627599
-0.0573753
-0.0621718
-0.0519229
-0.0466741
-0.04638
-0.0458822
-0.0602488
-0.0696154
-0.0839592
-0.0785293
-0.0732352
-0.0680542
-0.0628054
-0.0675565
-0.0721719
-0.0917193
-0.101357
-0.111199
-0.121222
-0.096312
-0.0813347
-0.0812215
-0.0908595
-0.0904297
-0.119977
-0.124547
-0.104185
-0.0937328
-0.0831673
-0.0824659
-0.0765156
-0.100407
-0.123982
-0.112556
-0.116244
-0.0998866
-0.0884613
-0.0768323
-0.0800223
-0.0930765
-0.0910177
-0.0939589
-0.0769227
-0.0799318
-0.0578278
-0.0407236
-0.0383707
-0.0558594
-0.0681896
-0.0755427
-0.0679635
-0.0604748
-0.0630087
-0.0506331
-0.043416
-0.0365382
-0.0502937
-0.0648866
-0.0648413
-0.0658141
-0.0517869
-0.0421036
-0.0312666
-0.039253
-0.0561762
-0.0524658
-0.0540268
-0.0614477
-0.0596151
-0.028235
-0.022149
-0.0262667
-0.0255427
-0.0500902
-0.0696602
-0.0644114
-0.0642304
-0.0442078
-0.0242304
-0.0342531
-0.034321
-0.044321
-0.0742757
-0.0642305
-0.0493662
-0.0445473
-0.0197961
-0.0149091
-0.019977
-0.034977
-0.0549319
-0.0499545
-0.0400904
-0.0453619
-0.0306107
-0.0159048
-0.0111085
-0.0212894
-0.0363799
-0.051493
-0.0517419
-0.0421039
-0.0374658
-0.0228958
-0.0133935
-0.00868762
-0.0238913
-0.0391628
-0.029502
-0.0400451
-0.0207465
-0.00644785
-0.00714922
-0.00773752
-0.0183484
-0.0439819
-0.0397964
-0.0457693
-0.0519458
-0.00828058
0.00531673
0.0239592
0.0225565
0.0160407
0.00436658
0.00253397
0.0205203
0.0533258
0.0910181
0.0886199
0.096267
0.0740498
0.0467647
0.0294344
0.0319457
0.0242308
0.0314933
0.0238689
-0.00371033
-0.0311311
-0.0535068
-0.080792
-0.108167
-0.120566
-0.102783
-0.0948642
-0.0967194
-0.113281
-0.124615
-0.145814
-0.141968
-0.133009
-0.118937
-0.114683
-0.110317
-0.115746
-0.130928
-0.136109
-0.136335
-0.126674
-0.112059
-0.107285
-0.102489
-0.0777377
-0.0328508
0.0571265
0.197036
0.381832
0.441493
0.641199
0.61086
0.425679
0.150565
-0.134412
-0.409457
-0.574661
-0.559932
-0.440204
-0.315543
-0.24586
-0.196041
-0.161131
-0.126177
-0.0962446
-0.0965388
-0.0869913
-0.0774212
-0.0627831
-0.0530772
-0.0581904
-0.0584393
-0.0636882
-0.0590049
-0.0694122
-0.0447969
-0.0350684
-0.020272
-0.0352268
-0.0402268
-0.0502946
-0.0604303
-0.0456793
-0.0309507
-0.0111771
-0.0163354
-0.0114032
-0.0213807
-0.0213354
-0.0363128
-0.0214485
0.00328004
0.0180312
0.0228729
0.0127823
0.022805
0.0128729
0.00296342
0.0229634
0.0278955
0.0577825
0.0826693
0.087692
0.0827825
0.0678956
0.0779861
0.0830765
0.123009
0.142918
0.177783
0.197602
0.217715
0.212986
0.228303
0.258552
0.288778
0.318914
0.338959
0.36914
0.384547
0.395249
0.410928
0.396629
0.412217
0.41267
0.448009
0.468371
0.468756
0.464185
0.46466
0.440068
0.430271
0.415294
0.410249
0.390045
0.359819
0.324751
0.289728
0.234683
0.194592
0.159344
0.134004
0.108665
0.0783709
0.0531673
0.0230995
-0.00190049
-0.0419683
-0.0421493
-0.0523981
-0.0426697
-0.0428958
-0.0729637
-0.0730316
-0.0680316
-0.0878957
-0.102669
-0.0820813
-0.070837
-0.0538006
-0.0614251
-0.0480993
-0.0649092
-0.0676469
-0.0866513
-0.0819907
-0.0685292
-0.0558369
-0.0630541
-0.0597057
-0.0657237
-0.0664477
-0.0819002
-0.0972396
-0.0924885
-0.0676016
-0.0527147
-0.05276
-0.0677601
-0.0626243
-0.0824659
-0.0623527
-0.0623075
-0.0573074
-0.0672848
-0.0622849
-0.0721265
-0.0819229
-0.111651
-0.0964478
-0.0864025
-0.0865609
-0.0817645
-0.0719229
-0.0720135
-0.0920135
-0.0970814
-0.102195
-0.102398
-0.107783
-0.0882805
-0.0737104
-0.0788234
-0.0887781
-0.0986651
-0.108575
-0.108371
-0.108167
-0.102941
-0.102624
-0.0822172
-0.091629
-0.100792
-0.0999095
-0.104095
-0.098371
-0.107624
-0.0968778
-0.0858822
-0.0797057
-0.0732805
-0.091742
-0.110181
-0.0987329
-0.0822172
-0.0805656
-0.0686651
-0.0466742
-0.0545475
-0.0672625
-0.09
-0.0826923
-0.075475
-0.0686651
-0.0623077
-0.0516289
-0.0516289
-0.0621944
-0.0630994
-0.0790949
-0.0890497
-0.0678732
-0.0452714
-0.0513574
-0.0367646
-0.0373981
-0.0486424
-0.0457012
-0.0383483
-0.0415382
-0.0151356
-0.0140496
-0.00809938
-0.00726223
-0.0114703
-0.0357463
-0.0452033
-0.0348413
-0.0247734
-0.0147055
-0.00966018
-0.00952441
-0.0294114
-0.0243661
-0.0342755
-0.0394114
-0.0147055
-0.00504488
-0.0103164
-0.000429571
-0.0154522
-0.0255201
-0.025588
-0.00581431
-0.00117624
0.00834876
-0.0020811
0.00255686
-0.00266927
-0.00789553
-0.0231897
-0.0185518
-0.0290042
-0.0195472
-0.0052259
-0.00581408
-0.00631189
-0.0116965
-0.0121037
-0.0276015
-0.0232576
-0.0190721
-0.00484133
-0.000587881
-0.00137973
-0.00728476
-0.0182351
-0.0193436
-0.020588
-0.0221264
0.00633508
0.0397288
0.0381904
0.0416519
0.040023
0.0382809
0.0463126
0.0592764
0.0670365
0.104842
0.11267
0.110589
0.0636202
0.0416067
0.0294799
0.0222401
0.00484198
-0.00755626
-0.0248413
-0.026968
-0.0439363
-0.0556784
-0.0874206
-0.0941173
-0.0857236
-0.0822394
-0.0785744
-0.0747507
-0.0906104
-0.111244
-0.131764
-0.137217
-0.122669
-0.103144
-0.103461
-0.103687
-0.128755
-0.11871
-0.128507
-0.133303
-0.113235
-0.113326
-0.0783709
-0.00334823
0.11172
0.261878
0.447127
0.59233
0.667421
0.682466
0.452398
0.177308
-0.147647
-0.452443
-0.607285
-0.577081
-0.471991
-0.326923
-0.231878
-0.1669
-0.116923
-0.0817647
-0.0765837
-0.0764706
-0.0963349
-0.106244
-0.0963122
-0.0814254
-0.0564705
-0.0563801
-0.0612217
-0.0710181
-0.0657918
-0.0806335
-0.0905204
-0.0354977
-0.0204751
-0.0252488
-0.0199094
-0.0445474
-0.0491402
-0.0488009
-0.0385521
-0.0233485
0.00196832
0.00733024
0.00280541
0.00328052
-0.0112898
-0.0158598
0.00454742
0.0148415
0.0351809
0.0404975
0.0559274
0.0414703
0.047036
0.0376016
0.043122
0.0485518
0.088846
0.104185
0.114615
0.110158
0.125837
0.141493
0.157059
0.182579
0.203054
0.238529
0.254027
0.279683
0.26552
0.271357
0.302217
0.328009
0.358733
0.369547
0.410452
0.40147
0.392715
0.393982
0.385203
0.391176
0.407081
0.422873
0.44862
0.449344
0.425022
0.395724
0.361493
0.332149
0.322669
0.302963
0.283235
0.258665
0.224095
0.179592
0.120135
0.0805653
0.0608822
0.0510178
0.0311309
0.0163345
-0.00830346
-0.0129189
-0.0474212
-0.0620818
-0.0768103
-0.0866746
-0.071584
-0.0613577
-0.0660636
-0.0755433
-0.0796837
-0.0933037
-0.101267
-0.0885073
-0.0701361
-0.0563806
-0.0425118
-0.0446385
-0.0530322
-0.067806
-0.0689145
-0.0708827
-0.0527831
-0.0642312
-0.0600004
-0.0402945
-0.0452493
-0.0599778
-0.0645254
-0.0441181
-0.0487335
-0.0434846
-0.0332584
-0.0329417
-0.0375344
-0.0569688
-0.0613805
-0.0658376
-0.0703851
-0.0750004
-0.0596611
-0.0493217
-0.053643
-0.0728963
-0.0872176
-0.0965163
-0.0960185
-0.0956338
-0.0852492
-0.0748873
-0.0794574
-0.083937
-0.0983714
-0.107941
-0.092602
-0.0974663
-0.0974663
-0.0873758
-0.0922853
-0.0969912
-0.111629
-0.121109
-0.125657
-0.125227
-0.119933
-0.09948
-0.0838692
-0.0879415
-0.101878
-0.110656
-0.134389
-0.128145
-0.111878
-0.110588
-0.0991178
-0.0974209
-0.10052
-0.103439
-0.106267
-0.104231
-0.102262
-0.0852262
-0.0680091
-0.0756109
-0.07819
-0.0906109
-0.0980317
-0.0905883
-0.0781901
-0.0659277
-0.0686426
-0.0512896
-0.044095
-0.0522624
-0.0510859
-0.0702716
-0.086086
-0.0776697
-0.0594344
-0.040543
-0.0405203
-0.0640045
-0.0560859
-0.0624886
-0.0641176
-0.0516289
-0.0449094
-0.0236651
-0.0226016
-0.0267872
-0.0411084
-0.0455655
-0.0700678
-0.0597736
-0.0346605
-0.01457
-0.00957
-0.0194569
-0.0342985
-0.0490949
-0.0489139
-0.0488234
-0.0438461
-0.0189139
-0.00898176
-0.0189817
-0.0289364
-0.0388459
-0.0337555
-0.0537329
-0.0639591
-0.0292306
-0.0144794
-0.00961518
-0.0147961
-0.0249091
-0.0349544
-0.0350901
-0.0403843
-0.0257915
-0.0210856
-0.011357
-0.016538
-0.0266285
-0.0317642
-0.0419
-0.0472847
-0.0428503
-0.0335064
-0.01414
-0.0198412
-0.0304747
-0.0510857
-0.0517871
-0.042692
-0.0438006
-0.0250902
-0.00647032
-0.00785035
0.00570178
0.00425375
0.00773793
0.00106376
0.0241407
0.0420366
0.0698873
0.0927379
0.0906339
0.0985072
0.0713578
0.0591407
0.0366518
0.03405
0.0413805
0.058688
