ekg
0
5.96046e-08
-0.000999928
0.0078572
0.03
0.0245455
0.00538468
-0.021
-0.0202941
-0.0100001
-0.0319048
-0.0182609
0.00300002
0.012963
0.00189662
-0.00354826
-0.0140908
-0.00385696
-0.00959468
0.00256395
0.0187804
0.00430226
-0.00666672
-0.0392553
-0.0512245
-0.0502942
-0.0284907
-0.0280001
-0.0353509
-0.0336441
-0.0413935
-0.0243651
-0.037
-0.033806
-0.0406522
-0.0288028
-0.00184935
0.0206667
0.0429221
0.0540507
0.065
0.0813855
0.0875883
0.117471
0.13691
0.160769
0.181505
0.150158
0.0872166
0.00459605
-0.035198
-0.0240291
-0.00728571
0.0462616
0.0466055
0.0245946
-0.0239381
-0.0821739
-0.140171
-0.133445
-0.122479
-0.121585
-0.12504
-0.123504
-0.147287
-0.161145
-0.169887
-0.178704
-0.15792
-0.137158
-0.116064
-0.12514
-0.139379
-0.153843
-0.158523
-0.168113
-0.133105
-0.113645
-0.109331
-0.109969
-0.106211
-0.123129
-0.140273
-0.137725
-0.125562
-0.0892397
-0.0781791
-0.0721142
-0.0712712
-0.0759497
-0.0305524
0.140519
0.497243
0.919332
1.36722
1.81613
2.1806
2.24026
1.89523
1.1405
0.861169
-0.603177
-1.01768
-0.992053
-0.751316
-0.530711
-0.400235
-0.339628
-0.273963
-0.21831
-0.152964
-0.108529
-0.103959
-0.109276
-0.144547
-0.144796
-0.145113
-0.140566
-0.126244
-0.0968778
-0.0875113
-0.0831447
-0.0987104
-0.139163
-0.129593
-0.135136
-0.140747
-0.121425
-0.122104
-0.122715
-0.118213
-0.123575
-0.138937
-0.129366
-0.129977
-0.105633
-0.106222
-0.101629
-0.111968
-0.13224
-0.132443
-0.12776
-0.118032
-0.118439
-0.108846
-0.104208
-0.0944344
-0.0845023
-0.0844345
-0.0942761
-0.0891404
-0.06905
-0.0539142
-0.0187106
-0.0182582
0.00233006
-0.0119912
-0.00610882
-0.00527167
0.0304297
0.0609047
0.0912668
0.116651
0.127104
0.12776
0.148394
0.168959
0.174253
0.219231
0.254004
0.293778
0.303665
0.303597
0.303529
0.318484
0.318235
0.357873
0.387421
0.396923
0.411584
0.376425
0.351403
0.331289
0.296041
0.280701
0.260294
0.259887
0.214615
0.164525
0.109434
0.0843437
0.0542758
0.0341174
0.0338007
0.0185065
0.00330293
-0.0116292
-0.0214029
-0.0461088
-0.0708373
-0.0756338
-0.0702944
-0.074231
-0.0515161
-0.0517424
-0.0498872
-0.0559957
-0.0454527
-0.0446835
-0.0255207
-0.00472885
-0.000249207
0.00764668
-0.0113578
-0.0252039
-0.0279416
-0.0347062
-0.0359506
-0.0319913
-0.0127605
0.0067417
0.0116059
-0.00834894
-0.0232357
-0.0231453
-0.013281
-0.0084393
0.00135708
0.0261987
0.0161082
0.0262666
0.00644749
0.00667381
0.00176436
0.00658339
0.0214704
0.0312667
0.0361084
0.0462216
0.0262215
0.0162215
0.00626671
-0.00382382
0.00592726
0.0207464
0.0255881
0.015656
0.000814319
-0.00902724
-0.0289593
-0.0440497
-0.0291855
-0.0243213
-0.00936657
-0.00945705
-0.0294117
-0.0493213
-0.0592308
-0.0691855
-0.0692986
-0.0545701
-0.0349321
-0.0303167
-0.0406786
-0.0658823
-0.0760859
-0.0712216
-0.0865382
-0.0819229
-0.0723301
-0.0624884
-0.0573753
-0.0669454
-0.0813572
-0.0806784
-0.0800902
-0.0895019
-0.0788231
-0.0679635
-0.0817869
-0.0751806
-0.0882801
-0.0962213
-0.0992078
-0.102149
-0.0800449
-0.0679408
-0.0555652
-0.0530087
-0.0653617
-0.082692
-0.0902033
-0.0778956
-0.060701
-0.0536648
-0.0417191
-0.0498187
-0.0429183
-0.0612215
-0.0547735
-0.0536876
-0.0527599
-0.0469455
-0.0262215
-0.0254748
-0.0298188
-0.0492532
-0.0687781
-0.073484
-0.0634614
-0.0486649
-0.0291854
-0.0152713
-0.0226017
-0.0565383
-0.0710859
-0.0789818
-0.0888913
-0.089932
-0.0905429
-0.10862
-0.102692
-0.112602
-0.104457
-0.110656
-0.1131
-0.106991
-0.0917421
-0.0766065
-0.0711766
-0.0755656
-0.0899321
-0.0844571
-0.0942761
-0.0942308
-0.0791177
-0.0739141
-0.0636652
-0.0683258
-0.067896
-0.0924888
-0.0870816
-0.09181
-0.076629
-0.0564481
-0.0612445
-0.0459504
-0.0605658
-0.100091
-0.0745928
-0.0742535
-0.0790272
-0.0538236
-0.0337104
-0.038439
-0.0430319
-0.0676245
-0.0872399
-0.0819684
-0.07181
-0.0567874
-0.04681
-0.0417874
-0.0516743
-0.0414933
-0.0612896
-0.0662445
-0.0563802
-0.0365838
-0.0018779
0.0227828
0.0475566
0.0723982
0.0822625
0.0820362
0.0815611
0.0859729
0.110294
0.129502
0.133733
0.112964
0.0821494
0.0412896
0.030181
0.0188915
0.0374209
0.0558824
0.054163
0.0174209
-0.00929856
-0.0711085
-0.0981221
-0.125294
-0.117715
-0.130226
-0.127873
-0.13052
-0.153145
-0.165747
-0.178371
-0.171131
-0.168937
-0.156742
-0.154389
-0.156787
-0.153982
-0.165928
-0.167783
-0.169457
-0.166086
-0.142534
-0.133869
-0.140091
-0.141176
-0.147014
-0.142828
-0.138484
-0.134163
-0.104932
-0.0707466
-0.0465384
0.0178281
0.147308
0.416968
0.791538
0.92095
1.65529
2.08462
2.33391
2.2283
1.67781
0.80733
-0.113122
-0.778688
-0.939299
-0.675023
-0.355769
-0.171403
-0.146969
-0.207489
-0.227964
-0.213417
-0.173982
-0.129593
-0.115227
-0.130883
-0.141471
-0.146969
-0.157421
-0.152828
-0.158303
-0.148937
-0.139638
-0.120362
-0.125951
-0.12638
-0.131742
-0.142037
-0.157444
-0.1531
-0.138733
-0.124412
-0.130023
-0.120408
-0.145679
-0.160951
-0.156267
-0.16172
-0.152308
-0.137896
-0.128394
-0.133756
-0.129027
-0.144254
-0.14448
-0.149706
-0.135091
-0.115475
-0.110815
-0.100928
-0.0908825
-0.100747
-0.0954299
-0.0950001
-0.0846155
-0.0542309
-0.0388916
-0.0135068
-0.00285083
-0.00214946
0.00857449
0.0292306
0.0446832
0.0898641
0.115
0.15509
0.170384
0.200837
0.216312
0.221629
0.226719
0.276516
0.296154
0.340701
0.355294
0.379932
0.399706
0.404412
0.409027
0.413552
0.427941
0.417376
0.406878
0.381561
0.341244
0.30095
0.255634
0.225226
0.189774
0.159299
0.123869
0.0985973
0.0734615
0.0483032
0.0130996
0.00785071
-0.0324208
-0.0477375
-0.0479863
-0.0431222
-0.0379863
-0.0576922
-0.0621039
-0.0859502
-0.0686424
-0.0597058
-0.050113
-0.0371946
-0.0222172
-0.0211086
-0.0254976
-0.0324207
-0.0232351
-0.0082804
0.00359738
0.0147513
0.0121495
-0.00898176
-0.00923067
-0.00434381
-0.00979626
-0.0203845
-0.0109501
0.00364262
-0.00144786
0.00357479
0.00362009
-0.0114704
-0.0116287
-0.0269002
-0.0122169
-0.00251108
0.0172626
0.0170817
0.00203639
-0.0130315
-0.0330766
-0.0332351
-0.023484
-0.00884604
0.0108145
0.0206335
0.000565767
-0.0245474
-0.0296605
-0.0350225
-0.0305882
-0.0263121
-0.0171266
-0.0129186
-0.0236651
-0.0393438
-0.0501131
-0.0559276
-0.066991
-0.0581221
-0.0442307
-0.0502037
-0.0509051
-0.0814933
-0.0820364
-0.0775114
-0.0931224
-0.0937105
-0.0742309
-0.0745929
-0.064593
-0.0693214
-0.103756
-0.0930771
-0.0924436
-0.0967875
-0.0810409
-0.0602038
-0.0590726
-0.0577829
-0.0812444
-0.0945928
-0.097896
-0.0961539
-0.0693666
-0.0626246
-0.0506788
-0.05362
-0.0513349
-0.0689593
-0.0914707
-0.0739819
-0.0715837
-0.0592307
-0.0367873
-0.0342534
-0.0417647
-0.0644117
-0.0571492
-0.0602036
-0.0485746
-0.0373303
-0.0267647
-0.0223077
-0.029457
-0.0434614
-0.0694117
-0.0774207
-0.0769004
-0.0815609
-0.0793212
-0.0687783
-0.0792987
-0.0717648
-0.0934842
-0.100181
-0.0981674
-0.0921267
-0.076448
-0.0606787
-0.0748643
-0.0742081
-0.0986652
-0.0982127
-0.0928281
-0.0825113
-0.0923076
-0.0770589
-0.0616968
-0.0612443
-0.0706788
-0.0751132
-0.0847285
-0.0894117
-0.0741403
-0.0638462
-0.05362
-0.0482353
-0.0727603
-0.0823078
-0.10181
-0.0813575
-0.0710634
-0.0558372
-0.0407014
-0.0504073
-0.0549774
-0.0544118
-0.0638009
-0.0633258
-0.0679411
-0.0476696
-0.0374433
-0.0271493
-0.026742
-0.0462669
-0.0557238
-0.050294
-0.0400678
-0.00997734
0.0200679
0.0600906
0.0751132
0.0802715
0.0854073
0.0804525
0.0952715
0.11
0.14957
0.164118
0.15362
0.138168
0.0976471
0.076991
0.0761312
0.0701358
0.0890272
0.0877602
0.0713801
0.0449774
-0.00644791
-0.0529184
-0.0944795
-0.111335
-0.10328
-0.100317
-0.102466
-0.10957
-0.131606
-0.143642
-0.160679
-0.172873
-0.155203
-0.152556
-0.159842
-0.14681
-0.143597
-0.150113
-0.156448
-0.162715
-0.163891
-0.145136
-0.121222
-0.107127
-0.122873
-0.128326
-0.12871
-0.109072
-0.114502
-0.0849093
-0.055294
-0.015588
0.104276
0.314254
0.639276
1.01428
1.41921
1.84896
2.14878
2.15364
1.72853
0.958507
0.0736201
-0.601267
-0.761131
-0.761221
-0.496448
-0.286719
-0.231923
-0.236923
-0.241765
-0.201674
-0.171584
-0.146719
-0.141923
-0.142104
-0.132194
-0.137307
-0.14724
-0.152126
-0.162059
-0.162081
-0.142308
-0.127534
-0.112805
-0.122964
-0.117986
-0.142919
-0.147828
-0.147941
-0.153145
-0.143416
-0.123552
-0.108575
-0.103552
-0.123394
-0.143281
-0.153235
-0.163258
-0.148326
-0.143394
-0.138416
-0.128303
-0.133009
-0.142647
-0.137308
-0.142059
-0.136923
-0.11681
-0.0916967
-0.0864027
-0.0759501
-0.0702261
-0.0893891
-0.0784842
-0.0676018
-0.0317873
-0.0209276
0.0100226
0.00624442
0.0275566
0.033914
0.0451131
0.0760407
0.0918552
0.122692
0.153575
0.174615
0.200656
0.226629
0.232398
0.252941
0.268213
0.298303
0.328281
0.348394
0.368597
0.373869
0.37914
0.379276
0.379253
0.389117
0.403936
0.403869
0.388846
0.343869
0.309027
0.259253
0.214321
0.199253
0.159185
0.149072
0.129095
0.0893435
0.064683
0.0198867
0.00499976
-0.00997764
-0.0199324
-0.0199777
-0.029955
-0.0397739
-0.0644572
-0.0786654
-0.0819685
-0.0789821
-0.0694799
-0.0433261
-0.0502491
-0.0406111
-0.0307695
-0.0327831
-0.0432355
-0.0527378
-0.0554302
-0.0337334
-0.0168329
-0.00850695
-0.0190727
-0.0493215
-0.0694572
-0.0696382
-0.0696155
-0.0444119
-0.0290499
-0.0286427
-0.0382355
-0.0426472
-0.067059
-0.0616291
-0.0512897
-0.0409957
-0.000701487
-0.0102944
-0.00479656
-0.0142309
-0.0337105
-0.0431902
-0.0428507
-0.0225793
-0.0123304
-0.0171041
-0.0268101
-0.0414028
-0.0359503
-0.0504753
-0.0502716
-0.0402038
-0.0253395
-0.0259052
-0.0274436
-0.0455432
-0.0607016
-0.0980321
-0.112466
-0.118168
-0.128213
-0.120589
-0.114005
-0.103168
-0.109208
-0.10948
-0.125294
-0.13224
-0.140159
-0.128507
-0.117104
-0.110815
-0.114706
-0.133552
-0.137557
-0.156471
-0.135317
-0.11414
-0.107941
-0.111606
-0.125158
-0.138484
-0.136742
-0.134955
-0.1131
-0.111244
-0.0942987
-0.0922173
-0.0800001
-0.0976018
-0.110136
-0.122557
-0.125023
-0.112511
-0.0850452
-0.072534
-0.0700453
-0.0723757
-0.0747285
-0.0870588
-0.0996153
-0.107398
-0.075475
-0.0488009
-0.0521492
-0.0406108
-0.049095
-0.0726471
-0.076448
-0.0604977
-0.0447738
-0.0242082
-0.00866526
0.00683242
0.0223528
0.0177601
0.0279863
0.0430317
0.0528733
0.0925565
0.13224
0.171991
0.176697
0.13129
0.0907468
0.0750228
0.0641178
0.0730093
0.101788
0.075498
0.0292538
-0.0219454
-0.0581444
-0.0745698
-0.106267
-0.10319
-0.110113
-0.121991
-0.133755
-0.140339
-0.141923
-0.173484
-0.18
-0.156538
-0.142941
-0.144117
-0.144977
-0.150475
-0.155927
-0.156176
-0.156402
-0.151697
-0.136877
-0.126923
-0.121855
-0.121629
-0.12638
-0.131131
-0.125905
-0.125678
-0.0854975
-0.0753617
-0.0400676
0.0453396
0.275792
0.626267
1.08665
1.5769
2.03697
2.30699
2.1671
1.57224
0.702534
-0.217081
-0.881742
-1.04654
-0.916402
-0.661425
-0.466448
-0.361493
-0.296493
-0.236403
-0.186312
-0.166267
-0.13638
-0.136538
-0.146832
-0.141991
-0.117013
-0.131991
-0.126991
-0.147104
-0.142308
-0.127579
-0.117851
-0.113032
-0.113145
-0.128145
-0.128145
-0.138054
-0.1331
-0.138213
-0.123439
-0.113643
-0.103688
-0.113598
-0.0984391
-0.123258
-0.1181
-0.138032
-0.1331
-0.118213
-0.103394
-0.0933034
-0.103032
-0.11776
-0.122489
-0.127308
-0.112285
-0.0822628
-0.0771722
-0.0569007
-0.066516
-0.0660635
-0.0704979
-0.0548871
-0.0243893
-0.0088917
0.0217192
0.0524206
0.0533935
0.0445247
0.0758821
0.0872623
0.118393
0.159276
0.190045
0.220814
0.236651
0.252624
0.268597
0.279321
0.289819
0.330045
0.360226
0.390226
0.390317
0.380452
0.380566
0.355679
0.355656
0.340566
0.325226
0.30491
0.279661
0.239435
0.179118
0.138711
0.118145
0.0774887
0.06181
0.0560182
0.0201585
-0.0106561
-0.0163574
-0.0419456
-0.0524434
-0.0629184
-0.0734162
-0.0689366
-0.0744117
-0.0645701
-0.0896606
-0.0995475
-0.108801
-0.111946
-0.103371
-0.0776922
-0.0597511
-0.0446606
-0.0482353
-0.0423529
-0.0541403
-0.0598416
-0.0397964
-0.0227828
-0.0165837
-0.00470579
-0.0166062
-0.0226242
-0.023122
-0.0334387
-0.0285293
-0.0234615
-0.00825787
-0.00296372
0.00733042
-0.00233024
-0.0119909
-0.0165385
-0.0162669
-0.00604069
-0.000995576
0.0139819
0.0140498
0.0141177
-0.000995517
-0.0117195
-0.0138236
-0.027715
-0.0237331
-0.031991
-0.032059
-0.0523304
-0.085905
-0.0958371
-0.101652
-0.104095
-0.100294
-0.081991
-0.0649775
-0.0687783
-0.0628507
-0.0918552
-0.105905
-0.110249
-0.0999775
-0.0898643
-0.0797965
-0.0845702
-0.0840951
-0.108507
-0.112806
-0.112285
-0.12181
-0.116425
-0.0960182
-0.0854073
-0.0946608
-0.103665
-0.122579
-0.116493
-0.125498
-0.124457
-0.113416
-0.0972398
-0.0858371
-0.094276
-0.0975338
-0.0957239
-0.118823
-0.106946
-0.10509
-0.078122
-0.0809953
-0.068665
-0.0811763
-0.0937102
-0.0963573
-0.104072
-0.0769682
-0.0599093
-0.0329862
-0.0410858
-0.0292985
-0.0176017
0.00386888
0.0249323
0.0556562
0.0711992
0.0764933
0.10181
0.121991
0.126991
0.111652
0.0911314
0.0702943
0.0592536
0.0580772
0.0667876
0.0554075
0.0239596
0.0174438
0.00570166
-0.0511761
-0.0683933
-0.100724
-0.108054
-0.120317
-0.137488
-0.164593
-0.186787
-0.194004
-0.201289
-0.183529
-0.180543
-0.167285
-0.18871
-0.205
-0.206018
-0.216946
-0.19276
-0.183461
-0.169004
-0.179366
-0.169525
-0.169525
-0.189412
-0.184344
-0.184299
-0.159276
-0.144253
-0.12414
-0.103937
-0.108597
-0.0982353
-0.0528507
0.0824434
0.372647
0.767783
1.22794
1.72817
2.12348
2.18382
1.81916
1.02434
0.104389
-0.625588
-0.925656
-0.810656
-0.545453
-0.360249
-0.285
-0.284706
-0.264661
-0.209797
-0.14
-0.110204
-0.105272
-0.125249
-0.150204
-0.170227
-0.175385
-0.145656
-0.135996
-0.121313
-0.111652
-0.126788
-0.141901
-0.166991
-0.15715
-0.157444
-0.147761
-0.128145
-0.118507
-0.118756
-0.128869
-0.133892
-0.144028
-0.144254
-0.149525
-0.129887
-0.115113
-0.130204
-0.125159
-0.140159
-0.145068
-0.140113
-0.125294
-0.110521
-0.0957468
-0.0858372
-0.0707468
-0.0804979
-0.0753396
-0.0802037
-0.0700227
-0.0397512
-0.00441182
0.0161312
0.0317873
0.0124886
0.038303
0.0442533
0.0902488
0.126109
0.171855
0.207489
0.228122
0.243869
0.269661
0.280407
0.30595
0.331448
0.351901
0.417059
0.43724
0.442308
0.447376
0.437421
0.42733
0.432059
0.431674
0.426177
0.405679
0.375294
0.335
0.274661
0.259073
0.188303
0.162421
0.136403
0.100498
0.0697061
0.0338917
0.00298673
-0.0279862
-0.0440269
-0.0450901
-0.051063
-0.0519453
-0.0525789
-0.0630313
-0.0783481
-0.0936196
-0.0989137
-0.104185
-0.09914
-0.0883709
-0.0711083
-0.0818776
-0.0804071
-0.0916514
-0.0760632
-0.0752486
-0.0561084
-0.0255654
-0.0241852
-0.0110857
-0.0292531
-0.0618776
-0.0483029
-0.0639364
-0.069321
-0.0447057
-0.0199997
-0.0100223
0.000316918
-0.0191852
-0.0286875
-0.0383483
-0.0232125
-0.0181446
0.00183266
0.0169006
0.00203633
0.0122173
-0.0125791
-0.00755644
-0.0226696
-0.0179637
-0.0083257
0.000995576
0.00475109
-0.00262433
-0.021561
-0.0421492
-0.0597512
-0.0542081
-0.049638
-0.049276
-0.0613574
-0.0845248
-0.11638
-0.118145
-0.109185
-0.11595
-0.0988008
-0.0823302
-0.0761086
-0.0849774
-0.0889593
-0.113213
-0.122692
-0.112398
-0.0971043
-0.096765
-0.0963351
-0.0907242
-0.104932
-0.11405
-0.118122
-0.11733
-0.126471
-0.130656
-0.114548
-0.108281
-0.101765
-0.110113
-0.133371
-0.131607
-0.129774
-0.112919
-0.10595
-0.103891
-0.0916744
-0.10914
-0.111471
-0.113801
-0.116131
-0.0986201
-0.081154
-0.0737105
-0.0511766
-0.0535748
-0.0560408
-0.0687557
-0.0417421
-0.00511324
0.0213347
0.0474886
0.068484
0.0694116
0.0551808
0.0757917
0.0861536
0.111267
0.126108
0.110814
0.095475
0.0750225
0.04457
0.0190043
0.00823516
0.0172623
0.0159953
0.0195926
-0.0069685
-0.0335069
-0.0750453
-0.116674
-0.15353
-0.160543
-0.172738
-0.165113
-0.162579
-0.165068
-0.167466
-0.174842
-0.197059
-0.204276
-0.206561
-0.198733
-0.180837
-0.182783
-0.184344
-0.190521
-0.201493
-0.207376
-0.203236
-0.189073
-0.169774
-0.175272
-0.160611
-0.150792
-0.155747
-0.150701
-0.145634
-0.120656
-0.105724
-0.0908598
-0.0658598
0.00427604
0.13948
0.409774
0.765023
1.13011
1.56505
1.96991
2.175
2.0002
1.43059
0.585995
0.311199
-0.828778
-0.983824
-0.838914
-0.60405
-0.449118
-0.379027
-0.343869
-0.303778
-0.233733
-0.168982
-0.129367
-0.124729
-0.139955
-0.150181
-0.160407
-0.165543
-0.165792
-0.161109
-0.151584
-0.142059
-0.127579
-0.148122
-0.148529
-0.158823
-0.154118
-0.154502
-0.145068
-0.135656
-0.131176
-0.131651
-0.127036
-0.142398
-0.147647
-0.157986
-0.153348
-0.148914
-0.124525
-0.125068
-0.115452
-0.135769
-0.155792
-0.16086
-0.135995
-0.116289
-0.0914931
-0.0665383
-0.0714027
-0.0611085
-0.0707012
-0.0702488
-0.0649094
-0.0445022
-0.0191176
0.0113801
0.0269684
0.0375566
0.0581675
0.0586879
0.0840046
0.119072
0.149095
0.199208
0.224344
0.254548
0.254615
0.26457
0.299299
0.333778
0.363032
0.382353
0.426584
0.435792
0.449932
0.454027
0.447987
0.426787
0.410385
0.393937
0.382398
0.350905
0.309457
0.248032
0.186629
0.150226
0.138824
0.112398
0.096086
0.0548416
0.0237104
-0.00739825
-0.0232353
-0.0588462
-0.0743212
-0.0697285
-0.0751132
-0.0603169
-0.0603395
-0.0852264
-0.104955
-0.109344
-0.123122
-0.115747
-0.09181
-0.0661992
-0.0535747
-0.0790725
-0.07862
-0.098914
-0.101923
-0.0738914
-0.0621946
-0.0556788
-0.0447739
-0.0481675
-0.0504751
-0.0720362
-0.0833711
-0.0795475
-0.0756335
-0.0364706
-0.0170589
-0.0124887
-0.0279638
-0.0284616
-0.0291177
-0.0451583
-0.0370814
-0.0354751
-0.0106108
-0.0175112
-0.0262895
-0.0366741
-0.0629637
-0.0934388
-0.0966288
-0.0911537
-0.0764932
-0.0685973
-0.0796381
-0.0706335
-0.0835068
-0.0873077
-0.10181
-0.101629
-0.101742
-0.0619683
-0.0572398
-0.0573981
-0.0775113
-0.0875791
-0.132783
-0.1281
-0.118507
-0.0987783
-0.0939593
-0.093982
-0.108846
-0.118801
-0.123733
-0.133801
-0.123937
-0.119004
-0.103937
-0.103778
-0.108461
-0.122941
-0.142398
-0.141855
-0.126471
-0.0959502
-0.0952489
-0.104344
-0.108167
-0.116878
-0.11043
-0.109118
-0.0978282
-0.0813577
-0.0647061
-0.0829186
-0.0710407
-0.0539141
-0.0317421
-0.0196154
0.0124208
0.0443439
0.0711312
0.0778054
0.0994118
0.10095
0.11233
0.108416
0.104027
0.0992535
0.0891402
0.0889593
0.0685747
0.0680768
0.0622624
0.0512217
0.00481898
-0.0367195
-0.0734841
-0.0855429
-0.087647
-0.104751
-0.131855
-0.14905
-0.161516
-0.169208
-0.171946
-0.159729
-0.152376
-0.159797
-0.172036
-0.18405
-0.191064
-0.203077
-0.175091
-0.146946
-0.128507
-0.124796
-0.145769
-0.156539
-0.16224
-0.172919
-0.15362
-0.154344
-0.134977
-0.12052
-0.110702
-0.105747
-0.0907241
-0.100815
-0.0759503
-0.00110871
0.188688
0.513507
0.903507
1.30369
1.72896
2.09925
2.27946
2.09952
1.58455
0.779615
-0.145204
-0.849887
-1.07459
-1.07937
-0.664208
-0.454073
-0.314005
-0.249095
-0.194073
-0.16396
-0.148756
-0.148507
-0.158349
-0.158326
-0.148371
-0.143711
-0.128982
-0.134141
-0.134209
-0.144209
-0.154276
-0.139457
-0.134729
-0.115023
-0.100385
-0.110656
-0.120837
-0.115928
-0.121041
-0.151244
-0.146516
-0.126923
-0.0922851
-0.0974888
-0.102512
-0.117489
-0.127466
-0.127489
-0.13267
-0.102828
-0.0879866
-0.0930318
-0.0979865
-0.0978734
-0.0976923
-0.107466
-0.107262
-0.0819458
-0.0566064
-0.0361087
-0.0254526
-0.0145928
-0.0137331
-0.00778282
-0.0018326
0.0240498
0.0699095
0.0957693
0.136606
0.142489
0.163416
0.174231
0.205023
0.225747
0.276358
0.291765
0.307059
0.357263
0.372489
0.367715
0.382828
0.402783
0.437625
0.467376
0.472149
0.466991
0.441923
0.411901
0.391878
0.346697
0.311403
0.301041
0.270588
0.225294
0.185136
0.134977
0.074706
0.0442534
0.0285748
0.0228282
0.00699115
0.00115407
-0.0147057
-0.0304295
-0.0710179
-0.0815156
-0.0919003
-0.0822623
-0.0726469
-0.0678504
-0.0726242
-0.0664703
-0.0987554
-0.104117
-0.117602
-0.11405
-0.0837553
-0.0575563
-0.0571491
-0.053959
-0.0644115
-0.0790043
-0.0717871
-0.0756333
-0.0595246
-0.0716286
-0.0627373
-0.0431446
-0.0682804
-0.088122
-0.0678506
-0.0724885
-0.0521945
-0.0420136
-0.0368778
-0.0166289
-0.0263122
-0.0409728
-0.0407013
-0.0504751
-0.0353619
-0.0254072
-0.0154299
-0.0154525
-0.010362
-0.0202489
-0.0353621
-0.0409277
-0.0374209
-0.0255432
-0.0306336
-0.027602
-0.0463802
-0.0755658
-0.0955657
-0.113937
-0.129186
-0.125634
-0.0987331
-0.095249
-0.0917647
-0.104412
-0.108145
-0.10724
-0.141425
-0.140656
-0.120091
-0.124751
-0.119434
-0.12405
-0.128416
-0.147647
-0.141855
-0.141176
-0.140588
-0.115
-0.114299
-0.118235
-0.117014
-0.135566
-0.144163
-0.13776
-0.13138
-0.119864
-0.10328
-0.10138
-0.11448
-0.127489
-0.140226
-0.137941
-0.125747
-0.113552
-0.101222
-0.0887784
-0.0961314
-0.108394
-0.110702
-0.108235
-0.11095
-0.0838237
-0.0668328
-0.0550002
-0.0432128
-0.0465839
-0.0451586
-0.0239822
0.00694555
0.0274659
0.0677373
0.0778958
0.0881447
0.108348
0.113507
0.103416
0.0881446
0.077579
0.0568323
0.0659273
0.0599771
0.0439816
0.0229861
0.00680965
-0.0145025
-0.0511314
-0.067964
-0.0950682
-0.112263
-0.134412
-0.141493
-0.168756
-0.171109
-0.183643
-0.18638
-0.179118
-0.176787
-0.159299
-0.171765
-0.189095
-0.186222
-0.198371
-0.19552
-0.202444
-0.189163
-0.175611
-0.16681
-0.18276
-0.193484
-0.184186
-0.174887
-0.165475
-0.151041
-0.126471
-0.11672
-0.111878
-0.116856
-0.106901
-0.0669686
0.0227599
0.232556
0.587375
0.992353
1.41238
1.83249
1.95758
2.13249
1.76735
1.06213
0.211832
-0.528371
-0.883394
-0.853394
-0.588371
-0.353416
-0.278575
-0.258824
-0.249163
-0.214457
-0.164728
-0.134977
-0.125113
-0.160385
-0.180747
-0.176244
-0.151697
-0.127149
-0.122579
-0.122896
-0.158258
-0.16862
-0.179004
-0.164593
-0.145226
-0.130837
-0.13138
-0.126832
-0.147217
-0.132579
-0.137986
-0.148529
-0.139276
-0.125045
-0.11061
-0.121085
-0.11147
-0.126696
-0.141991
-0.137398
-0.112918
-0.103438
-0.0889589
-0.104276
-0.104502
-0.104615
-0.0996377
-0.0997734
-0.084977
-0.0801128
-0.0501128
-0.0249997
-0.014615
-0.0391173
-0.0435291
-0.0378504
0.00280571
0.0283033
0.0537332
0.0841404
0.109525
0.13
0.150543
0.155973
0.191222
0.226312
0.26138
0.296244
0.336154
0.351018
0.360882
0.360566
0.390271
0.404751
0.429163
0.458507
0.467873
0.452375
0.436923
0.416583
0.396176
0.370633
0.350068
0.329457
0.298914
0.248461
0.208122
0.162805
0.112466
0.0820132
0.0664477
0.0509273
0.0254748
0.0101355
-0.00509077
-0.0350908
-0.045023
-0.0850909
-0.0652266
-0.0703397
-0.0402266
-0.0597062
-0.0581904
-0.0750455
-0.0800683
-0.0831903
-0.0794799
-0.0502717
-0.0402492
-0.0218328
-0.0115613
-0.0251134
-0.0419234
-0.0503396
-0.0587107
-0.0609053
-0.0420818
-0.022851
-0.0385071
-0.0490953
-0.0345025
-0.0446383
-0.0646834
-0.0397288
-0.0249776
-0.0153848
-0.0207694
-0.0209277
-0.0259277
-0.0258145
-0.0158597
-0.0210634
-0.0164027
0.00816739
0.007828
0.00764692
-0.0024209
-0.0124208
-0.0124435
-0.0176245
-0.022828
-0.00809962
0.0215836
0.0264026
-0.00864267
-0.0185974
-0.02862
-0.0535974
-0.0487331
-0.038914
-0.019163
-0.0192761
-0.0243214
-0.0442535
-0.0492083
-0.0642083
-0.0742988
-0.0543892
-0.039525
-0.0345702
-0.034525
-0.0393214
-0.0589821
-0.0735748
-0.0833259
-0.0831902
-0.0730319
-0.0476925
-0.0471495
-0.0514708
-0.065679
-0.0748645
-0.0939822
-0.0830771
-0.0621495
-0.0410409
-0.0547739
-0.0433938
-0.0667874
-0.08
-0.0932806
-0.0717195
-0.0803168
-0.0538236
-0.0372399
-0.0304978
-0.0335974
-0.0517874
-0.0552489
-0.058914
-0.0528281
-0.0369005
-0.0259729
-0.0250002
-0.0340046
-0.0580996
-0.0673531
-0.0567647
-0.0413801
-0.0311991
-0.0159955
-0.0156335
-0.0201584
-0.0345927
-0.0440724
-0.0685521
-0.0731901
-0.0379186
-0.0278281
-0.0226246
-0.0323756
-0.0319684
-0.0416064
-0.0462444
-0.0459956
-0.0458824
-0.0308824
-0.0158371
-0.020724
-0.0304977
-0.0402262
-0.0449774
-0.0648416
-0.064819
-0.0447963
-0.0398641
-0.0299094
-0.0448189
-0.0496152
-0.0544795
-0.0594569
-0.0694795
-0.0596153
-0.0499772
-0.040294
-0.0256786
-0.0261085
-0.0532352
-0.0671945
-0.0931673
-0.0662668
-0.0760632
-0.0662442
-0.064932
-0.0750903
-0.0911537
-0.0985745
-0.109412
-0.0957239
-0.078303
-0.0569229
-0.0460407
-0.0451809
-0.0643438
-0.0786198
-0.0833031
-0.0781448
-0.0780317
-0.0580317
-0.0630091
-0.042896
-0.047715
-0.0525793
-0.0623983
-0.0723531
-0.0622852
-0.0423983
-0.0374888
-0.0274436
-0.0323304
-0.0471948
-0.0520138
-0.0569233
-0.0619911
-0.0521721
-0.032421
-0.032602
-0.032715
-0.0526699
-0.0575567
-0.0525115
-0.0326245
-0.0278055
-0.0131449
-0.0134842
-0.0186652
-0.0187104
-0.00882357
-0.0239366
-0.0242082
0.00531667
0.0497058
0.0842081
0.0936878
0.0882804
0.077941
0.0726469
0.10224
0.146583
0.175814
0.209932
0.224004
0.198144
0.167307
0.141402
0.130339
0.114095
0.107556
0.105905
0.0992985
0.0627147
0.0111763
-0.0304979
-0.0773305
-0.084412
-0.101697
-0.0991178
-0.091629
-0.0940046
-0.101358
-0.118733
-0.126199
-0.13862
-0.141063
-0.138507
-0.120882
-0.108077
-0.125
-0.121719
-0.148213
-0.149638
-0.140973
-0.132285
-0.123642
-0.129932
-0.115928
-0.121832
-0.132466
-0.138122
-0.138869
-0.124615
-0.10043
-0.0862218
-0.0569231
-0.0425566
-0.0131449
0.00644785
0.375995
0.780452
1.2198
1.68905
2.07351
2.15303
1.82767
1.07231
0.166878
-0.638643
-0.999299
-0.905046
-0.625679
-0.401267
-0.296765
-0.277195
-0.242602
-0.213168
-0.158846
-0.13457
-0.135294
-0.135996
-0.136629
-0.14724
-0.142693
-0.133213
-0.148801
-0.139503
-0.150272
-0.125973
-0.141403
-0.151878
-0.152308
-0.152806
-0.163417
-0.149095
-0.134819
-0.125566
-0.121154
-0.136607
-0.141991
-0.152444
-0.168055
-0.158643
-0.139299
-0.134819
-0.120204
-0.110475
-0.125702
-0.135928
-0.136154
-0.126403
-0.11672
-0.0870138
-0.0721496
-0.0770591
-0.0817425
-0.0814031
-0.0810863
-0.0859054
-0.065747
-0.0304528
-0.00988716
0.0108821
0.0268096
0.0278504
0.0338232
0.0495699
0.0751128
0.0906559
0.146086
0.181516
0.186991
0.192488
0.197851
0.227941
0.257783
0.297353
0.331878
0.336448
0.351063
0.355769
0.36052
0.370226
0.379842
0.369344
0.363846
0.358416
0.342919
0.302534
0.257263
0.226991
0.17172
0.146222
0.115679
0.105204
0.0947965
0.0794345
0.0340725
0.0188916
-0.0312895
-0.0416288
-0.0270587
-0.0325338
-0.0228959
-0.0379638
-0.0480089
-0.0529184
-0.0527148
-0.0774433
-0.0671265
-0.0702261
-0.0514704
-0.0457013
-0.0477374
-0.0529411
-0.0478054
-0.0291854
-0.0140948
-0.00809944
0.00923085
0.00993222
-0.00882334
-0.00626683
-0.00766951
-0.013665
-0.0196378
-0.00547487
0.00384635
0.00839382
0.0131223
0.00782824
0.0125794
0.00226253
-0.0130768
-0.00346148
0.00617653
0.0207467
0.0254073
0.0200452
-0.020181
-0.00549775
-0.00581455
0.00380093
0.0133711
0.022896
0.0274434
0.0271719
0.0019682
-0.00816745
-0.0233937
-0.00871032
0.00590497
-0.00461537
0.0149096
0.00466061
-0.0205883
-0.0306109
-0.0407015
-0.0459276
-0.046267
-0.0316969
-0.0321042
-0.0374888
-0.0427377
-0.0480092
-0.0634164
-0.0588916
-0.0594346
-0.0400455
-0.0408373
-0.0417423
-0.0574889
-0.0731451
-0.0737107
-0.0841858
-0.0946382
-0.0750229
-0.0553396
-0.0654302
-0.055317
-0.0599324
-0.0692537
-0.0784392
-0.0824438
-0.0713804
-0.0550229
-0.0385297
-0.0317197
-0.0547062
-0.0575342
-0.0652265
-0.0729641
-0.0657468
-0.0585296
-0.0362219
-0.0439143
-0.0565161
-0.0340953
-0.0367197
-0.0445704
-0.0576247
-0.05086
-0.0244573
-0.013145
-0.016878
-0.0206789
-0.0194799
-0.0233713
-0.047489
-0.0517876
-0.0263124
-0.010973
-0.000588417
-0.010249
-0.0498418
-0.0395703
-0.0394799
-0.0496608
-0.0354074
-0.0273983
-0.0109051
-0.0209956
-0.032783
-0.0563803
-0.0863803
-0.0914481
-0.0898644
-0.0700227
-0.0711765
-0.0637783
-0.0598417
-0.0810408
-0.0885295
-0.0920815
-0.0760409
-0.0601585
-0.0543212
-0.0585521
-0.0528055
-0.0671946
-0.0616064
-0.0710182
-0.0554073
-0.0598643
-0.0443665
-0.0388913
-0.0382805
-0.0476243
-0.0519456
-0.056267
-0.0508372
-0.0604526
-0.0450905
-0.0346155
-0.0340272
-0.023371
-0.0476472
-0.0519684
-0.061448
-0.0559955
-0.0406334
-0.0352262
-0.0197059
-0.0191402
-0.0483937
-0.0427375
-0.0772398
-0.051923
-0.0366968
-0.0214479
-0.00117654
0.00416291
0.00952482
0.00990939
0.0302262
0.0554072
0.0654525
0.0804299
0.0954072
0.130566
0.175724
0.17586
0.175882
0.175724
0.17043
0.165068
0.15457
0.154231
0.129005
0.0986652
0.0932806
0.0627375
0.0370362
0.00122154
-0.00972861
-0.0457468
-0.0467422
-0.0776924
-0.0887105
-0.119955
-0.136425
-0.1231
-0.109955
-0.101833
-0.113756
-0.125588
-0.152534
-0.16457
-0.171584
-0.163688
-0.165769
-0.157828
-0.134683
-0.141357
-0.162692
-0.158914
-0.170045
-0.166086
-0.162127
-0.138077
-0.138959
-0.119525
-0.114887
-0.110045
-0.115181
-0.100543
-0.0708823
-0.0161538
0.10862
0.358552
0.703552
1.04869
1.4388
1.83891
2.13891
2.13882
1.76876
1.05876
0.183891
-0.595837
-0.915543
-0.880339
-0.610317
-0.370362
-0.280475
-0.25043
-0.245339
-0.215204
-0.20009
-0.164977
-0.155
-0.160091
-0.160181
-0.155226
-0.160272
-0.145181
-0.165068
-0.15991
-0.159842
-0.164864
-0.149977
-0.12509
-0.120249
-0.135317
-0.150249
-0.155204
-0.165136
-0.155226
-0.145339
-0.140452
-0.135543
-0.130498
-0.140362
-0.160136
-0.17991
-0.169842
-0.159819
-0.129955
-0.119955
-0.129774
-0.134457
-0.133982
-0.13853
-0.148122
-0.137692
-0.112172
-0.0965161
-0.0758373
-0.0750454
-0.0940952
-0.0929639
-0.0866517
-0.0753848
-0.0492082
-0.0180092
-0.0118328
0.00941157
-0.00434399
-0.00809973
0.00798631
0.0289591
0.0598415
0.0856334
0.101312
0.126832
0.15233
0.162805
0.168213
0.188484
0.213597
0.258552
0.293507
0.323597
0.333824
0.349072
0.349299
0.364389
0.369366
0.384231
0.39905
0.383937
0.363937
0.324004
0.309208
0.244321
0.214299
0.189299
0.169231
0.164231
0.119321
0.0995474
0.054819
0.0251358
-0.00954753
-0.024276
-0.0141177
-0.00882357
-0.0234389
-0.0427602
-0.061448
-0.0640045
-0.0700001
-0.0644797
-0.0623078
-0.0432807
-0.0328735
-0.0223984
-0.0184616
-0.0177603
-0.0460181
-0.0478507
-0.0311539
-0.0193439
-0.0163574
-0.00728506
-0.0277828
-0.0230995
-0.0284163
-0.0286426
-0.0238462
-0.00889146
0.0111312
0.00113118
0.00615382
0.00124437
-0.0136878
-0.0135747
-0.0236426
-0.0137104
0.00119913
0.0160633
0.0211086
0.0212896
0.0165384
-0.00325787
0.00178736
0.00671959
0.0165159
0.0164254
0.00644803
0.00653857
-0.00830311
-0.0231447
-0.0280995
-0.0281448
-0.0233485
-0.00857472
-0.00873321
-0.0137331
-0.0385747
-0.0534164
-0.0683711
-0.0583711
-0.043439
-0.048552
-0.0486425
-0.0535294
-0.0483258
-0.0579864
-0.077647
-0.0824434
-0.0773304
-0.0671946
-0.0469909
-0.0516741
-0.051199
-0.0706787
-0.0799999
-0.079457
-0.0690497
-0.0736651
-0.0583258
-0.0678959
-0.0673981
-0.0668777
-0.0713121
-0.100633
-0.0849546
-0.0843438
-0.0588234
-0.0533709
-0.0677148
-0.0819229
-0.0958822
-0.0897284
-0.0935293
-0.0723981
-0.0711311
-0.0548189
-0.048371
-0.0516741
-0.0749999
-0.0783484
-0.0817195
-0.0650227
-0.0535973
-0.0521947
-0.0458372
-0.0545249
-0.0680544
-0.0717874
-0.0806336
-0.0697738
-0.0640724
-0.0485069
-0.0279412
-0.0423303
-0.0315838
-0.0409276
-0.0554299
-0.0551358
-0.0548869
-0.0447058
-0.0195702
-0.0293892
-0.0341629
-0.0488913
-0.0786424
-0.073484
-0.0734388
-0.0635973
-0.0588687
-0.0490045
-0.0390497
-0.039095
-0.0442308
-0.0547058
-0.0509275
-0.043552
-0.0378733
-0.0440045
-0.0568552
-0.0662217
-0.080905
-0.0991856
-0.104412
-0.100814
-0.0789593
-0.0707467
-0.0626923
-0.0557691
-0.0797963
-0.0841402
-0.0935521
-0.0979185
-0.077534
-0.0573303
-0.0372171
-0.0521041
-0.0668778
-0.0766289
-0.08638
-0.0812895
-0.0664253
-0.0666063
-0.051742
-0.0368326
-0.0417873
-0.0466742
-0.0716289
-0.0817873
-0.0620362
-0.0523076
-0.042579
-0.0427374
-0.0378731
-0.0579636
-0.0630088
-0.073122
-0.0733935
-0.0638233
-0.0442305
-0.0445473
-0.0497735
-0.0498639
-0.0549771
-0.0601581
-0.0754523
-0.0608369
-0.0362667
-0.0167192
0.0128509
0.0225116
0.0321269
0.0417197
0.0563352
0.0557696
0.0649551
0.0841405
0.123371
0.162738
0.162059
0.166267
0.140226
0.124005
0.127647
0.141177
0.124751
0.118303
0.101855
0.0603846
0.0488235
0.0319908
-0.00500011
-0.0370815
-0.0441856
-0.0712671
-0.0884165
-0.100566
-0.142828
-0.145317
-0.142941
-0.125634
-0.123326
-0.130928
-0.148326
-0.150566
-0.17776
-0.174819
-0.161833
-0.138846
-0.13577
-0.132512
-0.12414
-0.14034
-0.141471
-0.152511
-0.148507
-0.134593
-0.115588
-0.101448
-0.0771722
-0.0877831
-0.0933261
-0.0888238
-0.0592989
-0.00486445
0.164547
0.468982
0.843529
1.24814
1.64276
1.99742
2.05697
1.75145
1.07086
0.210317
-0.510158
-0.820521
-0.775837
-0.511109
-0.28638
-0.211787
-0.197263
-0.212873
-0.178507
-0.134005
-0.109367
-0.0996155
-0.124887
-0.140249
-0.140769
-0.121358
-0.0869005
-0.082353
-0.0927603
-0.0980545
-0.113281
-0.128575
-0.118937
-0.0993893
-0.094887
-0.105272
-0.0955659
-0.105679
-0.115815
-0.12595
-0.141267
-0.121584
-0.0969685
-0.0823079
-0.0925341
-0.107625
-0.117715
-0.127828
-0.127941
-0.113122
-0.108326
-0.0986427
-0.088801
-0.0737785
-0.083507
-0.0880771
-0.0876925
-0.0823304
-0.0869458
-0.0514255
-0.0259051
-0.0103621
-0.0196608
-0.0237784
-0.00776023
0.00323528
0.0442534
0.0700679
0.105905
0.12681
0.137851
0.143824
0.159819
0.170701
0.186403
0.222059
0.252624
0.268122
0.288462
0.293801
0.30905
0.314186
0.32914
0.363869
0.38862
0.393439
0.403394
0.388394
0.358416
0.343371
0.318326
0.298077
0.277873
0.262715
0.242692
0.202715
0.187851
0.117964
0.0930091
0.0680317
0.0429411
0.0328505
0.0179636
-0.011878
-0.0316292
-0.0511993
-0.0558599
-0.0555658
-0.0603622
-0.0450002
-0.0493892
-0.047964
-0.0600681
-0.0604074
-0.0539368
-0.0608147
-0.026222
-0.00631243
0.00730747
0.00294089
-0.00531703
-0.0118328
-0.019774
-0.0275794
-0.024231
-0.0198871
-0.0102265
0.00963783
0.00945681
-0.000565827
-0.0103396
-0.0150906
-0.0248417
-0.0197287
0.00531662
0.0103619
0.00552022
0.000904977
-0.00871038
-0.018371
-0.0181222
-0.00791854
0.0021494
-0.00269222
-0.00239813
-0.00710404
-0.0167873
-0.0464706
-0.041267
-0.0361766
-0.0161539
-0.0211086
-0.0159729
-0.0256562
-0.0402489
-0.0499096
-0.0496607
-0.0495476
-0.0495928
-0.039706
-0.0397739
-0.0297964
-0.0498417
-0.0648643
-0.099887
-0.104955
-0.085113
-0.0703846
-0.0658598
-0.0815158
-0.0821267
-0.077534
-0.0928054
-0.0931901
-0.0835294
-0.078733
-0.0788913
-0.0588914
-0.0786651
-0.0881674
-0.102376
-0.101335
-0.110158
-0.0988688
-0.0975113
-0.0960633
-0.0893891
-0.107353
-0.100226
-0.103054
-0.105882
-0.0937557
-0.0615384
-0.0491629
-0.0515836
-0.0588913
-0.0661764
-0.068371
-0.0757239
-0.0732353
-0.070905
-0.0487105
-0.0515159
-0.0443892
-0.0472851
-0.0502037
-0.0683711
-0.0516743
-0.0503621
-0.0441404
-0.0280544
-0.0221041
-0.0512218
-0.0404527
-0.0447739
-0.0592535
-0.048982
-0.0439141
-0.0194119
-0.0260409
-0.0291178
-0.0438915
-0.0705205
-0.0940273
-0.0987557
-0.0781902
-0.0555884
-0.0695477
-0.0896834
-0.106674
-0.102421
-0.0983938
-0.09043
-0.0734617
-0.0620589
-0.055792
-0.0495704
-0.078688
-0.082964
-0.0823305
-0.0918327
-0.071335
-0.0608826
-0.05543
-0.0549322
-0.0542988
-0.0586879
-0.0730771
-0.0675567
-0.0671269
-0.0517422
-0.0563803
-0.0409052
-0.0503169
-0.0597062
-0.0540953
-0.0685748
-0.058145
-0.0428734
-0.0275794
-0.0222401
-0.0417876
-0.0412672
-0.055679
-0.0601813
-0.0547288
-0.049412
-0.0290726
-0.00382376
0.0114251
0.0168324
0.0122396
0.0276695
0.0329636
0.0480767
0.047941
0.0627826
0.0877148
0.13776
0.172873
0.197918
0.177873
0.16276
0.177466
0.162127
0.14681
0.146516
0.151244
0.125995
0.100656
0.0552034
0.0095247
-0.0163124
-0.0272626
-0.0331901
-0.0391404
-0.0552491
-0.10638
-0.112738
-0.104163
-0.100702
-0.0772626
-0.0938463
-0.115249
-0.126652
-0.128168
-0.129774
-0.141561
-0.123326
-0.120045
-0.101765
-0.0983937
-0.119774
-0.126018
-0.137194
-0.153326
-0.139434
-0.12552
-0.111425
-0.11724
-0.112805
-0.108235
-0.103575
-0.0940272
-0.10448
-0.0899096
-0.0553168
-0.0156562
0.109118
0.354095
0.689004
1.05894
1.46871
1.86839
2.1331
2.06776
1.60258
0.867602
0.0326019
-0.657511
-0.942783
-0.903145
-0.673484
-0.458801
-0.339072
-0.304253
-0.289412
-0.204547
-0.149887
-0.130294
-0.110746
-0.121267
-0.116719
-0.127036
-0.132285
-0.137579
-0.127918
-0.133394
-0.118982
-0.109502
-0.110045
-0.105498
-0.120905
-0.136177
-0.146448
-0.146787
-0.132172
-0.122692
-0.11819
-0.118507
-0.123688
-0.128756
-0.148846
-0.159027
-0.149366
-0.154751
-0.13509
-0.140294
-0.120385
-0.120317
-0.145203
-0.145113
-0.14009
-0.130022
-0.104932
-0.0847738
-0.0845928
-0.0841404
-0.0934842
-0.102715
-0.101855
-0.080905
-0.0601357
-0.0343665
-0.0234389
-0.0175113
-0.016629
-0.0207692
-0.00488693
-0.00418556
0.0113347
0.0466968
0.0819004
0.0970814
0.102285
0.107421
0.142557
0.152511
0.182262
0.201991
0.221765
0.221584
0.236606
0.226606
0.236493
0.256312
0.266086
0.295837
0.285543
0.265385
0.265272
0.245294
0.21043
0.175407
0.165226
0.150045
0.139751
0.114615
0.0895928
0.0696378
0.0196831
0.00470579
-0.0102715
-0.0153168
-0.00533938
-0.015362
-0.0352489
-0.0399096
-0.0593892
-0.0783485
-0.0661313
-0.0674887
-0.0372173
-0.0300906
-0.0410408
-0.0158145
-0.0108145
-0.0179412
-0.0184389
-0.0127829
-0.000271499
0.0159275
0.00733018
0.00486416
0.00843877
-0.00244367
-0.00316769
-0.0039143
0.0106333
0.0204071
0.0303618
0.0354069
0.0404975
0.0206332
0.0107011
0.0206332
0.0305653
0.0555201
0.0654521
0.0554069
0.0604974
0.0556105
0.0407689
0.0257689
0.0156785
0.0204974
0.0353165
0.0503165
0.0554069
0.0304974
0.0155654
-0.00438935
-0.0194798
0.00031656
0.0200678
0.0248867
0.0196831
-0.00531691
-0.0103395
-0.0202942
-0.0153621
-0.00561094
0.00402701
0.00852919
0.00807667
0.00771469
0.00244319
-0.0428057
-0.0630999
-0.0385975
-0.0243667
-0.0203171
-0.00126737
-0.017014
-0.0375569
-0.0529642
-0.0583262
-0.0536202
-0.0539596
-0.0392311
-0.0243894
-0.0344121
-0.0440275
-0.063281
-0.0773759
-0.0663578
-0.0702944
-0.0440727
-0.0477378
-0.046222
-0.0445251
-0.0476474
-0.0657921
-0.073869
-0.0671043
-0.0603622
-0.0484618
-0.0414935
-0.0393667
-0.0472174
-0.0501812
-0.0581676
-0.0763123
-0.0597059
-0.0282354
-0.0368327
-0.0255204
-0.0441629
-0.052896
-0.0517421
-0.0557693
-0.0451132
-0.0396155
-0.0192308
-0.0138915
-0.0235747
-0.0385973
-0.0546832
-0.057466
-0.0523303
-0.0744569
-0.0635747
-0.0640272
-0.0738688
-0.106403
-0.105317
-0.120068
-0.112104
-0.0985972
-0.0810181
-0.0745927
-0.0683936
-0.0726019
-0.0917421
-0.105837
-0.105068
-0.104615
-0.084276
-0.0639367
-0.0583936
-0.0776696
-0.0768324
-0.096018
-0.100294
-0.094751
-0.0692985
-0.0738235
-0.06819
-0.0674434
-0.0566063
-0.0757918
-0.079932
-0.0841854
-0.0635293
-0.0580089
-0.0474886
-0.0469003
-0.0711764
-0.0803844
-0.0746152
-0.0690044
-0.0685066
-0.0431447
-0.037828
-0.0373755
-0.0417873
-0.0411764
-0.0655429
-0.0650904
-0.0597737
-0.03457
-0.0193664
0.00590497
0.0412219
0.0416291
0.0470137
0.0473984
0.042602
0.0524889
0.08724
0.137014
0.176878
0.196788
0.17181
0.151629
0.131267
0.125724
0.11
0.114186
0.113416
0.0876473
0.0719004
0.0160407
-0.0300226
-0.0513801
-0.0728733
-0.0794796
-0.0811765
-0.0977375
-0.109344
-0.131063
-0.152896
-0.149819
-0.151923
-0.12905
-0.116131
-0.133168
-0.14
-0.146742
-0.163348
-0.159955
-0.156493
-0.142986
-0.124412
-0.130588
-0.126358
-0.122081
-0.142602
-0.148122
-0.148688
-0.129208
-0.109706
-0.090068
-0.0802941
-0.0753846
-0.0603846
0.00461549
0.219457
0.589141
1.0288
1.50851
1.95812
2.24799
2.13794
1.62787
0.807625
-0.0976695
-0.703031
-0.838371
-0.63862
-0.378801
-0.313869
-0.203959
-0.224072
-0.234344
-0.199751
-0.140181
-0.11552
-0.115746
-0.145814
-0.175882
-0.191086
-0.181267
-0.156651
-0.137081
-0.127443
-0.122737
-0.147964
-0.148077
-0.158167
-0.16328
-0.168552
-0.148868
-0.144162
-0.129343
-0.139457
-0.149389
-0.164298
-0.164389
-0.154547
-0.144615
-0.134796
-0.124932
-0.129909
-0.139819
-0.149638
-0.149457
-0.159298
-0.144344
-0.119502
-0.10457
-0.0994794
-0.104231
-0.103823
-0.11828
-0.11276
-0.112285
-0.0768551
-0.0514253
-0.0409502
-0.0202715
-0.0242987
-0.0280995
-0.0318326
-0.000724077
0.0202262
0.0461313
0.0820135
0.107896
0.0988234
0.114796
0.125633
0.141312
0.176674
0.221878
0.237013
0.272081
0.287194
0.282375
0.287488
0.312511
0.337307
0.352013
0.371764
0.366583
0.361538
0.356629
0.321651
0.306583
0.27647
0.266176
0.245995
0.225905
0.190927
0.151108
0.0912666
0.0713798
0.0364476
0.0163345
0.0162441
0.00613099
-0.003869
-0.023688
-0.0483938
-0.0580997
-0.0728284
-0.0825115
-0.0619459
-0.0404075
-0.0321949
-0.0268781
-0.0143668
-0.0398194
-0.0388691
-0.0235298
-0.000588536
0.0185969
0.0187553
0.0161987
0.00307655
0.00090462
-0.0201362
-0.0108828
-0.0111996
0.00339311
0.0179406
0.0226691
0.00273705
-0.0020141
-0.0168331
-0.0117426
-0.00187832
-0.00712711
0.0175787
0.022443
0.0124657
0.0226467
0.00280499
-0.0171949
-0.022195
-0.00728542
0.0075109
0.0123525
0.00228477
-0.00276041
-0.0126699
-0.0426021
-0.0475795
-0.0326926
-0.0278962
-0.043032
-0.013145
-0.0230998
-0.0329415
-0.042851
-0.0628735
-0.0679867
-0.0630998
-0.0432582
-0.0182356
-0.0330998
-0.0428736
-0.0626699
-0.072489
-0.0673079
-0.0622853
-0.047308
-0.0373532
-0.0421721
-0.0418101
-0.0514029
-0.0659503
-0.0755431
-0.0702038
-0.0598871
-0.0445251
-0.05405
-0.053507
-0.0678508
-0.0722399
-0.0818327
-0.0764028
-0.0559955
-0.0405204
-0.0499095
-0.0542082
-0.058552
-0.0727602
-0.0869457
-0.0861086
-0.0752263
-0.0441175
-0.0428732
-0.046561
-0.0600451
-0.0635067
-0.0769004
-0.0751808
-0.0585292
-0.051855
-0.0251808
-0.043484
-0.056742
-0.064932
-0.0782804
-0.0768778
-0.0608371
-0.0449095
-0.0241176
-0.0333937
-0.0275792
-0.0317421
-0.0509955
-0.0553847
-0.0449548
-0.0345476
-0.029276
-0.0190951
-0.0187784
-0.0183259
-0.0427829
-0.0472625
-0.0467874
-0.0665386
-0.041335
-0.0211766
-0.010973
-0.0256789
-0.0304073
-0.0401359
-0.0501133
-0.0402489
-0.040973
-0.0276471
-0.0309051
-0.035724
-0.0473078
-0.0707467
-0.0954751
-0.0899774
-0.107511
-0.0914932
-0.0815158
-0.058914
-0.0653619
-0.0775338
-0.100905
-0.0899773
-0.0792986
-0.0787557
-0.0682126
-0.0476697
-0.0621945
-0.0616968
-0.0612669
-0.0758597
-0.0804977
-0.080362
-0.0653167
-0.0451584
-0.0499095
-0.0446833
-0.0692987
-0.0839367
-0.0736879
-0.0585521
-0.0485748
-0.048507
-0.0483487
-0.0731224
-0.0727604
-0.077489
-0.0672854
-0.0672854
-0.0673305
-0.0473759
-0.0324211
-0.0273532
-0.0421722
-0.0570364
-0.0569459
-0.0469458
-0.0420815
-0.0322852
-0.0324435
-0.012534
-0.0174435
-0.0074209
0.00260174
0.0373981
0.0720587
0.0816063
0.096199
0.0959049
0.100701
0.125385
0.149932
0.154389
0.163665
0.15276
0.146787
0.120792
0.114977
0.114186
0.0883033
0.077172
0.055905
0.0244117
0.00280535
-0.0187783
-0.0503846
-0.0668778
-0.098552
-0.135385
-0.137443
-0.124661
-0.106946
-0.104163
-0.111312
-0.118394
-0.14043
-0.157376
-0.149321
-0.141312
-0.128235
-0.134955
-0.121584
-0.112851
-0.123937
-0.134887
-0.150747
-0.146584
-0.132398
-0.118122
-0.118846
-0.104389
-0.0997058
-0.104955
-0.100271
-0.100701
-0.0561764
-0.0217194
0.0878282
0.307444
0.657172
1.01692
1.42167
1.83638
2.10097
2.04554
1.59514
0.814706
-0.0506108
-0.635837
-0.820973
-0.656222
-0.401606
-0.237149
-0.202715
-0.193145
-0.198507
-0.183733
-0.153891
-0.15414
-0.14948
-0.149842
-0.150339
-0.130814
-0.116244
-0.126471
-0.141629
-0.151855
-0.157127
-0.162579
-0.148122
-0.133597
-0.118982
-0.144185
-0.159344
-0.154502
-0.159819
-0.155136
-0.15052
-0.125859
-0.126154
-0.121403
-0.116448
-0.12647
-0.14138
-0.13638
-0.126516
-0.116674
-0.101697
-0.0966966
-0.101493
-0.106335
-0.131086
-0.125905
-0.125724
-0.0905201
-0.0652033
-0.0497056
-0.0540269
-0.0582124
-0.062398
-0.0465835
-0.0207691
-0.00486416
0.0210407
0.0470815
0.0631222
0.0792083
0.0702037
0.0661086
0.081991
0.122738
0.148416
0.183959
0.209389
0.219774
0.230136
0.230407
0.250566
0.270475
0.310136
0.329819
0.344615
0.344661
0.344796
0.349932
0.329909
0.314706
0.309389
0.299163
0.279004
0.243959
0.233937
0.159118
0.129231
0.0992758
0.079208
0.0490496
0.0389137
0.0188233
-0.000995755
-0.0159053
-0.0457242
-0.0504979
-0.0503848
-0.0302716
-0.030068
-0.0247061
-0.034163
-0.048145
-0.0561088
-0.0574889
-0.05224
-0.0401586
-0.0212899
-0.0211542
-0.00122207
0.00167388
0.00108564
-0.0084393
-0.0107017
0.00115365
0.0136649
0.0223526
0.0369002
0.0165834
0.00133461
-0.0189143
-0.0141178
-0.00920832
0.0106332
0.0154975
0.030407
0.0203618
0.010475
-0.0193214
-0.0141856
-0.00418562
0.0107012
0.0255429
0.0304071
0.0253618
0.0204522
-0.00950241
-0.0197061
-0.0201133
-0.0106336
-0.011154
-0.00171965
-0.00221729
-0.0126698
-0.023258
-0.0490726
-0.0399548
-0.060905
-0.0569004
-0.0428507
-0.0387331
-0.0593891
-0.0599321
-0.0953394
-0.0857465
-0.0860407
-0.0762669
-0.0662669
-0.0610633
-0.0506788
-0.0551131
-0.0844344
-0.0987784
-0.0981675
-0.0925567
-0.0669004
-0.0611086
-0.0552489
-0.0742308
-0.0830091
-0.0966742
-0.100339
-0.0841176
-0.078009
-0.0718098
-0.0654523
-0.0538912
-0.0571944
-0.0653617
-0.0784839
-0.0866513
-0.074864
-0.047986
-0.0260856
-0.0290042
-0.0368322
-0.0696149
-0.082375
-0.0852032
-0.0531897
-0.0319227
-0.0219452
-0.0336646
-0.0422846
-0.0578955
-0.0754974
-0.113959
-0.0966964
-0.0968547
-0.0832121
-0.0784158
-0.0742303
-0.0645922
-0.105837
-0.0831217
-0.086176
-0.0898185
-0.0687552
-0.0629407
-0.0821716
-0.0714702
-0.0757235
-0.0699543
-0.0743435
-0.0738232
-0.0733255
-0.0728729
-0.0524204
-0.0669001
-0.0763797
-0.0757915
-0.0853164
-0.0798865
-0.0595245
-0.0490945
-0.0285743
-0.0329407
-0.0572168
-0.051357
-0.055701
-0.0602258
-0.0548638
-0.0494339
-0.0339814
-0.0334384
-0.0428275
-0.0521036
-0.0664023
-0.0708592
-0.0654972
-0.0501578
-0.0348184
-0.0293659
-0.0387777
-0.0431216
-0.0574881
-0.031945
-0.00156039
0.0286885
0.0588468
0.0540277
0.069254
0.0595481
0.0748196
0.104978
0.159978
0.179774
0.184503
0.179096
0.173734
0.168349
0.127987
0.117444
0.0918331
0.0859959
0.0550456
0.0140728
-0.0318549
-0.0777599
-0.0836647
-0.0997055
-0.110905
-0.112352
-0.109004
-0.115656
-0.112307
-0.118778
-0.120203
-0.131561
-0.153031
-0.164547
-0.151108
-0.137579
-0.118868
-0.125045
-0.121085
-0.1419
-0.137624
-0.143303
-0.144004
-0.124705
-0.115339
-0.115837
-0.101063
-0.101176
-0.101221
-0.0963572
-0.101697
-0.0871491
-0.0475789
0.0971044
0.366991
0.736969
1.14695
1.56686
1.97167
2.1514
1.91597
1.31566
0.445385
0.170317
-0.829728
-0.939842
-0.764909
-0.555249
-0.400497
-0.300747
-0.241018
-0.186244
-0.156403
-0.141652
-0.1469
-0.16224
-0.14267
-0.1331
-0.133507
-0.123823
-0.119095
-0.124299
-0.134638
-0.140113
-0.120611
-0.116131
-0.111584
-0.126878
-0.132104
-0.142172
-0.152285
-0.167534
-0.142783
-0.118077
-0.113394
-0.123665
-0.123869
-0.123937
-0.133959
-0.144118
-0.149344
-0.124661
-0.115
-0.105294
-0.0953847
-0.105407
-0.120385
-0.130407
-0.130543
-0.115724
-0.110792
-0.0906787
-0.0703846
-0.0649095
-0.0744796
-0.0790046
-0.0736427
-0.0581901
-0.0326472
-0.0118552
0.0140949
0.0251356
0.0211764
0.0421945
0.0431674
0.0639367
0.0795701
0.0950904
0.130633
0.136154
0.136606
0.141855
0.14681
0.186697
0.216448
0.241154
0.270928
0.270769
0.275634
0.260566
0.255475
0.245294
0.249977
0.249547
0.244118
0.218824
0.193642
0.173529
0.148462
0.103326
0.0930542
0.0777601
0.0725112
0.0572851
0.0321719
0.0121493
-0.0228281
-0.0278507
-0.047896
-0.0380318
-0.0281903
-0.0183712
-0.028439
-0.0232127
-0.0473757
-0.0552716
-0.0615159
-0.0459051
-0.0283938
-0.00904995
0.00604045
0.0152034
0.0166966
-0.0107694
-0.00950247
0.00217181
-0.00667441
0.00524867
0.0031445
-0.00312239
-0.00398213
0.00538433
-0.00502288
-0.00529444
0.0044567
0.0191627
0.0437328
0.0384386
0.0331219
0.012805
0.00244302
0.00694531
0.0213119
0.040588
0.0448188
0.0391174
0.0284613
0.0127147
0.00685495
-0.00914049
-0.00527167
-0.00144821
0.00239789
0.00642514
0.00565588
6.76513e-05
-0.0105432
-0.0261766
-0.03681
-0.0174661
-0.0130317
-0.00846165
-0.00850689
-0.0133712
-0.0431675
-0.0428281
-0.0475113
-0.0473077
-0.0272173
-0.032172
-0.0319684
-0.0416968
-0.0512444
-0.0607241
-0.0552263
-0.0498417
-0.0345928
-0.0392987
-0.0289593
-0.0284163
-0.0427376
-0.0568779
-0.0610182
-0.0602716
-0.0544797
-0.048733
-0.0279185
-0.0270135
-0.0359953
-0.0598415
-0.0837329
-0.0826922
-0.0617646
-0.0509275
-0.0350904
-0.03457
-0.049819
-0.0615157
-0.0749773
-0.0903619
-0.0977827
-0.0864706
-0.074819
-0.0777601
-0.0902714
-0.103869
-0.109864
-0.100203
-0.111425
-0.0890949
-0.0777374
-0.0666062
-0.080475
-0.0842307
-0.0881221
-0.0973076
-0.106697
-0.0812668
-0.0758595
-0.0554522
-0.0449772
-0.0445021
-0.0539138
-0.0783709
-0.0678732
-0.0775564
-0.0723075
-0.0721266
-0.0718777
-0.0715157
-0.0560858
-0.0855428
-0.095045
-0.0896605
-0.0844569
-0.0692759
-0.0639591
-0.0586198
-0.0632352
-0.0928279
-0.0824207
-0.0720587
-0.0666967
-0.0664704
-0.0562443
-0.0509727
-0.0355655
-0.0450451
-0.0295474
-0.0291402
-0.00877827
0.0263802
0.0515385
0.0617421
0.0670814
0.072466
0.0677827
0.0930994
0.103235
0.128213
0.148009
0.147783
0.127579
0.112353
0.092104
0.0567872
0.0513121
0.0556107
0.0548415
0.0489365
0.0180542
-0.0178734
-0.0788915
-0.109955
-0.116154
-0.137625
-0.144253
-0.135973
-0.12267
-0.114435
-0.136199
-0.147941
-0.169774
-0.166742
-0.158801
-0.145792
-0.12267
-0.129299
-0.125792
-0.147036
-0.158168
-0.174186
-0.165181
-0.146131
-0.136991
-0.127692
-0.123235
-0.128552
-0.138778
-0.133982
-0.119253
-0.104593
-0.0748869
-0.0500905
-0.0102941
0.0896379
0.284593
0.634479
1.02428
1.45403
1.88869
2.16333
2.0781
1.99305
0.793099
-0.076946
-0.677082
-0.847376
-0.672625
-0.377964
-0.208168
-0.168236
-0.183281
-0.213371
-0.198598
-0.158892
-0.134276
-0.129729
-0.130046
-0.150294
-0.155385
-0.145475
-0.160566
-0.160792
-0.146177
-0.131584
-0.127036
-0.122398
-0.127693
-0.142964
-0.148235
-0.168462
-0.158869
-0.139321
-0.129751
-0.125159
-0.14043
-0.150611
-0.145747
-0.150882
-0.156222
-0.146516
-0.136787
-0.117014
-0.11715
-0.117195
-0.13215
-0.132059
-0.132082
-0.117082
-0.127059
-0.0919688
-0.0866521
-0.0811318
-0.0904982
-0.0948647
-0.0842538
-0.0937561
-0.0681905
-0.0374665
-0.0116748
-0.000769734
0.000180542
0.0110629
0.0218546
0.0375334
0.0680311
0.108461
0.108846
0.129411
0.144999
0.160452
0.185746
0.195746
0.220543
0.250271
0.284954
0.299615
0.294389
0.329208
0.324117
0.318868
0.328484
0.347986
0.357488
0.347081
0.326809
0.286787
0.251696
0.206583
0.18138
0.141063
0.120701
0.105452
0.0853164
0.0552486
0.0252032
-0.00481945
-0.0249326
-0.0401814
-0.0504302
-0.060566
-0.0706565
-0.0705208
-0.0602266
-0.0747741
-0.0789369
-0.0772402
-0.0639143
-0.0588465
-0.0418103
-0.027851
-0.027557
-0.0375795
-0.0429869
-0.0289371
-0.0238918
-0.00156158
-0.0100231
-0.00760221
-0.0188466
-0.0392538
-0.03448
-0.0398646
-0.0154528
-0.00599587
0.00361949
0.00839329
0.00325757
-0.00681025
-0.0219913
-0.0121948
-0.0123532
0.00733
0.0169907
0.0316739
0.0314478
0.0163347
0.00128937
-0.00377846
-0.00400472
0.000701129
0.0102939
0.00995445
0.00970566
0.00950205
-0.00558847
-0.0208147
-0.0260863
-0.0314255
-0.0167197
-0.017127
-0.0124437
-0.0176473
-0.0376699
-0.0476699
-0.0627152
-0.0578961
-0.0430546
-0.0333487
-0.0385071
-0.0336654
-0.0486202
-0.068575
-0.0835976
-0.0788012
-0.0691406
-0.0495251
-0.0399776
-0.0653849
-0.0556563
-0.0608374
-0.0710183
-0.0762446
-0.0715613
-0.0669912
-0.062421
-0.0525793
-0.0374209
-0.0771721
-0.0867875
-0.0863349
-0.0858371
-0.0802943
-0.064706
-0.0539141
-0.0627602
-0.0612444
-0.0745475
-0.0677603
-0.0757692
-0.0588009
-0.0369231
-0.0299321
-0.0227601
-0.0305202
-0.0433031
-0.0711764
-0.0592533
-0.0475338
-0.0460407
-0.0296379
-0.0333936
-0.0471945
-0.0510858
-0.0549772
-0.0490949
-0.0483708
-0.0328732
-0.0124885
-0.00712645
-0.0167418
-0.0114929
-0.031312
-0.0411083
-0.0359499
-0.0209725
-0.0162213
-0.0265607
-0.0226693
-0.0300223
-0.024004
-0.0498412
-0.0728276
-0.0825561
-0.0677824
-0.0613118
-0.0666059
-0.0627372
-0.0806783
-0.0773752
-0.0897281
-0.0884159
-0.0679408
-0.0527597
-0.0473526
-0.0418547
-0.0513571
-0.0659046
-0.0805878
-0.0753163
-0.0751579
-0.0749544
-0.0547733
-0.0493887
-0.0389814
-0.043529
-0.0630538
-0.072737
-0.0725335
-0.0523977
-0.0423072
-0.0370131
-0.0416738
-0.0413343
-0.0409723
-0.0606783
-0.0454746
-0.0454295
-0.0254069
-0.0404069
-0.0202485
-0.0300223
-0.0447734
-0.0645472
-0.0695021
-0.0595474
-0.0446604
-0.0497736
-0.0197736
-0.0346831
-0.0446152
-0.0545927
-0.0496379
-0.0298867
-0.00027138
0.0243667
0.0440726
0.0488463
0.0636879
0.0633712
0.0680091
0.0775566
0.0869231
0.11629
0.150611
0.16491
0.134163
0.103394
0.0826243
0.0715157
0.0701808
0.0737782
0.0873302
0.0858371
0.0643664
0.0128732
-0.0337557
-0.0605657
-0.0875341
-0.0996381
-0.101833
-0.0889595
-0.106018
-0.128032
-0.135045
-0.142104
-0.144253
-0.141516
-0.133688
-0.130656
-0.137466
-0.144005
-0.155407
-0.151765
-0.173122
-0.154389
-0.15052
-0.131584
-0.12733
-0.137873
-0.153326
-0.133756
-0.129163
-0.134683
-0.115249
-0.0907694
-0.0461765
-0.0264707
0.153235
0.427941
0.797624
1.21231
1.67688
2.04136
2.13588
1.77057
1.06041
0.165249
-0.544909
-0.815226
-0.680633
-0.406131
-0.216652
-0.156991
-0.182194
-0.192375
-0.182579
-0.167873
-0.14328
-0.143823
-0.134298
-0.134751
-0.130158
-0.155429
-0.150678
-0.145882
-0.151199
-0.131629
-0.122081
-0.112624
-0.102963
-0.143235
-0.143416
-0.14371
-0.149027
-0.134298
-0.129706
-0.110045
-0.110181
-0.110226
-0.130271
-0.145271
-0.145384
-0.145678
-0.12604
-0.11638
-0.116606
-0.111674
-0.121719
-0.131606
-0.131583
-0.116651
-0.116832
-0.0920133
-0.0770133
-0.0768777
-0.0815608
-0.0761083
-0.0806333
-0.0701581
-0.0497057
-0.0342985
-0.00380069
-0.00823516
0.00753403
0.0184842
0.0345249
0.050362
0.0660182
0.101493
0.1419
0.157398
0.168009
0.183733
0.194502
0.210204
0.230566
0.270633
0.290588
0.32543
0.335339
0.335317
0.340385
0.335294
0.340091
0.339819
0.344502
0.33914
0.328846
0.29371
0.258642
0.213529
0.178348
0.153054
0.14776
0.122443
0.0972168
0.082081
0.027081
0.00203574
-0.0130774
-0.028281
-0.0283942
-0.0234395
-0.0236431
-0.0286883
-0.0385299
-0.0581001
-0.0676478
-0.0614033
-0.0589599
-0.0448648
-0.033892
-0.0207698
-0.0209281
-0.0206792
-0.0320594
-0.0266069
-0.0203626
-0.00730819
0.0094564
0.0118319
0.0155197
-0.00495541
-0.0201365
-0.0204306
-0.0108151
-0.00119966
0.00852883
0.0233252
0.0131443
0.00812167
-0.00194621
-0.0119689
-0.0121951
-0.0124667
0.00726181
0.0119903
0.00687718
0.0268546
0.00192255
-0.00298709
-0.0181228
0.00162834
0.00628901
-0.00409573
0.00547445
0.00504458
-0.0403174
-0.0407472
-0.0561544
-0.0467426
-0.0325798
-0.0086205
-0.0147969
-0.0258602
-0.0418332
-0.0628286
-0.0737109
-0.079548
-0.0754302
-0.0663579
-0.0522403
-0.0479867
-0.0684392
-0.068575
-0.0834845
-0.0933034
-0.0930772
-0.0779641
-0.0727378
-0.0573532
-0.066765
-0.0709957
-0.0851585
-0.0892988
-0.0934843
-0.0776698
-0.0668101
-0.0458599
-0.0396382
-0.0582128
-0.0766743
-0.0851359
-0.0935748
-0.0970816
-0.0705205
-0.0488915
-0.0469684
-0.0448643
-0.0676697
-0.080362
-0.0830995
-0.0609728
-0.0539593
-0.0419683
-0.0349547
-0.0228959
-0.0308371
-0.0538914
-0.0621493
-0.0557466
-0.0451584
-0.0308371
-0.0281901
-0.0471946
-0.0531221
-0.0759729
-0.0950679
-0.0891176
-0.0913574
-0.0903166
-0.0932125
-0.100633
-0.0667419
-0.0780542
-0.0952488
-0.108348
-0.0919908
-0.08595
-0.0751129
-0.0695247
-0.0690495
-0.0786423
-0.0931898
-0.08776
-0.0923979
-0.102126
-0.0669227
-0.0717191
-0.0563571
-0.0558819
-0.0704067
-0.0649768
-0.0696828
-0.0695018
-0.0593208
-0.0491173
-0.0588232
-0.0484387
-0.0529183
-0.0773979
-0.066968
-0.0716286
-0.0513797
-0.0361762
-0.03095
-0.0355427
-0.0500902
-0.0595925
-0.0690721
-0.0637781
-0.053484
-0.0281898
-0.00791836
-0.00257897
0.0227377
0.0280996
0.0333937
0.0484616
0.0434163
0.0633259
0.103258
0.148235
0.178348
0.173416
0.163394
0.168258
0.147873
0.127376
0.12681
0.136267
0.140724
0.110204
0.0695928
0.0138687
-0.0369684
-0.063009
-0.0691854
-0.0504524
-0.0666515
-0.0828054
-0.11405
-0.125385
-0.146855
-0.138507
-0.120362
-0.107285
-0.104118
-0.110882
-0.137443
-0.144072
-0.155769
-0.147602
-0.139502
-0.116358
-0.118122
-0.114593
-0.140747
-0.161788
-0.14776
-0.163801
-0.15491
-0.120928
-0.101742
-0.0923983
-0.0978734
-0.103258
-0.108575
-0.0939819
-0.084457
-0.0450453
0.0894344
0.334005
0.678643
1.03837
1.43808
1.83774
2.09731
2.03176
1.60634
0.86595
0.615634
-0.594638
-0.879909
-0.835045
-0.645271
-0.455724
-0.356244
-0.296742
-0.247194
-0.192534
-0.157873
-0.13819
-0.143642
-0.149253
-0.144819
-0.145429
-0.131086
-0.126561
-0.147059
-0.152443
-0.147896
-0.133484
-0.124095
-0.114728
-0.115384
-0.110859
-0.121221
-0.131629
-0.146968
-0.157353
-0.142963
-0.133506
-0.124027
-0.114389
-0.11957
-0.139751
-0.144864
-0.160113
-0.145475
-0.120882
-0.126244
-0.141538
-0.116606
-0.12647
-0.131312
-0.131153
-0.115995
-0.110859
-0.0856557
-0.0904522
-0.0850676
-0.0795246
-0.083778
-0.0778958
-0.0671039
-0.0563799
-0.0206107
-0.00495458
0.00570154
0.0064255
0.0172173
0.0280318
0.05362
0.058982
0.0840498
0.113869
0.133665
0.153507
0.153462
0.148303
0.1831
0.192738
0.217217
0.241584
0.281018
0.290634
0.285385
0.280158
0.25491
0.274548
0.26914
0.278552
0.283054
0.262647
0.237353
0.197195
0.147059
0.121697
0.106176
0.0956787
0.0951132
0.0696154
0.0443213
0.0141403
-0.0159501
-0.0311538
-0.0364027
-0.0267648
-0.036991
-0.022172
-0.032172
-0.0414706
-0.0396606
-0.0513575
-0.0564027
-0.0397286
-0.026267
-0.0015837
-0.00212663
0.000452518
-0.00529402
-0.0122171
-0.0246607
-0.0285069
-0.027172
4.52399e-05
-0.00196826
0.00647068
0.000181019
-0.0159729
-0.0119683
-0.0179185
0.00122178
0.0202264
0.0141855
0.0180544
0.0167875
0.0105882
0.00936651
-0.00185519
0.0118099
0.025543
0.0345023
0.0335747
0.0376924
0.00687796
-0.00882351
-0.00950223
-0.0151131
-0.0106108
0.0138916
0.00857484
-0.00158358
-0.0164932
-0.041312
-0.0361763
-0.0562441
-0.0413572
-0.0265833
-0.0266739
-0.0316287
-0.0365382
-0.0615157
-0.08638
-0.0863348
-0.0614027
-0.0565158
-0.0464932
-0.046448
-0.051267
-0.0711087
-0.0659503
-0.0658372
-0.0657919
-0.0507919
-0.0457465
-0.0506108
-0.0452488
-0.0648642
-0.0794569
-0.0841175
-0.0838687
-0.0637329
-0.0538008
-0.0445248
-0.041312
-0.0645927
-0.0844795
-0.0961763
-0.0946605
-0.108823
-0.1119
-0.0921944
-0.0887102
-0.0915383
-0.106946
-0.116923
-0.112851
-0.109955
-0.107805
-0.100679
-0.0685293
-0.0763348
-0.0842986
-0.0825339
-0.111063
-0.109864
-0.0838688
-0.0679637
-0.0571266
-0.0562218
-0.0603168
-0.0695477
-0.0738916
-0.0835295
-0.0632579
-0.0580996
-0.0379187
-0.0526471
-0.052421
-0.0520815
-0.0717648
-0.0715612
-0.0564254
-0.0614254
-0.0414707
-0.0364255
-0.0463123
-0.0610408
-0.0708372
-0.0757014
-0.0655883
-0.0555204
-0.030543
-0.0256787
-0.0307239
-0.0105882
-0.0104073
-0.0102262
0.00977379
0.0296153
0.0545021
0.0542759
0.079208
0.0842305
0.109208
0.139185
0.139072
0.148823
0.128574
0.148258
0.137918
0.102624
0.0874432
0.0871266
0.0716967
0.0509727
0.0350451
0.00909489
-0.0320137
-0.0430771
-0.0690951
-0.095249
-0.141471
-0.152964
-0.149638
-0.126403
-0.123326
-0.115158
-0.131968
-0.138778
-0.155588
-0.157489
-0.159548
-0.151674
-0.133778
-0.125679
-0.142398
-0.143891
-0.150226
-0.151538
-0.147851
-0.13405
-0.125113
-0.111063
-0.111719
-0.122217
-0.137624
-0.127919
-0.123258
-0.108756
-0.0792308
-0.0446606
0.0251131
0.175
0.434977
0.794955
1.16982
1.58955
1.98434
2.12921
1.92396
1.3188
0.508779
-0.281154
-0.776176
-0.86138
-0.656697
-0.402013
-0.262307
-0.237489
-0.24767
-0.247715
-0.207805
-0.168077
-0.128371
-0.108846
-0.114344
-0.119683
-0.119864
-0.145045
-0.145181
-0.14043
-0.140724
-0.106108
-0.116561
-0.106832
-0.117036
-0.127104
-0.127239
-0.137466
-0.142737
-0.128145
-0.113506
-0.098778
-0.0989363
-0.108982
-0.118936
-0.138959
-0.134117
-0.124344
-0.12957
-0.129728
-0.119819
-0.0947283
-0.109593
-0.119412
-0.129208
-0.119072
-0.0839139
-0.0636199
-0.0682805
-0.0477601
-0.0621946
-0.061448
-0.0556787
-0.0498869
-0.0290498
-0.0031901
-0.00230771
0.00357467
0.0246155
0.0306562
0.0165386
0.0472625
0.0779413
0.113575
0.144095
0.149593
0.180045
0.175339
0.190611
0.215724
0.220656
0.265339
0.28
0.304706
0.319593
0.314547
0.324525
0.324457
0.319321
0.33414
0.343914
0.333643
0.328439
0.308348
0.273348
0.233303
0.19828
0.188167
0.167986
0.147851
0.117783
0.0928053
0.0429636
0.0131221
-0.01181
-0.0319005
-0.0419683
-0.0219911
-0.0319684
-0.0417649
-0.0663577
-0.0806337
-0.0891631
-0.0816066
-0.0725342
-0.0517424
-0.0640048
-0.0594346
-0.0291631
-0.0347739
-0.0331449
-0.0452489
-0.0309051
-0.013869
-0.00714958
-0.00957048
-0.0157922
-0.0413125
-0.0367424
-0.0372175
-0.0377379
-0.00819033
-0.00346184
0.00653815
0.0116739
0.00183231
-0.018032
-0.00787359
-0.0179188
0.00196815
0.00183243
0.0166966
0.0217645
0.00176454
-0.00821286
-0.0183486
-0.018688
0.000791609
0.0102034
0.0195246
0.00891382
0.00339353
-0.0271043
-0.032602
-0.0482128
-0.0438689
-0.0295929
-0.0252942
-0.0308146
-0.0362445
-0.041629
-0.0569457
-0.062172
-0.0773757
-0.0626019
-0.0477828
-0.0527602
-0.0623982
-0.0518553
-0.0662443
-0.075543
-0.0899321
-0.0893438
-0.0688009
-0.0481901
-0.0524887
-0.046561
-0.0656334
-0.079638
-0.0885973
-0.0876697
-0.0668099
-0.0558143
-0.0597284
-0.0534162
-0.0619683
-0.0754752
-0.0788688
-0.0823303
-0.0707693
-0.0540724
-0.0424209
-0.0456337
-0.0487558
-0.0617649
-0.0697966
-0.0628734
-0.0661992
-0.0550001
-0.0599096
-0.0512218
-0.0441404
-0.0538916
-0.0654752
-0.0834617
-0.0965612
-0.107964
-0.0987332
-0.0835297
-0.0854075
-0.0810183
-0.0869233
-0.0990273
-0.0973531
-0.0862898
-0.0653395
-0.0594346
-0.0635747
-0.0577829
-0.0671495
-0.0765387
-0.0760862
-0.0907016
-0.0703396
-0.0449548
-0.049525
-0.0590274
-0.0685749
-0.078145
-0.0876699
-0.0823305
-0.0670817
-0.0718781
-0.0565613
-0.0711088
-0.0556111
-0.0650681
-0.0795025
-0.0741179
-0.0738465
-0.0635298
-0.0382356
-0.0377378
-0.0571949
-0.0665614
-0.0759504
-0.0754527
-0.0801134
-0.059774
-0.0445026
-0.03405
-0.0335976
-0.0430547
-0.0374664
-0.0320365
-0.00671971
0.0285066
0.0686648
0.0739364
0.0892306
0.0895474
0.0848415
0.095045
0.0950904
0.109977
0.109683
0.104389
0.104208
0.0740271
0.0487105
0.0383711
0.0328508
0.0370814
0.0161538
0.0100678
-0.0109729
-0.046991
-0.0880543
-0.109231
-0.13052
-0.131991
-0.12862
-0.125362
-0.112195
-0.123959
-0.125611
-0.152285
-0.154005
-0.165905
-0.157805
-0.129706
-0.131561
-0.133167
-0.124593
-0.140859
-0.141945
-0.147986
-0.144004
-0.134977
-0.125882
-0.131561
-0.117013
-0.102285
-0.107534
-0.107715
-0.0879635
-0.0833029
-0.0186421
0.0860863
0.325928
0.65086
1.01588
1.411
1.81097
2.10088
2.0907
1.6755
1.50034
0.17034
-0.494592
-0.794524
-0.759457
-0.51957
-0.299819
-0.195067
-0.195203
-0.205158
-0.205135
-0.170067
-0.145022
-0.150067
-0.140203
-0.140316
-0.14552
-0.145565
-0.150475
-0.150384
-0.160384
-0.160407
-0.150588
-0.135791
-0.12095
-0.125995
-0.136018
-0.145837
-0.145769
-0.155724
-0.165701
-0.150792
-0.120814
-0.130724
-0.125543
-0.140203
-0.144796
-0.154547
-0.14448
-0.129457
-0.114434
-0.104344
-0.0991177
-0.118801
-0.118416
-0.123077
-0.127783
-0.112444
-0.0971495
-0.0867196
-0.0710635
-0.0751812
-0.0692084
-0.0631903
-0.0672626
-0.0513803
-0.0454979
-0.0146609
0.0112894
0.0173528
0.0084613
0.0145699
0.0405201
0.0413799
0.077104
0.117805
0.148552
0.169231
0.174887
0.185452
0.19086
0.206063
0.241131
0.266109
0.291086
0.301086
0.321199
0.326448
0.321697
0.321855
0.336833
0.356719
0.341629
0.331606
0.321787
0.287014
0.257195
0.217398
0.182444
0.162444
0.142421
0.127489
0.107647
0.0678736
0.0330998
0.00339401
-0.00631201
-0.0260405
-0.0258368
-0.0155427
-0.0101581
-0.0294568
-0.0432124
-0.0658369
-0.072036
-0.0766287
-0.0445247
-0.025701
-0.00547475
0.00470614
-0.00196809
-0.0143888
-0.0128956
-0.0194793
-0.0225561
0.00448
0.0174212
0.0163127
0.000701725
-0.0199093
-0.0105879
-0.026493
-0.0173979
-0.00825763
0.000814915
-0.00497699
-0.000610471
-0.016131
-0.021606
-0.0271037
-0.017692
-0.0233933
0.000995815
-0.00447935
-0.00963777
-0.0195473
-0.0293663
-0.0591851
-0.0489817
-0.0288232
-0.0337101
-0.0235744
-0.0333254
-0.0577599
-0.0672849
-0.0767645
-0.0913346
-0.0759274
-0.0456784
-0.0454522
-0.0451354
-0.0647509
-0.0742533
-0.0787329
-0.083371
-0.0730542
-0.0728279
-0.0776469
-0.0623075
-0.0668325
-0.0814027
-0.0908371
-0.10543
-0.1
-0.0797059
-0.0744796
-0.0642081
-0.0538914
-0.0638009
-0.089525
-0.10681
-0.110882
-0.111787
-0.124502
-0.113484
-0.121878
-0.132941
-0.140294
-0.138914
-0.13491
-0.130113
-0.120815
-0.107308
-0.104299
-0.101312
-0.0983258
-0.115588
-0.128122
-0.135973
-0.114005
-0.0970589
-0.0749549
-0.0876472
-0.0903395
-0.103122
-0.110973
-0.0990272
-0.0922852
-0.0707694
-0.0593893
-0.0580319
-0.0717196
-0.08043
-0.0842987
-0.0884164
-0.087715
-0.0722172
-0.0717196
-0.0562671
-0.055792
-0.0702038
-0.0746155
-0.0891857
-0.0988689
-0.0887105
-0.0786653
-0.0586201
-0.0384164
-0.0580545
-0.0576926
-0.0622853
-0.0719459
-0.0568103
-0.0418103
-0.0118555
-0.00185555
0.038235
0.0484613
0.0436875
0.0438458
0.0487326
0.0985743
0.133325
0.148122
0.157941
0.137783
0.102534
0.0722623
0.0617872
0.0611085
0.080362
0.0945926
0.0738008
0.0529637
-0.00291866
-0.0438689
-0.0699549
-0.0812218
-0.0977602
-0.0893891
-0.0909955
-0.107579
-0.119072
-0.160634
-0.15233
-0.159276
-0.156222
-0.158281
-0.135136
-0.121719
-0.128167
-0.129525
-0.14586
-0.147149
-0.133393
-0.124593
-0.110611
-0.10647
-0.127172
-0.142737
-0.123303
-0.138891
-0.10957
-0.110226
-0.0758142
-0.0662667
-0.0616288
-0.0669229
0.0128508
0.217557
0.567104
0.951494
1.36088
1.78534
2.06484
1.96948
1.49419
0.703801
-0.101719
-0.67724
-0.842828
-0.728393
-0.538891
-0.394344
-0.364751
-0.340135
-0.275588
-0.196176
-0.121877
-0.0876467
-0.0832802
-0.103823
-0.129276
-0.144841
-0.13552
-0.131312
-0.122217
-0.108032
-0.0988233
-0.104457
-0.120022
-0.130498
-0.141018
-0.126651
-0.112375
-0.108122
-0.093891
-0.104547
-0.115113
-0.12052
-0.135882
-0.131402
-0.116968
-0.107647
-0.0983708
-0.0839364
-0.0944116
-0.104728
-0.129955
-0.120317
-0.130769
-0.131267
-0.106787
-0.0771493
-0.0724208
-0.0824885
-0.0725112
-0.0873754
-0.087217
-0.0871718
-0.0471491
-0.027104
-0.0217195
-0.0211086
-0.0154299
-0.0096606
0.00597286
0.0164027
0.0466063
0.086742
0.0968778
0.112172
0.11267
0.1481
0.153462
0.163416
0.183145
0.212715
0.242285
0.271855
0.286471
0.276154
0.265769
0.270249
0.274525
0.318846
0.3081
0.317421
0.286719
0.256154
0.225701
0.205158
0.17957
0.158846
0.143145
0.127625
0.0971495
0.0618555
0.0215387
0.00608623
0.000497997
-0.0100678
-0.000723779
-0.0212667
-0.0317418
-0.0420132
-0.0572621
-0.0625789
-0.0680767
-0.0633481
-0.0527599
-0.0306786
-0.0268324
-0.0309952
-0.0382802
-0.0394567
-0.0461535
-0.0250903
0.0023759
0.00122201
0.0126247
0.00339389
-0.010294
-0.0130994
-0.0253166
-0.032398
-0.0193437
-0.0107916
-0.00174177
0.00289619
-0.00717175
-0.0121943
-0.0122848
-0.00251108
0.0171948
0.0269007
0.0416744
0.0315387
0.031516
0.0166066
0.0116291
-0.00846142
-0.0136198
0.00113136
0.0159278
0.015792
0.0207468
0.0107693
-0.00920802
-0.0293212
-0.0395021
-0.0198189
-0.0151583
-0.0054751
-0.00567871
-0.0308371
-0.0408823
-0.0560408
-0.0564028
-0.0469684
-0.027534
-0.0234164
-0.0300001
-0.0528282
-0.0622401
-0.0836428
-0.0921721
-0.0972853
-0.102647
-0.0914708
-0.0919912
-0.0933487
-0.11638
-0.127828
-0.12448
-0.132285
-0.121041
-0.110136
-0.0892988
-0.0833712
-0.0823756
-0.0964934
-0.125679
-0.12991
-0.133959
-0.0980093
-0.0870138
-0.0759052
-0.0846156
-0.0981903
-0.096584
-0.109955
-0.108484
-0.0871042
-0.0806789
-0.079231
-0.0675793
-0.0759278
-0.069163
-0.0725567
-0.081154
-0.0649322
-0.0538236
-0.0378056
-0.0418327
-0.0659051
-0.0650453
-0.0893213
-0.0787556
-0.0684164
-0.0531674
-0.0379637
-0.0327827
-0.0275339
-0.0423301
-0.0521717
-0.0471717
-0.02733
0.00744373
0.0371721
0.0519232
0.0717875
0.066697
0.0366518
0.0465161
0.081154
0.100611
0.12
0.124412
0.118914
0.0833938
0.0578961
0.0522625
0.0464706
0.0604752
0.0593893
0.0531449
0.00690055
-0.0242985
-0.0804751
-0.111652
-0.118054
-0.12466
-0.121403
-0.123167
-0.114932
-0.126606
-0.13828
-0.149977
-0.166742
-0.158597
-0.150475
-0.147398
-0.139276
-0.135905
-0.137307
-0.153529
-0.154592
-0.165633
-0.146719
-0.137873
-0.123846
-0.11457
-0.10509
-0.12043
-0.120656
-0.131018
-0.116425
-0.0818777
-0.062285
-0.0525113
0.0073756
0.162353
0.462285
0.842195
1.28699
1.7467
2.10638
2.14606
1.80588
1.07584
0.195882
-0.51914
-0.864344
-0.819593
-0.559842
-0.345272
-0.255611
-0.230815
-0.220882
-0.195905
-0.160905
-0.131154
-0.121516
-0.126923
-0.122398
-0.122624
-0.12776
-0.137873
-0.138077
-0.148394
-0.138756
-0.114208
-0.104661
-0.109977
-0.110204
-0.11043
-0.120634
-0.13595
-0.131244
-0.116606
-0.106946
-0.10224
-0.107398
-0.117376
-0.12233
-0.122466
-0.122692
-0.123032
-0.113326
-0.108575
-0.103733
-0.108733
-0.113665
-0.123552
-0.123643
-0.0988009
-0.0789366
-0.0689593
-0.0637558
-0.0633711
-0.0778506
-0.0672398
-0.0767193
-0.0663122
-0.0308822
-0.000316679
0.000339389
0.0111088
0.0169232
0.0228055
0.0335296
0.0590951
0.0845929
0.130113
0.140679
0.17129
0.186901
0.187376
0.192693
0.19776
0.237602
0.277376
0.30715
0.322037
0.341969
0.331946
0.346901
0.34181
0.356584
0.361245
0.360928
0.350769
0.335634
0.295566
0.260543
0.220498
0.19034
0.175113
0.164819
0.159661
0.109616
0.0746607
0.0347738
0.00495476
-0.0199775
-0.0150453
-0.0151585
-0.0200906
-0.029887
-0.0595477
-0.0641404
-0.0784616
-0.0720814
-0.0844117
-0.0600678
-0.0486878
-0.0352489
-0.0201133
-0.0348191
-0.0359502
-0.0454073
-0.0288688
-0.0156336
-0.0240046
-0.027172
0.000904918
-0.0100453
-0.0305431
-0.0409955
-0.0464255
-0.0518552
-0.0120815
-0.0171268
-0.0120814
-0.00205874
-0.0219909
-0.0318778
-0.0268326
-0.0169005
-0.00701362
0.00280547
0.00769228
0.00782806
-0.00201362
-0.0168554
-0.0167421
-0.0116743
0.00332576
0.00323534
0.0131674
-0.0017873
0.003371
-0.0164254
-0.0412671
-0.0512218
-0.0362897
-0.0163801
-0.0164707
-0.0165385
-0.0165159
-0.0214707
-0.0414254
-0.0515158
-0.0568326
-0.0272851
-0.0228282
-0.0232807
-0.0286653
-0.043982
-0.0542761
-0.0696834
-0.0702038
-0.0557015
-0.0612218
-0.0566064
-0.0516743
-0.0515612
-0.0564028
-0.0611992
-0.0809053
-0.0805658
-0.0701133
-0.0593439
-0.0683259
-0.0620136
-0.070611
-0.0740273
-0.0873305
-0.0807015
-0.0790725
-0.0574889
-0.0456789
-0.0485975
-0.066335
-0.0739821
-0.0715839
-0.0743666
-0.072059
-0.0497513
-0.0373532
-0.0298871
-0.0523984
-0.0500003
-0.0526699
-0.0555885
-0.0488238
-0.0372401
-0.02086
-0.0145476
-0.0232581
-0.0370364
-0.0411539
-0.0457467
-0.0513123
-0.042353
-0.0161539
-0.0217195
-0.0540725
-0.058077
-0.0776699
-0.0912218
-0.0969006
-0.0986653
-0.0817648
-0.0683711
-0.0701584
-0.0632353
-0.0772399
-0.0716516
-0.0961539
-0.0906788
-0.0853394
-0.0700001
-0.0595702
-0.0591856
-0.0737783
-0.073258
-0.0827829
-0.0674888
-0.0622626
-0.0370816
-0.046878
-0.0564708
-0.0660183
-0.0655432
-0.0700455
-0.0796835
-0.0694573
-0.0542084
-0.0438238
-0.0384166
-0.0428962
-0.0722401
-0.0665613
-0.071041
-0.0607243
-0.0504302
-0.0451134
-0.0397061
-0.0392083
-0.0486428
-0.0630997
-0.067602
-0.0623078
-0.0471495
-0.0270816
-0.0219006
-0.0216291
-0.0263576
-0.0361539
-0.0359503
-0.0308146
-0.0058825
0.0388686
0.0585971
0.0785066
0.0834163
0.0883031
0.0830768
0.0826696
0.107059
0.116357
0.120611
0.114909
0.0940497
0.0581446
0.0471943
0.0361083
0.034864
0.0186197
0.0120133
-0.0046609
-0.0513124
-0.0829188
-0.104661
-0.116516
-0.128575
-0.140769
-0.1281
-0.125385
-0.112625
-0.124661
-0.146607
-0.158462
-0.165385
-0.157285
-0.12905
-0.135724
-0.142149
-0.148258
-0.159163
-0.164887
-0.155679
-0.156403
-0.14215
-0.107806
-0.108371
-0.0937557
-0.093982
-0.0991405
-0.089344
-0.0646607
0.00497729
0.17957
0.254231
0.838914
1.2338
1.62873
1.98853
2.1083
1.84796
1.20762
0.327285
-0.478032
-0.82319
-0.763303
-0.473416
-0.263552
-0.168801
-0.17405
-0.179457
-0.164864
-0.150204
-0.155385
-0.150521
-0.155679
-0.150973
-0.151312
-0.131674
-0.126946
-0.122217
-0.13224
-0.13724
-0.152421
-0.15267
-0.147964
-0.138303
-0.118688
-0.118959
-0.139072
-0.134072
-0.149004
-0.173982
-0.179185
-0.154389
-0.124593
-0.119729
-0.119774
-0.124728
-0.144593
-0.149547
-0.159547
-0.144661
-0.119796
-0.114932
-0.104932
-0.114796
-0.11457
-0.114389
-0.0992534
-0.0992082
-0.0891856
-0.0641403
-0.033914
-0.0334162
-0.0428281
-0.0371493
-0.0313801
-0.0106334
0.0150905
0.0507014
0.0564479
0.067353
0.0733483
0.104299
0.120158
0.135746
0.166267
0.196742
0.192217
0.252669
0.268167
0.273665
0.273937
0.294027
0.324004
0.358823
0.383642
0.398461
0.393416
0.383439
0.358529
0.348552
0.323461
0.318303
0.303077
0.272918
0.247986
0.193077
0.143303
0.108416
0.0734614
0.0633709
0.0482804
0.0482125
0.0232577
0.00848395
-0.0212672
-0.0409052
-0.0505884
-0.050317
-0.0400004
-0.0346385
-0.0288466
-0.0472176
-0.0402946
-0.050747
-0.0544575
-0.0414032
-0.0216972
0.00346118
0.00753367
0.0137328
0.0109499
-0.0104756
-0.01353
-0.0214485
-0.0132358
-0.00416338
0.000271022
0.00963748
0.0140719
0.00357419
-0.017014
-0.0177832
-0.0136428
0.000452161
0.00968295
0.00407219
-0.00135767
0.00339347
-0.0268553
-0.0421947
-0.0125567
-0.00794131
0.00178719
0.00678718
0.00701338
-0.00757927
-0.0270815
-0.0416743
-0.0512218
-0.0458824
-0.0256561
-0.020543
-0.0252262
-0.029638
-0.0389592
-0.0533032
-0.0677601
-0.0473303
-0.0471041
-0.036923
-0.0365384
-0.0309049
-0.0451583
-0.0544569
-0.0689365
-0.0585518
-0.0532125
-0.0428278
-0.0374206
-0.0369228
-0.0513572
-0.0657236
-0.0651807
-0.064977
-0.0804747
-0.0720811
-0.0752258
-0.0549544
-0.0663571
-0.0993435
-0.122805
-0.124796
-0.128597
-0.103371
-0.0947054
-0.0894113
-0.0840946
-0.0898185
-0.101199
-0.113076
-0.105248
-0.0925108
-0.0851126
-0.0578728
-0.0655651
-0.0731217
-0.0854972
-0.092805
-0.0901579
-0.0828049
-0.0755424
-0.0683931
-0.0562211
-0.0590265
-0.0769226
-0.0850221
-0.11837
-0.0970355
-0.0909269
-0.0649993
-0.0540943
-0.0581668
-0.0671487
-0.0713118
-0.0755425
-0.0849995
-0.0745922
-0.0693208
-0.0690267
-0.0536421
-0.0781896
-0.0876467
-0.0772169
-0.0717643
-0.0614476
-0.056244
-0.0610178
-0.0407236
-0.0603843
-0.0650223
-0.0647507
-0.0645924
-0.0496603
-0.0197055
0.020204
0.0401587
0.055136
0.0651813
0.0452265
0.045136
0.0797966
0.114321
0.138801
0.143236
0.117692
0.0820816
0.0614029
0.0255883
0.0296607
0.0384617
0.0370815
0.025724
-0.000701368
-0.0570589
-0.0985067
-0.119955
-0.141606
-0.143461
-0.150452
-0.142489
-0.144457
-0.126244
-0.147986
-0.179615
-0.196199
-0.192738
-0.174299
-0.170701
-0.1319
-0.132873
-0.16362
-0.194253
-0.214774
-0.195294
-0.165882
-0.136516
-0.127014
-0.122376
-0.127511
-0.137624
-0.12776
-0.112964
-0.0932353
-0.0285521
0.131154
0.380815
0.740611
1.11545
1.52038
1.87534
1.99011
1.66982
0.99448
0.119163
-0.626018
-0.956109
-0.931199
-0.706289
-0.501538
-0.376878
-0.30733
-0.287737
-0.193054
-0.128348
-0.108507
-0.113801
-0.13914
-0.15957
-0.160158
-0.120746
-0.111267
-0.111719
-0.122059
-0.142398
-0.152805
-0.133348
-0.133937
-0.114774
-0.100452
-0.0960404
-0.101448
-0.121787
-0.142194
-0.127669
-0.128235
-0.108846
-0.0994568
-0.0799545
-0.0853618
-0.095769
-0.106108
-0.121561
-0.117081
-0.117579
-0.103077
-0.0884616
-0.0887557
-0.0940951
-0.0892534
-0.0995476
-0.0799322
-0.060362
-0.0307693
-0.0360409
-0.0311088
-0.0310183
-0.0258826
-0.0356563
-0.0253621
0.00977379
0.0549548
0.0653393
0.0759049
0.0916288
0.102466
0.128167
0.13862
0.163914
0.193982
0.224117
0.249298
0.274547
0.294796
0.289932
0.314751
0.314411
0.343982
0.368393
0.382828
0.382262
0.37181
0.351402
0.34604
0.31552
0.299841
0.279049
0.268258
0.217579
0.191923
0.14138
0.100701
0.0748187
0.0536196
0.0372847
0.0410177
0.0348186
0.0136874
-0.0124437
-0.0534618
-0.0543669
-0.0503397
-0.0513125
-0.0521497
-0.0428284
-0.048213
-0.0528058
-0.0711541
-0.0777832
-0.0675795
-0.0704529
-0.0466746
-0.0372855
-0.0142992
-0.0142312
-0.0180547
-0.0351588
-0.0388466
-0.0424664
-0.0201361
-0.0168781
-0.00803202
-0.0137786
-0.0243894
-0.0245025
-0.0293441
-0.00914043
-0.00900471
-0.00402737
0.0209048
0.0208369
0.0109273
0.00108582
-0.0187784
-0.0087105
0.00108588
0.0107918
0.0105429
0.0302714
0.0151356
-5.96046e-08
-0.0152489
-0.0210634
-0.0130543
-0.0117421
-0.00219452
-0.00454742
-0.0236652
-0.048665
-0.0728053
-0.0794116
-0.082398
-0.084208
-0.0764931
-0.0682126
-0.0606108
-0.0739593
-0.0878054
-0.0818552
-0.101109
-0.0905655
-0.0753167
-0.0650452
-0.0697964
-0.0844118
-0.098982
-0.0934389
-0.0829185
-0.0875113
-0.0922398
-0.0769457
-0.0864931
-0.0957919
-0.0999548
-0.109072
-0.128167
-0.122285
-0.101267
-0.0852715
-0.0691854
-0.0778732
-0.0764253
-0.0897965
-0.0980092
-0.0962897
-0.0795929
-0.0828055
-0.0810183
-0.0641177
-0.0670363
-0.0697739
-0.0825793
-0.0904978
-0.0786426
-0.0618327
-0.0551585
-0.0435975
-0.0371042
-0.0405884
-0.0392762
-0.023145
0.00757885
0.0230993
0.0633934
0.0735518
0.0786197
0.0938007
0.108891
0.118755
0.0983256
0.0675563
0.0716739
0.0807689
0.0648413
0.0488233
0.0478052
0.0316288
0.00527132
-0.0163577
-0.0481677
-0.0700455
-0.0820591
-0.10396
-0.115973
-0.147919
-0.16491
-0.187014
-0.169231
-0.161403
-0.148417
-0.150204
-0.156765
-0.1781
-0.189276
-0.20534
-0.201358
-0.192263
-0.182919
-0.173416
-0.183688
-0.183756
-0.178733
-0.183711
-0.178733
-0.173801
-0.133869
-0.123778
-0.11362
-0.108326
-0.117919
-0.102557
-0.0723303
0.0477828
0.287851
0.642986
1.04824
1.4686
1.87905
2.08446
1.91473
1.34989
0.539977
0.270136
-0.744751
-0.86457
-0.714344
-0.489072
-0.363937
-0.318937
-0.279005
-0.229095
-0.17414
-0.159095
-0.133982
-0.133869
-0.148846
-0.168982
-0.16414
-0.134321
-0.11448
-0.109615
-0.109683
-0.119751
-0.139932
-0.140158
-0.130475
-0.115905
-0.121289
-0.106538
-0.101674
-0.121674
-0.121697
-0.136787
-0.146968
-0.112217
-0.112443
-0.107602
-0.107624
-0.102602
-0.117534
-0.142511
-0.127534
-0.112602
-0.0828052
-0.0778505
-0.0777826
-0.0677825
-0.072692
-0.0875562
-0.0925563
-0.0775335
-0.0374657
-0.0321943
-0.00690013
0.00368804
0.00936681
-0.0099318
0.00583738
0.0366518
0.0774664
0.113213
0.138846
0.14957
0.155385
0.176064
0.18672
0.217308
0.252806
0.29319
0.323394
0.343484
0.36362
0.353756
0.378801
0.378756
0.383507
0.403167
0.41267
0.40233
0.367149
0.342127
0.297059
0.2569
0.216606
0.181267
0.17086
0.14052
0.105249
0.0699998
0.0248867
0.0046379
-0.0157467
-0.026154
-0.0268101
-0.0375341
-0.0282355
-0.0537559
-0.0591858
-0.0896384
-0.0950908
-0.100702
-0.0864257
-0.0770816
-0.0720817
-0.0758147
-0.0928509
-0.098032
-0.10629
-0.0976247
-0.0730999
-0.0543669
-0.0330546
-0.0452492
-0.0334619
-0.0461316
-0.0543215
-0.0618554
-0.048394
-0.0343215
-0.0150003
-0.0304302
-0.0305433
-0.0354528
-0.0402943
-0.0450907
-0.0399323
-0.019887
-0.0100228
0.00488669
-0.00497752
-0.0146608
-0.0142536
-0.0238689
-0.00866526
-0.00362003
0.0064252
0.0115609
0.00669676
-0.00318998
-0.0130543
-0.0279412
-0.0329185
-0.0179186
-0.0131222
-0.0083937
-0.0137104
-0.0144118
-0.0509277
-0.0638688
-0.0634616
-0.0650001
-0.0685294
-0.0830091
-0.0720136
-0.10371
-0.117127
-0.0970363
-0.104389
-0.105724
-0.077647
-0.0804977
-0.0740045
-0.0876018
-0.0762442
-0.0999321
-0.108823
-0.108009
-0.107376
-0.101719
-0.0909276
-0.0948642
-0.0985746
-0.112104
-0.120792
-0.104547
-0.11328
-0.0970135
-0.0905882
-0.0889592
-0.067104
-0.0700225
-0.0978506
-0.105656
-0.103575
-0.0914704
-0.0743437
-0.0671492
-0.0498189
-0.0623754
-0.0849546
-0.102692
-0.0906108
-0.0737329
-0.0620814
-0.0606334
-0.0592986
-0.0679186
-0.0717195
-0.0656788
-0.0848417
-0.0642987
-0.0339141
-0.0236425
0.0266064
0.0468553
0.0470815
0.0473756
0.0375339
0.0525113
0.0572399
0.08181
0.12129
0.135905
0.110498
0.0700906
0.0495476
0.0436652
0.0376698
0.0213801
0.0349774
0.0385068
0.00703621
-0.0294344
-0.0761765
-0.107964
-0.114955
-0.112059
-0.109231
-0.121403
-0.133484
-0.150385
-0.172353
-0.164254
-0.166154
-0.153032
-0.144751
-0.136312
-0.117511
-0.123462
-0.144186
-0.164842
-0.180453
-0.176018
-0.146493
-0.13181
-0.132014
-0.142036
-0.126946
-0.12681
-0.11672
-0.106742
-0.10681
-0.101855
-0.0717877
-0.0666745
-0.0214709
0.0636875
0.248869
0.563869
0.933801
1.34871
1.76369
1.98871
1.89878
1.41894
0.698959
-0.0761315
-0.631177
-0.861358
-0.746516
-0.546516
-0.386426
-0.326312
-0.31129
-0.276312
-0.221516
-0.151855
-0.132195
-0.122534
-0.122806
-0.142964
-0.158213
-0.173529
-0.129027
-0.109615
-0.0951811
-0.0857694
-0.0911993
-0.101606
-0.111946
-0.132195
-0.132443
-0.117828
-0.103326
-0.0838688
-0.0893438
-0.0997058
-0.109955
-0.125158
-0.130452
-0.130882
-0.116425
-0.116946
-0.10733
-0.102624
-0.112873
-0.133167
-0.123507
-0.123891
-0.114253
-0.094751
-0.0800903
-0.075226
-0.0802713
-0.0800903
-0.084751
-0.0894796
-0.0842533
-0.0491627
-0.023959
0.00626725
0.0217197
0.00735319
0.0230319
0.0285748
0.0538691
0.10905
0.124186
0.174344
0.19948
0.229729
0.240091
0.255226
0.300136
0.319774
0.354276
0.373756
0.383303
0.397941
0.392557
0.372127
0.371629
0.355996
0.350272
0.339502
0.298756
0.2681
0.207534
0.1619
0.126109
0.100204
0.0791629
0.0680316
0.0368552
0.0157239
-0.00542992
-0.036697
-0.0580091
-0.0742082
-0.0753394
-0.0613801
-0.0673303
-0.0782353
-0.0890272
-0.0946605
-0.110181
-0.10552
-0.11043
-0.104344
-0.0966514
-0.0821944
-0.0857238
-0.0823302
-0.0878959
-0.0788235
-0.0670362
-0.0485972
-0.0386199
-0.0211763
-0.0347056
-0.0476015
-0.0744793
-0.0757012
-0.0718324
-0.0529636
-0.0390044
-0.0197736
-0.0201808
-0.0203845
-0.0305656
-0.0457917
-0.0311537
-0.0216062
0.00285089
0.0124663
0.0221269
0.0168779
-0.00334829
-0.00361973
-0.0189592
-0.019502
-0.0252034
-0.026131
-0.0125337
-0.00502229
-0.0140042
-0.0297735
-0.0575563
-0.0622395
-0.0677146
-0.0722621
-0.0740268
-0.0717871
-0.0857463
-0.0924658
-0.0988232
-0.0863571
-0.0843887
-0.0788459
-0.0785743
-0.0683028
-0.0830312
-0.0978955
-0.107941
-0.108054
-0.123212
-0.108371
-0.0985743
-0.0787327
-0.0886648
-0.0885291
-0.113212
-0.112805
-0.107579
-0.102353
-0.0871264
-0.081787
-0.0761535
-0.085339
-0.0942982
-0.103122
-0.121923
-0.100724
-0.0845245
-0.0681217
-0.0665833
-0.0648186
-0.0729859
-0.0860628
-0.0890945
-0.0872394
-0.0855651
-0.0738684
-0.0422394
-0.0305426
-0.0189137
-0.0274658
-0.0361988
-0.000271201
0.0303622
0.035792
0.0461088
0.0513576
0.0665839
0.0866292
0.106539
0.13129
0.130837
0.120204
0.104435
0.0935975
0.0827605
0.0718782
0.0508147
0.0445931
0.0232356
0.0266745
0.014955
-0.0218549
-0.0636649
-0.0855427
-0.117443
-0.129502
-0.136764
-0.149253
-0.126832
-0.109457
-0.122013
-0.119502
-0.136855
-0.164344
-0.191855
-0.179479
-0.142059
-0.129457
-0.116652
-0.123529
-0.135136
-0.161584
-0.157896
-0.149208
-0.14043
-0.136516
-0.132398
-0.123122
-0.113575
-0.118869
-0.114208
-0.109638
-0.105068
-0.0706108
-0.0560632
-0.00647044
0.113168
0.367919
0.717806
1.1076
1.54235
1.95192
2.11149
1.90118
1.28591
0.415769
-0.424344
-0.90957
-0.984887
-0.735317
-0.645679
-0.32095
-0.261244
-0.251448
-0.231606
-0.186878
-0.142308
-0.132828
-0.123416
-0.129095
-0.124638
-0.130045
-0.145407
-0.135837
-0.146312
-0.151945
-0.12767
-0.113371
-0.10905
-0.10957
-0.119977
-0.145362
-0.145814
-0.151335
-0.126991
-0.11776
-0.103394
-0.103869
-0.114231
-0.129525
-0.124887
-0.135249
-0.130792
-0.111358
-0.0919232
-0.0974435
-0.0978507
-0.118077
-0.113168
-0.113258
-0.103416
-0.0887557
-0.0689141
-0.0588915
-0.0587332
-0.0635069
-0.0682355
-0.0578282
-0.0474888
-0.0320815
-0.0166065
0.00391394
0.0194343
0.0349546
0.0504749
0.0559726
0.0864025
0.111697
0.1369
0.166991
0.207172
0.222398
0.227511
0.247466
0.26224
0.2869
0.32638
0.360837
0.380271
0.394887
0.394683
0.389434
0.379185
0.398778
0.393212
0.392511
0.381923
0.346606
0.32138
0.266222
0.22604
0.190769
0.160317
0.149841
0.114411
0.0990946
0.0638458
0.0536422
0.00350642
-0.0215614
-0.0166972
-0.0168782
-0.0170818
-0.00724024
-0.0271497
-0.0419461
-0.0515162
-0.0605659
-0.0785524
-0.0600004
-0.0546837
-0.0273986
-0.0131904
-0.0232358
-0.019186
-0.037919
-0.0356565
-0.0272177
-0.0210187
-0.0101588
-0.0181452
-0.0406566
-0.0317199
-0.0524665
-0.0532131
-0.0439143
-0.0244574
-0.0147967
-6.81281e-05
0.00470561
-0.0104527
-0.0305885
-0.0207243
-0.0160183
-0.00635773
0.00325775
0.0228052
0.022579
0.0224885
0.00244331
-0.0176472
-0.0178282
-0.0131222
-0.00848418
0.0112217
0.016086
0.00604069
-0.0139367
-0.0239141
-0.0389367
-0.0240499
-0.0343214
-0.00963807
-0.00988692
-0.00997734
-0.0199095
-0.0349096
-0.0449548
-0.0651584
-0.0553847
-0.050611
-0.0207466
-0.0257467
-0.0356562
-0.06043
-0.0652941
-0.0702036
-0.085181
-0.0500905
-0.0450679
-0.0349548
-0.0446833
-0.0542759
-0.068733
-0.0782351
-0.0826923
-0.0772171
-0.0666289
-0.0508823
-0.0450225
-0.0590497
-0.0778506
-0.086742
-0.0907692
-0.0698867
-0.074027
-0.0430315
-0.0418098
-0.045407
-0.0589138
-0.0775338
-0.0763573
-0.070294
-0.0492532
-0.0380315
-0.0317419
-0.0403844
-0.0589591
-0.0625111
-0.0612442
-0.0602487
-0.0494116
-0.0337102
-0.0228957
-0.0219455
-0.0359726
-0.0449997
-0.0491854
-0.0534163
-0.0578958
-0.0475339
-0.0321266
-0.0216515
-0.0261764
-0.0455883
-0.0551131
-0.0547512
-0.049457
-0.029276
-0.019163
-0.0188462
-0.0184842
-0.0331222
-0.0376924
-0.0474436
-0.0472625
-0.0322626
-0.0272625
-0.0171267
-0.0169458
-0.0216744
-0.0363802
-0.0313576
-0.0414029
-0.0317649
-0.0222853
-0.0130771
-0.0145478
-0.0221948
-0.0263578
-0.0521949
-0.0598194
-0.073937
-0.0633489
-0.0513353
-0.0564258
-0.0479869
-0.0713353
-0.0829868
-0.084842
-0.0720593
-0.0611995
-0.0608149
-0.0453398
-0.0646384
-0.0738013
-0.0830774
-0.0826249
-0.0824212
-0.082308
-0.0772401
-0.0370365
-0.0368556
-0.0465162
-0.0611542
-0.0757469
-0.0654075
-0.0552492
-0.0401813
-0.0301813
-0.0300909
-0.0399325
-0.0545252
-0.0541406
-0.0738465
-0.0536881
-0.0485977
-0.0385751
-0.0436656
-0.0184845
-0.023281
-0.0429642
-0.0526474
-0.0675343
-0.0425796
-0.0376927
-0.0178059
-0.0128057
-0.0228059
-0.0226475
-0.0175117
-0.0275795
0.00719434
0.0419454
0.0816513
0.101425
0.0961987
0.0860857
0.0809499
0.0807236
0.120384
0.164706
0.184004
0.178258
0.157647
0.137036
0.121425
0.0956785
0.0546604
0.0685065
0.0721943
0.0658143
0.0594795
0.00312197
-0.0382129
-0.0796608
-0.0963577
-0.0982129
-0.100204
-0.097353
-0.0895476
-0.0966743
-0.113756
-0.115724
-0.132805
-0.13
-0.122285
-0.11948
-0.106561
-0.113394
-0.145
-0.156425
-0.137647
-0.148846
-0.130045
-0.121131
-0.107104
-0.107828
-0.128348
-0.128665
-0.133937
-0.144231
-0.104661
-0.0800225
-0.0303845
0.00434405
0.0742761
0.244299
0.514344
0.864299
1.23925
1.61907
1.92887
2.00367
1.69367
1.06378
0.293959
-0.395837
-0.770837
-0.725973
-0.666199
-0.261335
-0.156335
-0.171312
-0.216199
-0.226199
-0.19629
-0.146471
-0.111719
-0.101968
-0.107195
-0.122376
-0.127285
-0.137127
-0.142082
-0.152104
-0.147308
-0.122511
-0.112579
-0.117579
-0.127489
-0.137331
-0.16224
-0.16224
-0.152285
-0.147489
-0.137557
-0.127534
-0.117443
-0.14233
-0.142127
-0.156968
-0.166991
-0.132059
-0.112172
-0.107104
-0.111968
-0.131697
-0.121357
-0.141063
-0.130814
-0.100566
-0.0854073
-0.0900453
-0.0845023
-0.078733
-0.082828
-0.076923
-0.0710859
-0.055362
-0.0446833
0.0112216
0.0173981
0.0337783
0.0250905
0.0363348
0.0424207
0.0634163
0.104321
0.130045
0.16595
0.181946
0.182873
0.203824
0.209457
0.23491
0.275045
0.300091
0.325181
0.35534
0.360634
0.355996
0.361335
0.346493
0.366629
0.371629
0.381697
0.361878
0.342104
0.307444
0.267783
0.227919
0.182987
0.163122
0.158145
0.123281
0.098507
0.0588464
0.0192537
-0.0154749
-0.0252261
-0.0250904
-0.0100678
-0.019864
-0.0294794
-0.0387781
-0.0728506
-0.0816515
-0.084751
-0.0666741
-0.0620587
-0.0457465
-0.032647
-0.0280542
-0.0431672
-0.0396605
-0.0490723
-0.0419455
-0.0230088
-0.0107917
0.00169694
-0.0104751
-0.0308145
-0.0356787
-0.0406109
-0.0357692
-0.0260406
-0.0161764
-0.00110853
-0.000769198
-0.00533932
-0.0099321
-0.0295474
-0.044276
-0.029095
-0.0290045
-0.00389129
0.00622171
-0.0134842
-0.0131222
-0.022715
-0.037466
-0.032285
-0.0272624
-0.0172172
-0.00212669
-0.0119231
-0.0265837
-0.0312217
-0.0408372
-0.0355883
-0.0304072
-0.0103394
-0.0102941
-0.0150678
-0.0297737
-0.0393664
-0.0490271
-0.0589141
-0.0589141
-0.0491177
-0.0443212
-0.0344117
-0.0443892
-0.0493666
-0.0593665
-0.0695475
-0.0749321
-0.0705429
-0.051199
-0.0416741
-0.0519682
-0.0668551
-0.0916288
-0.0812668
-0.08595
-0.0707012
-0.0654976
-0.0700451
-0.0691854
-0.092941
-0.10638
-0.0946831
-0.103009
-0.0862442
-0.0844568
-0.0524885
-0.0452487
-0.0528052
-0.0652487
-0.087579
-0.0898867
-0.0873075
-0.0597283
-0.052217
-0.0346152
-0.041923
-0.0540949
-0.0563573
-0.0637556
-0.0663574
-0.0492533
-0.0423302
-0.0355881
-0.0188687
-0.022104
-0.0304976
-0.0391175
-0.0529637
-0.0419682
-0.0362442
-0.0156108
-2.25306e-05
0.000678897
-0.013665
-0.0331221
-0.0479411
-0.0385972
-0.0254977
-0.0189592
-0.0139592
-0.0205882
-0.0436878
-0.0724208
-0.0703393
-0.0828506
-0.0703846
-0.0746379
-0.0566289
-0.0476923
-0.0590724
-0.0713122
-0.0693665
-0.0679187
-0.066697
-0.0607241
-0.0449322
-0.0442535
-0.0385974
-0.0628508
-0.0720364
-0.0712672
-0.0805885
-0.0600229
-0.0496157
-0.0340953
-0.0485297
-0.0427605
-0.0569913
-0.0613352
-0.0757018
-0.0501362
-0.044661
-0.0341406
-0.0385751
-0.0378963
-0.0571723
-0.0764936
-0.0709506
-0.0654755
-0.0600683
-0.0446384
-0.0341406
-0.0384844
-0.0427604
-0.0371269
-0.0566519
-0.0461767
-0.0158373
0.0194794
0.0447509
0.055158
0.0606331
0.0510629
0.046425
0.056787
0.101923
0.142013
0.197081
0.212172
0.187398
0.157624
0.122737
0.102692
0.0874432
0.0871492
0.111787
0.126402
0.0910406
0.0406786
-0.0197739
-0.0555206
-0.0714256
-0.0674436
-0.0686201
-0.0697966
-0.0859278
-0.106991
-0.128145
-0.12948
-0.125928
-0.127692
-0.109593
-0.106516
-0.108371
-0.110181
-0.126855
-0.148552
-0.150362
-0.142195
-0.13405
-0.110792
-0.112308
-0.118642
-0.134774
-0.150633
-0.151448
-0.127217
-0.117873
-0.123552
-0.0991175
-0.0895246
-0.0797056
-0.0897056
-0.0896829
-0.0747508
-0.00488651
0.144865
0.409616
0.749616
1.10471
1.46486
1.80002
1.94514
1.76009
1.64509
0.540023
-0.199954
-0.694887
-0.879728
-0.794479
-0.589343
-0.419298
-0.329321
-0.284366
-0.234434
-0.189457
-0.154366
-0.139253
-0.144162
-0.159208
-0.154411
-0.139705
-0.135045
-0.115226
-0.125361
-0.135361
-0.155407
-0.145475
-0.140656
-0.13595
-0.131357
-0.126583
-0.131742
-0.13681
-0.151923
-0.146968
-0.147239
-0.132715
-0.123099
-0.118416
-0.118687
-0.128823
-0.143823
-0.158846
-0.143846
-0.123891
-0.134095
-0.114185
-0.119049
-0.108665
-0.128167
-0.137647
-0.117149
-0.111764
-0.116357
-0.0758595
-0.0751355
-0.0741853
-0.0730315
-0.0817645
-0.0705881
-0.0546153
-0.0338687
-0.01319
0.00744349
0.0180995
0.0390273
0.0400453
0.0358372
0.0563802
0.0965385
0.116539
0.151471
0.176516
0.191629
0.18181
0.196833
0.221765
0.251584
0.261335
0.306063
0.330882
0.335905
0.345973
0.340995
0.32595
0.320814
0.330543
0.330271
0.325023
0.294932
0.259955
0.224977
0.185023
0.139977
0.124796
0.10457
0.0694116
0.0593438
0.0443665
0.0145249
-0.0153394
-0.0401358
-0.0450227
-0.0399321
-0.044819
-0.0343439
-0.0231448
-0.0607239
-0.0667873
-0.0662669
-0.0591629
-0.0555882
-0.0314027
-0.0230091
-0.00509048
-0.00714934
-0.0225112
-0.0300678
-0.0484616
-0.0415837
-0.0388235
-0.0252939
-0.0213347
-0.0171039
-0.0226243
-0.032941
-0.0381672
-0.0283709
-0.023665
0.00101823
0.0207468
0.0205883
0.00549781
0.00554311
-0.00950217
-0.0146606
-0.00488687
0.00490952
0.0247285
0.0346379
0.0195928
0.00954741
-0.000520408
0.00436652
-0.0109502
0.0187783
0.0434843
0.0283033
0.0182354
0.0132127
-0.00185508
-0.0220362
-0.0223981
-0.033009
-0.0186199
-0.0042308
-0.0198643
-0.0403395
-0.0608372
-0.0613576
-0.0571721
-0.0483033
-0.0344119
-0.0454979
-0.0564482
-0.0621042
-0.0726473
-0.0631677
-0.073688
-0.0792763
-0.0648645
-0.0502717
-0.0554075
-0.0601813
-0.064774
-0.0992085
-0.103484
-0.0878058
-0.082127
-0.0563352
-0.0552492
-0.0539822
-0.0725116
-0.0859278
-0.099299
-0.0777832
-0.0762447
-0.0695252
-0.0526927
-0.0408375
-0.0587333
-0.0815387
-0.0842763
-0.0719913
-0.0547741
-0.0476475
-0.035566
-0.0334846
-0.0263352
-0.0491859
-0.0471724
-0.0454303
-0.0538918
-0.0476475
-0.0316521
-0.0206793
-0.00981945
-0.0191407
-0.0436429
-0.048575
-0.0345027
-0.0419234
-0.036041
-0.0367424
-0.03405
-0.0526473
-0.0714256
-0.0835297
-0.0851361
-0.0809732
-0.0689822
-0.0559053
-0.0432356
-0.0514935
-0.0605432
-0.0648419
-0.074231
-0.0837333
-0.0834392
-0.0583712
-0.0482807
-0.048145
-0.0528055
-0.067421
-0.0720816
-0.0718101
-0.0567197
-0.0466518
-0.0315385
-0.0413576
-0.0459731
-0.0554528
-0.064955
-0.0745251
-0.0642084
-0.0489369
-0.0537106
-0.0484391
-0.0480772
-0.0625567
-0.067059
-0.0616291
-0.061335
-0.056154
-0.0259277
-0.030724
-0.0253168
-0.0347739
-0.0492309
-0.0538463
-0.0434843
-0.0282806
-0.00321275
0.0368326
0.0518551
0.0719455
0.0671265
0.0522171
0.0521718
0.0668778
0.111493
0.171154
0.185927
0.185746
0.150475
0.125022
0.0994569
0.0937329
0.0929865
0.0971267
0.106109
0.0800679
0.0390724
-0.0220136
-0.043258
-0.0697286
-0.0864933
-0.0784163
-0.0853621
-0.0922852
-0.119163
-0.141063
-0.153009
-0.155023
-0.152285
-0.139729
-0.132059
-0.149344
-0.146539
-0.143507
-0.155294
-0.152127
-0.16405
-0.160837
-0.152489
-0.148824
-0.144955
-0.135905
-0.151697
-0.157353
-0.158077
-0.133756
-0.12448
-0.100181
-0.0907015
-0.101086
-0.0963576
-0.0915385
-0.0617874
0.0178053
0.20733
0.5069
0.856516
1.20124
1.56104
1.84088
1.89068
1.53034
1.37998
0.0945703
-0.535792
-0.775973
-0.691063
-0.471086
-0.296154
-0.231402
-0.216787
-0.207172
-0.167647
-0.133054
-0.128326
-0.133507
-0.16371
-0.168982
-0.154389
-0.144841
-0.115339
-0.115724
-0.116018
-0.126222
-0.146402
-0.156629
-0.151991
-0.152375
-0.12776
-0.133122
-0.128348
-0.128642
-0.138801
-0.154072
-0.139434
-0.139864
-0.120294
-0.105656
-0.11095
-0.120995
-0.136063
-0.141109
-0.156176
-0.13138
-0.131651
-0.111878
-0.101946
-0.0967872
-0.101471
-0.101086
-0.105633
-0.100204
-0.0899095
-0.0546607
-0.034344
-0.0387105
-0.052783
-0.0467649
-0.0357242
-0.00493222
0.0157465
0.0412895
0.0568099
0.0723981
0.103032
0.123756
0.129367
0.144774
0.174819
0.219774
0.249638
0.279525
0.299502
0.299434
0.314367
0.31914
0.328756
0.323303
0.362828
0.387421
0.382081
0.371855
0.356606
0.321335
0.291018
0.280588
0.275181
0.239706
0.219321
0.16405
0.123846
0.0937103
0.0586424
0.0334162
0.0230994
0.0126922
0.0224661
0.00735289
-0.0275792
-0.0424887
-0.0574661
-0.0674435
-0.0625114
-0.0524436
-0.0420136
-0.0357014
-0.0479639
-0.0585974
-0.0626923
-0.0552263
-0.0465385
-0.0175792
-0.0102715
0.0114254
0.00733024
-0.0246381
-0.0377149
-0.0454073
-0.047172
-0.0181675
0.00615376
-0.00445712
0.00504518
-0.0101811
-0.0151585
-0.0252942
-0.0204979
-0.010905
0.00368768
0.00834835
0.01819
0.0081448
-0.00190049
-0.00696832
-0.0221267
-0.0173982
0.00223976
-0.00309944
-0.0134162
-0.00855201
-0.0236651
-0.0137556
-0.0388687
-0.0141175
-0.00943434
0.000271678
0.00504541
-0.0100452
-0.0199999
-0.0450225
-0.0451356
-0.0453845
-0.0507464
-0.036131
-0.0264025
-0.0266061
-0.0467193
-0.071674
-0.0666288
-0.0666966
-0.0617645
-0.0619229
-0.0470813
-0.0371492
-0.0369907
-0.0616966
-0.0664251
-0.0711989
-0.0761311
-0.0561084
-0.0561083
-0.0510178
-0.0508369
-0.0655428
-0.0702261
-0.0798415
-0.079389
-0.0740722
-0.0538459
-0.0536197
-0.0581672
-0.0775564
-0.0866966
-0.0807012
-0.0847057
-0.0735971
-0.0574432
-0.0512893
-0.0450676
-0.0535744
-0.0518097
-0.0649093
-0.0729862
-0.0609726
-0.0440947
-0.02733
-0.0254975
-0.0185971
-0.0317871
-0.0450451
-0.0536197
-0.0623754
-0.0662894
-0.0453619
-0.0294795
-0.00861979
-0.0227147
-0.0367645
-0.0508821
-0.0452486
-0.0397509
-0.0342985
-0.00893641
-0.0085066
-0.00803161
-0.012466
-0.0268777
-0.0364026
-0.0310858
-0.0159048
-0.00581437
-0.0156561
-0.0104298
-0.0252036
-0.0299547
-0.024819
-0.0199547
-0.0205882
-0.00703621
-0.00466061
-0.0134615
-0.0185068
-0.040068
-0.0680092
-0.0964934
-0.0640046
-0.0590951
-0.0460182
-0.0499097
-0.0469232
-0.0735521
-0.0658146
-0.0633712
-0.0572174
-0.0462219
-0.0403621
-0.0295703
-0.0288237
-0.0333486
-0.0480545
-0.0576925
-0.057421
-0.0521042
-0.0319005
-0.0315838
-0.0212219
-0.0358146
-0.0454074
-0.0599776
-0.0497061
-0.0396382
-0.0245929
-0.00445729
-0.0143214
-0.0140499
-0.0287331
-0.0284164
-0.0531676
-0.0481449
-0.028145
-0.0281676
-0.0131223
-0.00803179
-0.0178735
-0.032602
-0.0422853
-0.0421495
-0.0471044
-0.00714964
0.0128052
0.047941
0.0481446
0.0533482
0.0434614
0.0535066
0.0684387
0.0732352
0.108032
0.142828
0.172783
0.16776
0.16267
0.137466
0.127127
0.126697
0.116176
0.110656
0.120249
0.0997965
0.0792761
0.0435521
0.00771511
-0.0082351
-0.0443663
-0.0504749
-0.0565382
-0.0826695
-0.103846
-0.12009
-0.126516
-0.113145
-0.114932
-0.111832
-0.113733
-0.130543
-0.137353
-0.159095
-0.160927
-0.162873
-0.144932
-0.131878
-0.138665
-0.130271
-0.141561
-0.142715
-0.153665
-0.15457
-0.145498
-0.12638
-0.107217
-0.0878053
-0.10319
-0.0985067
-0.0988008
-0.0891628
-0.0695248
-0.0398416
0.0599096
0.234706
0.494638
0.784616
1.08464
1.40966
1.72462
1.82943
1.60916
1.06407
0.369118
-0.290701
-0.690566
-0.770452
-0.620543
-0.565679
-0.29086
-0.261018
-0.246086
-0.226041
-0.195928
-0.140814
-0.110747
-0.12086
-0.116086
-0.116312
-0.116471
-0.116448
-0.121425
-0.121358
-0.11638
-0.136516
-0.111765
-0.0919458
-0.087104
-0.10724
-0.112217
-0.127172
-0.127127
-0.127172
-0.132262
-0.107466
-0.0976467
-0.0926467
-0.102647
-0.112511
-0.112307
-0.127172
-0.137149
-0.122217
-0.107262
-0.0923072
-0.0970583
-0.116696
-0.131086
-0.125497
-0.104954
-0.104502
-0.0839816
-0.0634611
-0.0628276
-0.0569906
-0.0709499
-0.074796
-0.063778
-0.0577825
-0.0369681
-0.0111535
0.00475132
0.0157242
0.00662911
0.022602
0.0434164
0.0791178
0.104593
0.114932
0.145249
0.150475
0.155701
0.185882
0.19595
0.21586
0.240679
0.270452
0.295294
0.310181
0.305181
0.305317
0.320249
0.325136
0.329909
0.339638
0.349344
0.329208
0.299231
0.264208
0.219117
0.188982
0.143846
0.128665
0.118439
0.0983481
0.0934159
0.0535743
0.0188006
-0.00604111
-0.00595063
-0.00588268
-0.0107923
-0.0155434
-0.0250909
-0.0340955
-0.047376
-0.0495027
-0.060385
-0.0550004
-0.0481678
-0.0298646
-0.0210411
-0.0131904
-0.0277606
-0.0405208
-0.0362901
-0.0339146
-0.0219914
-0.00936693
-0.00142574
-0.00217235
-0.0126927
-0.0332583
-0.0387108
-0.0391632
-0.0344121
-0.00950259
0.00540692
0.00538427
-0.00457048
-0.0244799
-0.0244346
-0.0245026
-0.0196157
-0.00472879
0.00511289
9.02414e-05
0.00527126
0.0154523
0.00052017
-0.0145025
-0.0146382
-0.00986445
-0.000135958
-0.000384867
-0.000565827
-0.0207015
-0.0209504
-0.0363125
-0.0467875
-0.0423079
-0.0329639
-0.0238236
-0.0297059
-0.0356336
-0.0615386
-0.0673305
-0.0882354
-0.0841178
-0.0699776
-0.0607242
-0.0664256
-0.0520364
-0.0724211
-0.0826926
-0.0927152
-0.0877151
-0.0626246
-0.062421
-0.0471494
-0.0567196
-0.0761088
-0.100362
-0.0896155
-0.0938915
-0.0782127
-0.0724435
-0.0565159
-0.0604752
-0.0693665
-0.083077
-0.0866968
-0.0803394
-0.078914
-0.0625339
-0.0560859
-0.0494344
-0.0476244
-0.0556787
-0.0737103
-0.101855
-0.0700226
-0.0632126
-0.0563574
-0.044457
-0.0375339
-0.050543
-0.0687783
-0.0621266
-0.035724
-0.0347285
-0.034525
-0.0357014
-0.0283711
-0.0526924
-0.0738462
-0.081629
-0.0854072
-0.0933937
-0.0789593
-0.076086
-0.0698643
-0.0815612
-0.0928733
-0.109887
-0.0929864
-0.0867874
-0.070905
-0.050249
-0.0447513
-0.0544345
-0.0642083
-0.068982
-0.0787784
-0.0687784
-0.0638463
-0.0539594
-0.0340046
-0.038982
-0.0538462
-0.0685521
-0.0883032
-0.0631448
-0.0681449
-0.0382127
-0.0282354
-0.0332354
-0.0430997
-0.0528283
-0.0675116
-0.0772853
-0.0672626
-0.0472853
-0.0373532
-0.0323758
-0.0422627
-0.047059
-0.0718328
-0.0665839
-0.0614029
-0.046335
-0.036335
-0.0163575
-0.00631237
-0.0162219
-0.00613147
-0.00610882
0.0237102
0.0384614
0.0531446
0.0627373
0.0773979
0.112059
0.131764
0.15638
0.16595
0.135362
0.139547
0.118665
0.11776
0.111923
0.101131
0.100271
0.0694568
0.0432804
-0.00814503
-0.0296835
-0.0563124
-0.0728282
-0.0843667
-0.100905
-0.117579
-0.134435
-0.126561
-0.133711
-0.11086
-0.112964
-0.115
-0.116946
-0.123937
-0.135905
-0.152919
-0.144932
-0.131765
-0.113462
-0.109887
-0.131199
-0.137308
-0.143348
-0.134389
-0.11552
-0.111719
-0.092647
-0.0984842
-0.104208
-0.0997964
-0.105294
-0.0759729
-0.08181
-0.0626245
-0.0182805
0.126131
0.385656
0.700158
1.05471
1.43919
1.79351
1.97283
1.76224
1.20161
0.441063
-0.299299
-0.764706
-0.855158
-0.710814
-0.481606
-0.342375
-0.278167
-0.243801
-0.209344
-0.169842
-0.140407
-0.141018
-0.136742
-0.112602
-0.113394
-0.0990951
-0.109706
-0.110204
-0.120747
-0.146403
-0.137195
-0.1281
-0.113869
-0.104638
-0.115181
-0.115679
-0.121109
-0.136584
-0.14724
-0.137964
-0.113733
-0.104435
-0.0950228
-0.10043
-0.115769
-0.126199
-0.136652
-0.137285
-0.112919
-0.103507
-0.103914
-0.0992307
-0.109434
-0.109547
-0.109706
-0.0949095
-0.0701584
-0.0552714
-0.0552489
-0.0450227
-0.0547285
-0.0443891
-0.0438914
-0.0284389
-0.0228734
-0.0122626
0.0332804
0.0288686
0.0393664
0.0399094
0.0404298
0.0509275
0.0563801
0.116629
0.161787
0.176742
0.201652
0.201538
0.206267
0.22095
0.240543
0.259932
0.294231
0.308643
0.303122
0.307692
0.297308
0.291946
0.296493
0.281018
0.275475
0.269842
0.234344
0.203959
0.158733
0.138484
0.0980315
0.0824886
0.0718551
0.0712895
0.0558822
0.025588
0.010407
-0.0098418
-0.0301133
-0.0454074
-0.0207694
-0.00606346
-0.00631237
-0.0163803
-0.0311993
-0.0553848
-0.0483938
-0.045068
-0.0452037
-0.0185974
-0.0102943
-0.0161313
0.00208133
0.0077374
-0.025068
-0.0112445
-0.0196382
0.00656092
0.0134388
0.0213801
0.0300452
0.00900441
0.00812203
0.00239801
0.00671929
0.00610852
0.0254977
0.0449547
0.0396379
0.024389
0.0142079
0.00900424
0.0136197
0.0231673
0.0375337
0.0420134
0.0365609
0.0312893
0.011131
0.0108143
-0.00954765
-0.0100454
0.0193663
0.0187103
0.0180768
0.012466
0.00685507
-0.0237558
-0.0345024
-0.0253395
-0.0263122
-0.0124209
-0.00862008
-0.0147512
-0.0408824
-0.0519457
-0.0579864
-0.0689593
-0.0700452
-0.0510633
-0.041923
-0.0425792
-0.0580995
-0.0884616
-0.0936878
-0.0888461
-0.088914
-0.0589365
-0.0588008
-0.058552
-0.0731221
-0.0774887
-0.0768326
-0.0861766
-0.0855883
-0.090068
-0.0795476
-0.0639593
-0.0680317
-0.0718552
-0.0805883
-0.0991629
-0.077828
-0.0764932
-0.0701584
-0.0387104
-0.0321041
-0.045362
-0.0634843
-0.0565838
-0.0648643
-0.068258
-0.0467423
-0.0451812
-0.0387557
-0.0323303
-0.0509276
-0.059819
-0.0740497
-0.0638914
-0.0397285
-0.0270814
-0.0159502
-0.0264028
-0.0484842
-0.076878
-0.0906562
-0.0881675
-0.093145
-0.0847738
-0.0734391
-0.0554075
-0.0675341
-0.0856338
-0.0947288
-0.0893441
-0.0891179
-0.0688012
-0.0535071
-0.053394
-0.0732356
-0.0830547
-0.0828962
-0.0777606
-0.0726247
-0.0677605
-0.0428057
-0.0428963
-0.0477379
-0.052489
-0.0722176
-0.0719008
-0.0717877
-0.0716746
-0.0416068
-0.0264711
-0.0263354
-0.0360639
-0.060634
-0.0752721
-0.0750459
-0.0799327
-0.0398648
-0.0347744
-0.0196161
-0.0343446
-0.0390505
-0.0637111
-0.0784622
-0.0533491
-0.0432586
-0.0183039
-0.0133265
-0.00814545
-0.00294191
0.0172843
0.0274653
0.0374427
0.0621487
0.0668319
0.0865378
0.106289
0.126108
0.135972
0.145746
0.130271
0.129637
0.103868
0.128008
0.112126
0.0913116
0.0705197
0.0546374
0.0186194
-0.00264758
-0.0291409
-0.0407019
-0.0523082
-0.0738014
-0.0953172
-0.126878
-0.128485
-0.140272
-0.13224
-0.119322
-0.106471
-0.098575
-0.110679
-0.127715
-0.139774
-0.146833
-0.158891
-0.141041
-0.137986
-0.124751
-0.13129
-0.147534
-0.143552
-0.159616
-0.170679
-0.126652
-0.112557
-0.0984165
-0.10405
-0.0895478
-0.0949097
-0.0952038
-0.0657015
-0.0213124
0.0680315
0.267443
0.562014
0.881765
1.22163
1.58149
1.85627
1.91088
1.61554
1.0352
0.274887
-0.395362
-0.745566
-0.695656
-0.480837
-0.271177
-0.171674
-0.162149
-0.177602
-0.172919
-0.138077
-0.128258
-0.133529
-0.143937
-0.129412
-0.129909
-0.105339
-0.110701
-0.105905
-0.131018
-0.141131
-0.136335
-0.136719
-0.112172
-0.112624
-0.107986
-0.118145
-0.118235
-0.128303
-0.143461
-0.133778
-0.119163
-0.104592
-0.0999771
-0.100068
-0.105113
-0.115022
-0.114955
-0.129977
-0.115158
-0.105362
-0.100384
-0.0902939
-0.0950676
-0.109728
-0.114457
-0.11914
-0.113823
-0.0735065
-0.043122
-0.0475564
-0.0418777
-0.0511084
-0.0502486
-0.0542984
-0.0383708
-0.0074206
0.0184391
0.0442988
0.0551359
0.0611314
0.0671042
0.0729865
0.0937558
0.109367
0.134842
0.180181
0.200498
0.210882
0.216312
0.221606
0.23172
0.226584
0.261471
0.301267
0.316199
0.331222
0.316403
0.326674
0.326878
0.326946
0.3219
0.311833
0.311765
0.286833
0.246991
0.202263
0.167557
0.122738
0.117783
0.0976925
0.0825568
0.0577152
0.0430319
0.0134165
-0.016131
-0.0406785
-0.0503392
-0.025045
-0.00956994
-0.0139138
-0.0178278
-0.0257916
-0.0473979
-0.052579
-0.0512668
-0.0383483
-0.0142305
-0.0198188
-0.00174189
-0.00119889
-0.0040949
-0.00499988
-0.0175564
-0.0149546
-0.00147027
0.0230546
0.0230319
0.0180998
0.00814503
-0.0117418
-0.00642508
-0.00615358
0.01405
0.0291631
0.0393667
0.0296835
0.0201133
0.010498
-0.00909477
-0.0138233
0.00133502
0.021516
0.036697
0.0369685
0.0173757
0.00273776
0.00296402
-0.0019682
0.00798661
0.0176924
0.0174662
0.0273982
0.0123757
-0.0126244
-0.0178732
-0.0332803
-0.0439139
-0.0296152
-0.0202713
-0.0307012
-0.0459727
-0.0611989
-0.0663346
-0.0865157
-0.0667192
-0.0718777
-0.0519229
-0.0417872
-0.0462668
-0.0605428
-0.0797737
-0.0789365
-0.0781446
-0.0773076
-0.0614931
-0.0556333
-0.04957
-0.0483935
-0.0669909
-0.0755881
-0.0842306
-0.0829183
-0.0765836
-0.0550904
-0.0585746
-0.0469682
-0.0651357
-0.0881221
-0.106109
-0.0942307
-0.0723529
-0.0454751
-0.0486199
-0.0365837
-0.0542986
-0.0569909
-0.0746607
-0.0825113
-0.0754072
-0.0585294
-0.0421494
-0.0419005
-0.0530317
-0.0657918
-0.0854297
-0.101923
-0.119072
-0.115113
-0.0834389
-0.0682352
-0.0650225
-0.080475
-0.0962216
-0.0930541
-0.110928
-0.0943664
-0.0731899
-0.0622397
-0.0712668
-0.0653391
-0.0694569
-0.0785745
-0.0828052
-0.0772623
-0.0667419
-0.061199
-0.050543
-0.0597963
-0.0591401
-0.0784388
-0.0777149
-0.0820815
-0.0665159
-0.0509277
-0.0304072
-0.0496606
-0.0488235
-0.0580091
-0.0672172
-0.0765159
-0.0858824
-0.0652715
-0.0547058
-0.0439819
-0.0481447
-0.0722398
-0.0714027
-0.0656786
-0.0650904
-0.0596153
-0.044208
-0.0436198
-0.0428732
-0.0370361
-0.0662669
-0.0506786
-0.0302488
0.00524902
0.0205883
0.0609956
0.056516
0.0369911
0.0424889
0.0428283
0.097964
0.127987
0.167851
0.182625
0.157511
0.122421
0.0972173
0.0919232
0.0813576
0.0857015
0.0748418
0.0590273
0.0281223
-0.00766963
-0.0534388
-0.0693891
-0.0855655
-0.0969003
-0.0982804
-0.109751
-0.111267
-0.107624
-0.124004
-0.125249
-0.151493
-0.142851
-0.129276
-0.115701
-0.116968
-0.133009
-0.123778
-0.119412
-0.124955
-0.145452
-0.135973
-0.101584
-0.0970814
-0.0873528
-0.0873755
-0.0923077
-0.107172
-0.0970363
-0.0870135
-0.0621493
-0.0423302
0.00760192
0.11767
0.362828
0.657987
1.01803
1.40805
1.77794
1.87774
1.59749
0.952308
0.167376
-0.517489
-0.827375
-0.787376
-0.562511
-0.36267
-0.267964
-0.208167
-0.168213
-0.148122
-0.123145
-0.118167
-0.12328
-0.108507
-0.083733
-0.0888913
-0.0990496
-0.11914
-0.124208
-0.119276
-0.119389
-0.129683
-0.115068
-0.100339
-0.11552
-0.0955881
-0.130565
-0.125588
-0.120656
-0.120792
-0.110973
-0.116221
-0.106493
-0.0965834
-0.111561
-0.121493
-0.12647
-0.121561
-0.106742
-0.0868548
-0.0819679
-0.0720584
-0.0969906
-0.111855
-0.116719
-0.101651
-0.081719
-0.0617644
-0.076787
-0.0465382
-0.0510856
-0.0654522
-0.0548639
-0.0493662
-0.0289136
-0.00855172
0.012127
0.0329868
0.0440275
0.0352265
0.0412899
0.0571949
0.0629642
0.108666
0.124322
0.150023
0.160634
0.176245
0.171788
0.17715
0.212263
0.24724
0.26215
0.271946
0.291856
0.30181
0.281765
0.291697
0.266539
0.266335
0.271018
0.275724
0.26543
0.230317
0.185249
0.145159
0.110091
0.1
0.0698419
0.0495478
0.0493215
0.0343214
0.0043214
-0.0256334
-0.0505655
-0.0555881
-0.0757012
-0.0557917
-0.0408823
-0.0407919
-0.0605656
-0.0750905
-0.079095
-0.077104
-0.0588688
-0.0590497
-0.0374886
-0.019276
-0.0105655
-0.00809944
-0.023665
-0.0228505
-0.020294
-0.0192307
-0.013009
-0.0107918
-0.00278276
-0.00945699
-0.025905
-0.0472172
-0.0334842
-0.0296833
-0.0157919
-0.00192314
-0.00789601
-0.0185974
-0.00927609
-0.0199548
-0.0156561
-0.0262671
-0.0166742
0.00303167
0.0227602
-0.00733036
-0.0122172
-0.0221945
-0.0221041
-0.0321946
-0.0223302
-0.0174887
-0.0175792
-0.0125792
-0.017534
-0.0373982
-0.0522398
-0.0522172
-0.0473077
-0.0475113
-0.0276924
-0.0377602
-0.037647
-0.0375112
-0.057285
-0.0722397
-0.0723528
-0.0526016
-0.0527827
-0.0429183
-0.0278732
-0.0528731
-0.0827826
-0.0828279
-0.0780541
-0.078484
-0.0645021
-0.0465383
-0.0649093
-0.0796604
-0.0859048
-0.11371
-0.117466
-0.125679
-0.126765
-0.119683
-0.118982
-0.120701
-0.106516
-0.117285
-0.129547
-0.122534
-0.110792
-0.093959
-0.0920586
-0.0752035
-0.0984389
-0.116652
-0.114819
-0.103122
-0.0964479
-0.0848642
-0.0832806
-0.0766289
-0.0599095
-0.0832126
-0.0916968
-0.100407
-0.0943212
-0.0834388
-0.0725338
-0.0617872
-0.0660632
-0.0802941
-0.0745927
-0.0740497
-0.0787557
-0.0636877
-0.0586424
-0.0536198
-0.0433936
-0.0580995
-0.0677602
-0.0726244
-0.0775791
-0.0526469
-0.0327376
-0.0227376
-0.017715
-0.0125791
-0.0224208
-0.0272172
-0.0021041
0.0127828
0.0476244
0.0674434
0.0723303
0.0772624
0.10224
0.127285
0.137172
0.146855
0.15638
0.165905
0.150407
0.15
0.129593
0.0941402
0.0835519
0.0728958
0.057036
0.0311311
-0.00990957
-0.035905
-0.0518551
-0.0777828
-0.108937
-0.105249
-0.101719
-0.0983031
-0.0850452
-0.0767646
-0.0934841
-0.105136
-0.121787
-0.133484
-0.130294
-0.117217
-0.104095
-0.0858145
-0.0874435
-0.0987555
-0.120023
-0.121222
-0.132353
-0.118484
-0.0995927
-0.0754977
-0.076199
-0.0667645
-0.0871038
-0.0923527
-0.0826468
-0.0580541
-0.0334614
0.0211314
0.155837
0.400747
0.715747
1.04072
1.39066
1.74559
1.94532
1.83005
1.37482
0.679661
-0.0754296
-0.630475
-0.805497
-0.805588
-0.460837
-0.306086
-0.241289
-0.22638
-0.20638
-0.181402
-0.151357
-0.136448
-0.136742
-0.127127
-0.112398
-0.117602
-0.117715
-0.127828
-0.137964
-0.143077
-0.138371
-0.133756
-0.129185
-0.11957
-0.134887
-0.13009
-0.145249
-0.155452
-0.155814
-0.151154
-0.126561
-0.1019
-0.102127
-0.117285
-0.14233
-0.142353
-0.152489
-0.127624
-0.122828
-0.103077
-0.0981673
-0.103054
-0.112873
-0.12267
-0.117443
-0.127308
-0.11224
-0.0820588
-0.0717194
-0.0611765
-0.0704299
-0.0697511
-0.0740271
-0.0782804
-0.0474659
-0.0165836
-0.000610709
0.0155206
0.0267196
0.0228509
0.038982
0.0450228
0.0658373
0.0915161
0.127172
0.142783
0.163416
0.163869
0.174276
0.189615
0.209796
0.239774
0.264729
0.289729
0.314819
0.320023
0.325294
0.310543
0.315633
0.320611
0.325498
0.335452
0.325588
0.295746
0.276041
0.226357
0.206561
0.191651
0.176697
0.156674
0.136719
0.0919002
0.0672621
0.0376467
-0.00194603
-0.00676507
-0.021584
-0.0262899
-0.0258375
-0.0202945
-0.0444575
-0.0730095
-0.0704982
-0.0765842
-0.0712674
-0.0643444
-0.0308377
-0.0163805
-0.017376
-0.020385
-0.0215163
-0.031109
-0.0432584
-0.0212902
-0.00429916
-0.0207472
-0.0264938
-0.0418785
-0.0471727
-0.0423537
-0.0425347
-0.0376479
-0.0127158
0.00719374
-0.00776094
-0.0175573
-0.0273988
-0.027263
-0.0172178
-0.00724047
0.00764638
0.0175561
0.0175787
0.0126014
0.00775963
-0.00712717
-0.00701404
-0.00203675
0.0177823
0.0175787
0.032443
0.0124882
0.00266922
-0.00714982
-0.027195
-0.0224891
-0.0129415
-0.0234619
-0.0138918
-0.00927645
-0.0195932
-0.0448646
-0.0502266
-0.0508148
-0.0516293
-0.0425569
-0.0335071
-0.034299
-0.0548419
-0.0653397
-0.090679
-0.071041
-0.0764482
-0.0568328
-0.0471948
-0.0523305
-0.0621495
-0.0867197
-0.0911314
-0.0903621
-0.0895703
-0.0886653
-0.0727603
-0.0517648
-0.0555884
-0.0592309
-0.0877603
-0.0862219
-0.0997061
-0.0982128
-0.0867197
-0.0700682
-0.0582355
-0.0612672
-0.0741405
-0.0818554
-0.0846608
-0.0925115
-0.0655205
-0.0535296
-0.0415161
-0.0493894
-0.0721722
-0.0599776
-0.0680318
-0.0712445
-0.0547739
-0.0484844
-0.0373531
-0.0314481
-0.0312445
-0.0423305
-0.0602943
-0.0702265
-0.0722174
-0.0507695
-0.0643894
-0.0862445
-0.0997061
-0.0942762
-0.101358
-0.0980092
-0.0858371
-0.0798191
-0.0644345
-0.0691178
-0.0636878
-0.0731223
-0.0875793
-0.0972626
-0.102082
-0.0919685
-0.0818553
-0.0617874
-0.0665611
-0.0661992
-0.0658825
-0.080611
-0.08543
-0.0903394
-0.0653169
-0.0502264
-0.0451132
-0.0397964
-0.0593213
-0.078914
-0.073552
-0.0683031
-0.0580769
-0.0528733
-0.0376018
-0.0372624
-0.0567873
-0.0512896
-0.0708371
-0.0754977
-0.0702716
-0.0550679
-0.0298191
-0.024457
-0.0340498
-0.0485747
-0.0532354
-0.0529864
-0.017828
0.0121267
0.0471268
0.0522173
0.0572852
0.0524887
0.0576471
0.052602
0.0673304
0.106968
0.146516
0.176041
0.170611
0.150181
0.124729
0.12405
0.0981901
0.092059
0.10086
0.0895703
0.0783486
0.0571042
0.0158373
-0.025588
-0.0472622
-0.0790948
-0.0909952
-0.103009
-0.0999997
-0.101991
-0.118868
-0.125791
-0.137737
-0.134796
-0.131923
-0.119072
-0.106086
-0.122918
-0.134434
-0.140859
-0.152194
-0.163507
-0.139796
-0.125927
-0.106991
-0.10276
-0.103348
-0.123778
-0.134185
-0.139728
-0.115226
-0.100747
-0.0812442
-0.0616288
-0.041855
-0.00701338
0.127851
0.392692
0.762421
1.17204
1.5967
1.90143
1.91129
1.50618
0.751019
-0.109276
-0.654593
-0.775045
-0.545497
-0.290905
-0.161289
-0.146561
-0.17181
-0.176991
-0.16733
-0.127805
-0.108348
-0.0989137
-0.109434
-0.109841
-0.120135
-0.130497
-0.135859
-0.131289
-0.126787
-0.11233
-0.0928732
-0.108167
-0.108394
-0.128574
-0.14371
-0.144004
-0.144479
-0.129932
-0.125362
-0.110656
-0.115859
-0.115973
-0.136108
-0.141357
-0.136629
-0.117013
-0.107352
-0.102647
-0.107805
-0.112805
-0.122782
-0.122805
-0.112986
-0.103167
-0.0933931
-0.0684385
-0.0732348
-0.0828049
-0.0873072
-0.106877
-0.0915381
-0.0561987
-0.0308819
-0.015452
0.00520408
0.0111543
0.0122176
0.0231904
0.0290276
0.0597063
0.0903172
0.12586
0.161448
0.17715
0.182874
0.198553
0.199096
0.22439
0.25448
0.284503
0.299412
0.324322
0.319254
0.334186
0.329118
0.333937
0.333643
0.328281
0.342942
0.332715
0.302579
0.272557
0.217466
0.207353
0.182172
0.161946
0.146674
0.106539
0.081516
0.0415839
0.011697
-0.0132351
-0.0283256
-0.0235292
-0.0237329
-0.0288234
-0.0387783
-0.0485973
-0.0783031
-0.0829412
-0.0825114
-0.076516
-0.0592761
-0.0453395
-0.0545476
-0.0567874
-0.0476018
-0.0483484
-0.0459955
-0.0221266
-0.0121946
0.00536197
0.00235283
0.000429809
-0.000271559
-0.0104073
-0.0205431
-0.0308598
-0.00624442
0.00839353
0.0132126
0.0130994
0.0130767
-0.0020138
-0.00724006
0.00235277
0.00180972
0.0161989
0.0156108
0.0201131
0.0145701
-0.0159729
-0.0167648
-0.0226698
-0.0286199
-0.0146382
0.00450212
0.00375551
0.00312203
-0.017421
-0.0328509
-0.0382807
-0.0336879
-0.0291178
-0.0193442
-0.0143895
-0.0291632
-0.0338691
-0.0485071
-0.0581224
-0.0578282
-0.0576246
-0.0373983
-0.0421495
-0.0317875
-0.0363123
-0.060724
-0.0751358
-0.0846607
-0.0642535
-0.0490046
-0.0436879
-0.0431901
-0.052534
-0.0617422
-0.0858598
-0.08
-0.0642761
-0.0535522
-0.0427828
-0.0269005
-0.0358824
-0.0496382
-0.0632581
-0.0768554
-0.0754979
-0.0642535
-0.048258
-0.0426472
-0.047896
-0.0543441
-0.0672626
-0.086878
-0.0881902
-0.0951586
-0.0909278
-0.0739369
-0.0684844
-0.0650681
-0.0799323
-0.0798645
-0.0857695
-0.0826926
-0.0853397
-0.0731677
-0.0711995
-0.0694799
-0.0729641
-0.0817198
-0.080747
-0.0849777
-0.0743216
-0.0588465
-0.0433941
-0.0479416
-0.0474212
-0.0618556
-0.0713125
-0.0758601
-0.0706791
-0.050566
-0.0404302
-0.050204
-0.0547741
-0.0543895
-0.0640275
-0.0737334
-0.0784845
-0.0633035
-0.0482131
-0.0379869
-0.0576474
-0.052195
-0.0617425
-0.0763578
-0.0709959
-0.0557923
-0.0405887
-0.0304756
-0.0251815
-0.0247743
-0.0192991
-0.028824
-0.023394
0.00694525
0.0372394
0.0575334
0.0678049
0.0681217
0.0533932
0.0786873
0.0989814
0.139027
0.164004
0.153846
0.15371
0.118619
0.0936194
0.0835743
0.0684612
0.0580765
0.0524656
0.0466964
0.0309272
-0.019842
-0.055566
-0.0963579
-0.102308
-0.113371
-0.124684
-0.111154
-0.102715
-0.109344
-0.105883
-0.122489
-0.139028
-0.140656
-0.147534
-0.134503
-0.126584
-0.113439
-0.115023
-0.121516
-0.132941
-0.149299
-0.150634
-0.142082
-0.113371
-0.104412
-0.110227
-0.105792
-0.106154
-0.121493
-0.116833
-0.107217
-0.09267
-0.0531223
0.00151551
0.11138
0.331357
0.626289
0.966176
1.36602
1.73575
1.89547
1.62523
1.02007
0.255045
-0.40491
-0.76991
-0.764932
-0.580113
-0.385294
-0.28052
-0.250747
-0.23086
-0.195996
-0.166109
-0.146312
-0.111606
-0.106946
-0.112308
-0.0975792
-0.107783
-0.102919
-0.118054
-0.133213
-0.138462
-0.128823
-0.0992534
-0.0896607
-0.0949321
-0.110158
-0.140407
-0.120679
-0.131041
-0.126471
-0.116946
-0.112511
-0.0979412
-0.10819
-0.123326
-0.128552
-0.128824
-0.114186
-0.109638
-0.085113
-0.0954976
-0.0857239
-0.100814
-0.11086
-0.120882
-0.12095
-0.111086
-0.106267
-0.101267
-0.0910631
-0.0857012
-0.0802713
-0.0698188
-0.0694795
-0.074095
-0.0486198
-0.0329863
-0.00714922
-0.0162895
-0.0104297
-0.00970566
0.000859916
0.0164029
0.0567875
0.0921268
0.122421
0.127783
0.133145
0.133326
0.153326
0.173054
0.192715
0.232308
0.256878
0.276584
0.29138
0.291176
0.300973
0.295679
0.310271
0.339796
0.344389
0.359004
0.328778
0.28362
0.268461
0.253326
0.228009
0.212624
0.212217
0.181945
0.141832
0.101832
0.056787
0.0267417
0.0116286
-0.00359762
-0.00875592
-0.00884652
-0.00884658
-0.0185978
-0.0530774
-0.0721045
-0.0651363
-0.0569235
-0.0522177
-0.0357019
-0.0225119
-0.0185978
-0.0208603
-0.0258602
-0.0343897
-0.0259733
-0.0443218
-0.0177833
-0.0303851
-0.0221272
-0.0284393
-0.0446158
-0.0407922
-0.0470592
-0.0333262
-0.0245026
-0.0155208
-0.0164031
-0.0272176
-0.0278962
-0.0285749
-0.0342763
-0.0300455
-0.02586
-0.0115387
-0.00199115
-0.00208169
-0.0119685
-0.0118328
-0.0167875
-0.0168779
0.00309938
0.00803155
0.00803155
0.0231673
0.00830305
-0.016516
-0.0314029
-0.0313803
-0.0164255
-0.00647074
-0.00144809
0.00859714
0.00384599
-0.0159051
-0.0356109
-0.0405205
-0.0454978
-0.0305205
-0.0255658
-0.0105883
-0.0205883
-0.0355205
-0.0504526
-0.0554752
-0.0605205
-0.0506335
-0.0358145
-0.0362443
-0.032353
-0.0547512
-0.0738009
-0.0797964
-0.0927602
-0.0921268
-0.106199
-0.0931223
-0.0965386
-0.0911087
-0.109457
-0.119955
-0.125769
-0.117579
-0.0951359
-0.0829865
-0.0759503
-0.0788689
-0.0918326
-0.0999548
-0.10319
-0.0964933
-0.0897964
-0.0780997
-0.0612444
-0.0792535
-0.0672174
-0.0900453
-0.0881223
-0.086516
-0.0950454
-0.06362
-0.0623305
-0.0560635
-0.0747287
-0.0785296
-0.0923983
-0.0865386
-0.080973
-0.0655884
-0.055249
-0.0649323
-0.0695929
-0.0742083
-0.088801
-0.0934843
-0.0833938
-0.0835069
-0.0635974
-0.0536652
-0.0537331
-0.0536878
-0.0535068
-0.0635068
-0.0636425
-0.0488914
-0.0342759
-0.00957012
0.0200679
0.0149095
0.0197285
0.0295475
0.029276
0.0488235
0.103326
0.13276
0.132217
0.131719
0.106244
0.0856562
0.0699322
0.0590725
0.0680317
0.0668553
0.060724
0.0246155
-0.0165384
-0.0676923
-0.103869
-0.115158
-0.111674
-0.113326
-0.109932
-0.111493
-0.123031
-0.144615
-0.141108
-0.137647
-0.134344
-0.131108
-0.122828
-0.124253
-0.125543
-0.126629
-0.147534
-0.158393
-0.159253
-0.13009
-0.125837
-0.12647
-0.121968
-0.117262
-0.117421
-0.127602
-0.11785
-0.0932125
-0.0835518
-0.0589138
-0.0440496
0.00588256
0.18086
0.48086
0.870724
1.2905
1.73027
2.04005
1.98486
1.52471
0.789638
-0.0254299
-0.265543
-0.890815
-0.816244
-0.596674
-0.412059
-0.327263
-0.282398
-0.252398
-0.217489
-0.16276
-0.123077
-0.108439
-0.098801
-0.104095
-0.124321
-0.124434
-0.12957
-0.144728
-0.120136
-0.0956109
-0.0810634
-0.0865612
-0.081878
-0.0921722
-0.107444
-0.107806
-0.133213
-0.113756
-0.0942537
-0.0846836
-0.0899777
-0.100227
-0.110453
-0.120679
-0.12595
-0.116335
-0.101674
-0.0770137
-0.077353
-0.0774887
-0.077534
-0.0926018
-0.117738
-0.0828961
-0.0630996
-0.0483485
-0.0284389
-0.0383484
-0.0381674
-0.0528055
-0.0575114
-0.0471947
-0.0319004
-0.00660628
0.00880092
0.0195023
0.0304074
0.0314255
0.0373983
0.0631902
0.0838237
0.114412
0.154978
0.180543
0.176177
0.17681
0.20233
0.212625
0.217602
0.232376
0.282104
0.306901
0.296833
0.306833
0.306856
0.316765
0.311561
0.306245
0.315973
0.315792
0.305747
0.25577
0.23577
0.195815
0.165747
0.150476
0.130272
0.105046
0.0800003
0.050023
0.0350455
-0.00490922
-0.019864
-0.0249092
-0.0250676
-0.0151355
-0.0250902
-0.0249318
-0.0645247
-0.0640723
-0.0734161
-0.0720134
-0.0593664
-0.0499998
-0.0436424
-0.040294
-0.030475
-0.0308595
-0.0233708
-0.0192984
-0.00393647
0.0102943
0.0266744
0.0134843
0.0063349
-0.015
-0.0209049
-0.0466968
-0.0324434
-0.00821269
-0.00886881
-0.00441176
0.00011313
-0.0102715
-0.0156561
-0.0262217
-0.0419229
-0.0277374
0.00135761
0.0156562
0.0101811
0.00988698
-0.0003618
-0.00556546
-0.00583696
-0.00617641
-0.0014931
0.0131449
0.00798655
-0.00187767
-0.0166515
-0.0162895
-0.0309728
-0.0357014
-0.0304525
-0.0202264
-0.0348869
-0.0244344
-0.0238688
-0.0483031
-0.0577149
-0.0522398
-0.0369232
-0.0316969
-0.0313123
-0.0208146
-0.0401585
-0.0643666
-0.0586426
-0.0679638
-0.0574434
-0.0570362
-0.0415838
-0.0409728
-0.0451583
-0.054276
-0.0684162
-0.0926244
-0.0819683
-0.0664026
-0.0508823
-0.0556108
-0.061018
-0.0527828
-0.0714027
-0.0822397
-0.100023
-0.0984615
-0.0856786
-0.0798189
-0.079751
-0.0857466
-0.110294
-0.115475
-0.116991
-0.0995702
-0.0924887
-0.0602941
-0.0629186
-0.0755204
-0.0981901
-0.101041
-0.0941856
-0.102489
-0.075905
-0.0495476
-0.0731902
-0.0669233
-0.0757468
-0.0846608
-0.083688
-0.0828283
-0.0771948
-0.0565839
-0.040973
-0.0503622
-0.0496835
-0.0640273
-0.0933485
-0.0879186
-0.0825341
-0.0722852
-0.0469684
-0.0365611
-0.0561539
-0.055724
-0.0703168
-0.0799548
-0.0697286
-0.0495024
-0.0442988
-0.0339821
-0.0285749
-0.0480545
-0.0576246
-0.0522627
-0.0620816
-0.0419911
-0.0220815
0.0178732
0.0479411
0.0630769
0.0631673
0.0532578
0.0481446
0.0678505
0.0974434
0.116855
0.121267
0.100837
0.0754297
0.0498868
0.0342081
0.028371
0.0323529
0.0311764
0.0249999
0.00882339
-0.0173078
-0.0635294
-0.0749322
-0.111493
-0.113167
-0.115045
-0.121991
-0.123869
-0.140634
-0.152466
-0.154186
-0.15586
-0.162579
-0.139276
-0.120792
-0.127036
-0.128099
-0.134095
-0.154683
-0.165339
-0.160995
-0.151583
-0.132127
-0.112556
-0.112828
-0.132918
-0.152941
-0.152896
-0.138031
-0.11328
-0.0836422
-0.0589136
-0.0240493
0.0509959
0.230973
0.570973
1.00604
1.49093
1.92068
2.09041
1.83023
1.15525
0.24034
-0.579592
-0.874547
-0.744796
-0.440113
-0.205429
-0.120678
-0.150837
-0.195837
-0.190859
-0.17604
-0.146335
-0.131697
-0.117059
-0.132511
-0.112647
-0.127602
-0.127692
-0.132828
-0.138054
-0.143371
-0.13371
-0.12405
-0.134366
-0.139479
-0.139479
-0.14457
-0.149683
-0.154887
-0.140271
-0.130701
-0.111018
-0.126222
-0.13629
-0.131267
-0.136335
-0.136471
-0.126697
-0.107014
-0.107285
-0.102444
-0.112466
-0.117466
-0.122421
-0.112489
-0.102557
-0.0826473
