ekg
0
-0.00666666
-0.004
-0.00928571
-0.00888889
0.0104545
0.0257692
0.00933333
-0.00441176
-0.0118421
-0.0235714
-0.01
0.006
0.012963
0.0131034
-0.000161292
-0.00833333
-0.0171429
-0.0159459
0.0162821
0.0380488
0.0332558
0.0237778
0.0106383
-0.0027551
-0.0120588
-0.00537736
0.0158182
0.0163158
-0.00338983
-0.0122131
-0.0113492
-0.0113077
-0.00589552
7.24634e-05
0.000774647
-0.00890411
-0.0233333
-0.028052
-0.028038
-0.0124074
0.00855422
0.014
0.0136207
-0.00623596
-0.0265385
-0.0324194
-0.0398947
-0.023299
-0.00722222
-0.030198
-0.0522816
-0.0491429
-0.0448131
-0.0403211
-0.0351802
-0.014292
-0.00830435
-0.0264957
-0.0392437
-0.0423967
-0.0405285
-0.01868
-0.00200787
-0.000775192
-0.00496183
-0.0201504
-0.0324074
-0.0439416
-0.0540648
-0.045461
-0.0462587
-0.0423793
-0.0270068
-0.0103356
0.0122848
0.0401961
0.0535161
0.0527707
0.040283
0.0270807
0.0236503
0.0197879
0.0306587
0.0565976
0.0722222
0.0877168
0.0682
0.0488136
0.0689665
0.0890608
0.0992623
0.114622
0.164706
0.20463
0.224424
0.244041
0.263564
0.268071
0.237538
0.211517
0.190493
0.174634
0.178696
0.167344
0.121114
0.099953
0.103721
0.0975115
0.0765982
0.0508824
0.0259276
0.0158371
0.020724
0.00570138
-0.0242534
-0.0491176
-0.0689366
-0.0639593
-0.0491403
-0.0443665
-0.0496154
-0.0547511
-0.0547964
-0.054819
-0.0548869
-0.0401131
-0.025362
-0.020543
-0.0156787
0.0193213
0.054457
0.079638
0.129774
0.284796
0.434774
0.574774
0.704819
0.829932
0.9
0.855
0.684887
0.314796
-0.200294
-0.905362
-1.34538
-1.48538
-1.55552
-1.55081
-1.41113
-1.17145
-1.01667
-0.916787
-0.7419
-0.532059
-0.392398
-0.277873
-0.223281
-0.188665
-0.164027
-0.144344
-0.139751
-0.140271
-0.120814
-0.0963575
-0.0918778
-0.0873529
-0.0926697
-0.102964
-0.0834163
-0.0639593
-0.0645023
-0.0650226
-0.0654299
-0.0657466
-0.0760407
-0.0814027
-0.0519231
-0.0274208
-0.0328281
-0.0382127
-0.0434842
-0.0486425
-0.0587557
-0.063914
-0.0441177
-0.0292308
-0.0242081
-0.0191176
-0.0140045
-0.00400452
0.00588236
0.0108145
0.0157919
0.0207692
0.0208371
0.0211312
0.0165611
0.0367873
0.0718778
0.0821719
0.0826244
0.0781222
0.0687104
0.0645701
0.0656335
0.0917647
0.122964
0.129276
0.120633
0.116833
0.112896
0.118846
0.124706
0.130566
0.136357
0.121968
0.107557
0.0932353
0.0788688
0.0843439
0.0896833
0.0999321
0.105158
0.0854525
0.0707466
0.0659728
0.0709728
0.100769
0.120588
0.120475
0.115407
0.105339
0.100249
0.100158
0.110023
0.129864
0.124864
0.1
0.090181
0.0903846
0.0806561
0.0660181
0.0665384
0.0773303
0.0738461
0.061086
0.0590045
0.0675113
0.0815158
0.0807918
0.0998416
0.0981448
0.0998416
0.0992307
0.0904072
0.0795701
0.0930995
0.106312
0.0995475
0.0934163
0.0833937
0.0740724
0.0751584
0.0820136
0.099819
0.108258
0.0872172
0.076448
0.0908597
0.100294
0.0997285
0.104186
0.113643
0.118235
0.117986
0.112828
0.0977376
0.0975113
0.112149
0.1169
0.111765
0.106674
0.101629
0.096629
0.091629
0.101471
0.121244
0.106222
0.0813575
0.0764706
0.0715611
0.051629
0.0366742
0.0416968
0.0467195
0.0318326
0.0170815
0.00744344
-0.00223982
0.00798643
0.0181674
0.00330317
-0.0114706
-0.00110859
0.00434389
-0.0301357
-0.0447059
-0.0194118
-0.00895927
-0.0332805
-0.0474887
-0.046629
-0.0508145
-0.0600679
-0.0643891
-0.0587557
-0.0529864
-0.0570588
-0.0610407
-0.0550226
-0.0491177
-0.0433032
-0.0374887
-0.0316742
-0.0257919
-0.0298416
-0.0439367
-0.0580995
-0.0523756
-0.0367195
-0.0309955
-0.0352263
-0.0394118
-0.0485747
-0.0628507
-0.0772625
-0.0517647
-0.0262443
-0.025543
-0.0247964
-0.0291403
-0.0335521
-0.0330543
-0.0326018
-0.0221493
-0.0166516
-0.0360634
-0.050543
-0.0552263
-0.0550453
-0.0349548
-0.0201131
-0.030543
-0.0409729
-0.0463575
-0.0566742
-0.0669683
-0.0673756
-0.0528281
-0.0431222
-0.0383484
-0.0435294
-0.0586425
-0.063371
-0.0579412
-0.0527376
-0.0526697
-0.0524208
-0.0519683
-0.0513575
-0.0556787
-0.055
-0.0442534
-0.0383484
-0.0373077
-0.0361312
-0.0348643
-0.0386425
-0.0425113
-0.0214253
-0.00033937
0.000746604
0.0018552
-0.00696833
-0.0157014
-0.0293665
-0.0381448
-0.0121267
0.0087104
0.00477375
0.000339366
-0.00929865
-0.0195701
-0.0304751
-0.0318778
-0.00880091
-0.00140271
-0.0194344
-0.0320588
-0.0339367
-0.0337104
-0.0311991
-0.0260181
-0.023914
-0.0213801
-0.013552
-0.0208371
-0.0335294
-0.011991
0.0188009
0.043914
0.0682127
0.056448
0.0339366
0.0210181
0.00773756
0.028914
0.0548643
0.0408823
0.0269231
0.0128281
-0.00135747
0.00443438
0.0100905
0.0205882
0.0310407
0.0265158
0.0220136
0.00748868
-0.00212671
0.01819
0.0335068
0.0388462
0.0442308
0.0346606
0.025181
0.0207466
0.0210633
0.0311765
0.0313122
0.0215158
0.0167647
0.0170136
0.0172398
0.0223756
0.0372851
0.0520136
0.0518778
0.0418778
0.0518552
0.0718099
0.0816968
0.0914932
0.0962443
0.0959729
0.0957466
0.095543
0.105249
0.124819
0.144253
0.163643
0.208145
0.252738
0.252262
0.251742
0.231244
0.210656
0.229932
0.244186
0.218507
0.197919
0.202421
0.181946
0.0964706
0.060905
0.105294
0.129819
0.109457
0.0841177
0.0488009
0.0333937
0.0278733
0.00730771
-0.0232579
-0.0438462
-0.0544796
-0.0651131
-0.0757692
-0.0665385
-0.0423982
-0.0331448
-0.0337557
-0.0342987
-0.0397738
-0.0552263
-0.0707014
-0.0513122
-0.0220136
0.0174208
-0.0180091
0.0965837
0.136176
0.270747
0.405249
0.509638
0.619027
0.778575
0.89319
0.78776
0.597285
0.126765
-0.383778
-0.994344
-1.43493
-1.52554
-1.58609
-1.57658
-1.50229
-1.34321
-1.18907
-1.02982
-0.840475
-0.621041
-0.47172
-0.372557
-0.288575
-0.204728
-0.170747
-0.161606
-0.157557
-0.153597
-0.149751
-0.146018
-0.122285
-0.098552
-0.0947059
-0.0957692
-0.09681
-0.0978959
-0.0841855
-0.0655656
-0.0618552
-0.0630317
-0.0691176
-0.0751584
-0.0912217
-0.107353
-0.0685747
-0.0397511
-0.0407919
-0.0418099
-0.0478507
-0.0538914
-0.0549321
-0.0459728
-0.0120136
0.0121267
0.00647059
0.000837117
0.005181
0.00950227
0.0188462
0.0332805
0.0428054
0.0473982
0.0470362
0.0467195
0.046448
0.0611765
0.0859502
0.0958597
0.090905
0.0861991
0.0917421
0.0922851
0.0828281
0.0932353
0.113552
0.11905
0.119661
0.110181
0.0956109
0.0859955
0.0712217
0.0859729
0.100611
0.0755656
0.0506561
0.0456109
0.0404072
0.06
0.0795249
0.0890724
0.0985747
0.107986
0.117308
0.116538
0.120701
0.139819
0.154005
0.148326
0.137715
0.122127
0.106471
0.090724
0.0848869
0.0989593
0.10819
0.102624
0.0922624
0.0817647
0.0767195
0.0717873
0.0774208
0.0936652
0.0954978
0.0878733
0.085905
0.0844118
0.0874208
0.0995475
0.10457
0.10733
0.107376
0.100407
0.0729412
0.0551584
0.0774208
0.100023
0.093371
0.0874661
0.0823303
0.0780317
0.0846606
0.0919457
0.114706
0.127919
0.116584
0.105407
0.109299
0.113145
0.122036
0.130928
0.134819
0.138891
0.123145
0.11233
0.101425
0.105566
0.134751
0.144027
0.143439
0.132964
0.117534
0.111968
0.10629
0.110588
0.124864
0.114321
0.093914
0.0884842
0.0830091
0.0774661
0.0768778
0.0763122
0.0808145
0.0554977
0.0252489
0.0198643
0.0144118
0.0289819
0.0435973
0.0333032
0.0231448
0.0130996
0.00300905
-0.00719457
-0.0174208
-0.00764705
0.0022172
-0.00776018
-0.0176923
-0.0276697
-0.0377828
-0.0379864
-0.0381674
-0.028371
-0.0285747
-0.048733
-0.0589367
-0.0642081
-0.0645928
-0.0501584
-0.0359729
-0.0170136
-0.0279412
-0.0537557
-0.0596833
-0.050724
-0.0417647
-0.0327602
-0.0335294
-0.0441855
-0.0549321
-0.0655656
-0.0658597
-0.0559955
-0.0511538
-0.0512443
-0.0561312
-0.0608597
-0.065543
-0.0702489
-0.055
-0.0396606
-0.0342082
-0.0287104
-0.0430996
-0.0574661
-0.0619231
-0.0664706
-0.0511086
-0.0357919
-0.0254525
-0.0250679
-0.0495928
-0.0592308
-0.0440272
-0.0338688
-0.0288009
-0.0240272
-0.0294344
-0.0397059
-0.0500905
-0.0463801
-0.0284389
-0.0210407
-0.0242534
-0.0281674
-0.0369683
-0.0494796
-0.0607466
-0.0558145
-0.0386425
-0.0280543
-0.0260181
-0.0342534
-0.0424434
-0.0354072
-0.033914
-0.0133937
-0.0136878
-0.00470587
0.00355205
-0.00893664
-0.0219004
-0.000339356
0.0210181
0.0122398
0.00339367
-0.000407233
-0.00923077
-0.0281222
-0.0371493
-0.0111765
0.00966063
0.000542982
-0.00855204
-0.00757918
-0.00671946
-0.0010181
0.00963801
0.0202489
0.025905
0.021629
0.0173529
0.0130769
0.0235973
0.048914
0.0592081
0.0594796
0.0548416
0.0452941
0.0307014
0.0160407
0.031267
0.0564027
0.0615158
0.061629
0.0568326
0.0470588
0.0471493
0.0521267
0.0770136
0.101833
0.0966742
0.0915385
0.101425
0.111199
0.125769
0.140271
0.154751
0.179253
0.223869
0.258575
0.248348
0.238032
0.237579
0.237104
0.231674
0.21629
0.18595
0.180611
0.210226
0.194796
0.129321
0.103891
0.108552
0.0982579
0.0729864
0.0526018
0.0371493
0.031629
0.0260407
-0.00945701
-0.0498642
-0.0652941
-0.0757692
-0.0713801
-0.0570814
-0.0477602
-0.0384389
-0.0340271
-0.0445249
-0.05
-0.0554977
-0.0311312
-0.0067647
-0.00223981
0.0123756
0.0770588
0.126765
0.101403
0.130973
0.335498
0.505136
0.604977
0.729887
0.914842
0.919751
0.634593
0.359367
0.0940724
-0.401154
-1.14627
-1.4564
-1.37161
-1.36692
-1.42735
-1.31776
-1.09817
-0.913484
-0.743824
-0.574208
-0.404615
-0.295136
-0.205747
-0.171199
-0.151538
-0.131991
-0.112557
-0.0982127
-0.0839593
-0.064819
-0.0807466
-0.0565385
-0.0722172
-0.0729412
-0.0737104
-0.0595023
-0.0453167
-0.0411086
-0.0367873
-0.0523303
-0.0678507
-0.0684389
-0.0640724
-0.0447059
-0.0302262
-0.0306787
-0.0309502
-0.0362217
-0.0415837
-0.0420588
-0.0375566
-0.0230769
-0.0134389
-0.0185973
-0.028733
-0.0388688
-0.0340724
-0.0143665
0.000362002
0.0101358
0.0150453
0.0100905
0.00511313
0.0101131
0.0351584
0.0602489
0.0654299
0.065724
0.0611539
0.0516969
0.047353
0.0531222
0.0638688
0.069638
0.0704978
0.0714027
0.0722851
0.0730996
0.0737557
0.0743665
0.0751131
0.0758371
0.0663349
0.0567421
0.0521493
0.0474887
0.0676923
0.0778054
0.0878733
0.0979638
0.0930769
0.0879412
0.0975339
0.112104
0.126674
0.131335
0.121131
0.115995
0.110905
0.105747
0.110475
0.115158
0.119796
0.109593
0.0895475
0.0795249
0.0695702
0.0698643
0.0803394
0.0857014
0.0862217
0.0677376
0.0450679
0.0428281
0.0361312
0.0502489
0.0643665
0.0722172
0.0788688
0.0693665
0.0575566
0.0622625
0.0655656
0.0692986
0.0730769
0.0615837
0.0505882
0.0406109
0.0364706
0.0480317
0.055362
0.0634615
0.0671041
0.0511991
0.0454751
0.0598642
0.0742986
0.0887783
0.0982805
0.102805
0.107489
0.102149
0.0968326
0.0963801
0.0959502
0.100543
0.105226
0.105023
0.0899095
0.069819
0.0695475
0.0791629
0.0838235
0.078552
0.0634389
0.0734389
0.0434615
0.0434615
0.058371
0.0732353
0.0631222
0.0530543
0.0330769
0.0131674
0.0132127
0.01319
0.0231222
0.0330995
0.0282127
0.0234389
0.0186878
0.0140045
0.0142534
0.0144118
0.0145249
0.0147511
0.0100905
0.000452477
-0.0142082
-0.0140498
0.00592759
0.0158371
0.0106787
-0.00468327
-0.0252036
-0.0357919
-0.0364027
-0.0369231
-0.0323529
-0.0277149
-0.0279864
-0.0381448
-0.0533258
-0.058733
-0.054095
-0.0491629
-0.0441403
-0.0440724
-0.0488914
-0.0585068
-0.068009
-0.0475566
-0.0270588
-0.0363801
-0.0455204
-0.0595023
-0.0733937
-0.0772624
-0.0761991
-0.0552489
-0.0393213
-0.0333258
-0.0272624
-0.0361538
-0.045181
-0.0443892
-0.0436652
-0.0330091
-0.0223529
-0.0216742
-0.0262443
-0.0410181
-0.0509276
-0.0461991
-0.0423077
-0.0391629
-0.0364706
-0.0443213
-0.0579638
-0.0715837
-0.0590045
-0.035181
-0.035
-0.0424661
-0.041629
-0.0344344
-0.0276018
-0.0257466
-0.0185747
0.00312218
0.00891403
0.0140045
0.00848417
0.00201358
-0.000610854
-0.0037104
0.00798643
0.019638
0.0312896
0.0429412
0.0295701
0.021086
0.0424435
0.0587557
0.0551131
0.0514706
0.0478507
0.0391855
0.0254525
0.026629
0.0526923
0.0637783
0.0549321
0.0461086
0.0322625
0.0232805
0.019276
0.0251131
0.0409276
0.0468552
0.0428959
0.0388914
0.034819
0.0305882
0.0362217
0.0418326
0.0424208
0.0380543
0.0286878
0.0192081
0.024638
0.015
0.0253167
0.0406561
0.0560181
0.0563575
0.0565837
0.0566516
0.061629
0.0965158
0.126425
0.136493
0.156629
0.211719
0.251719
0.266629
0.271403
0.251131
0.230905
0.215747
0.195543
0.170271
0.174977
0.214638
0.194344
0.12414
0.0989819
0.108869
0.0937104
0.0584842
0.0431674
0.0477602
0.0324887
0.00233032
-0.0229412
-0.0433258
-0.0588462
-0.074457
-0.0650226
-0.0455204
-0.0458824
-0.0561765
-0.0665158
-0.0718778
-0.0522624
-0.0326697
-0.0280543
-0.0233484
-0.0235068
-0.0186878
0.0410181
0.0857014
0.095362
0.150023
0.329751
0.48457
0.59448
0.724321
0.904027
0.903733
0.628439
0.343213
0.0530996
-0.457036
-1.17724
-1.46749
-1.39276
-1.40303
-1.47833
-1.3736
-1.15878
-0.99405
-0.849367
-0.634729
-0.395136
-0.29552
-0.235882
-0.211176
-0.196448
-0.186765
-0.177081
-0.147466
-0.117873
-0.113145
-0.123326
-0.123507
-0.123733
-0.109072
-0.094457
-0.0898416
-0.085181
-0.090362
-0.0954751
-0.0956335
-0.0958371
-0.0811312
-0.0664027
-0.0615837
-0.0566742
-0.0666063
-0.0765611
-0.0765837
-0.0716063
-0.056629
-0.0466063
-0.0414932
-0.0362896
-0.0360181
-0.0258145
-0.00570137
0.00941175
0.0195928
0.0247511
0.0199774
0.0152941
0.0207014
0.0460633
0.0764027
0.0868326
0.0923529
0.0880995
0.0739366
0.0696832
0.0754525
0.081448
0.0826244
0.103937
0.115317
0.106629
0.097828
0.113846
0.129751
0.125543
0.121357
0.107376
0.0933258
0.0889366
0.0843891
0.0948416
0.105249
0.115452
0.125747
0.116086
0.111267
0.126222
0.141041
0.155747
0.16043
0.145091
0.129751
0.119457
0.119118
0.133688
0.143235
0.137783
0.132466
0.127285
0.107172
0.0871267
0.102036
0.126923
0.127081
0.117466
0.107941
0.0986652
0.0851584
0.0723303
0.0950226
0.123348
0.117534
0.111742
0.114729
0.116403
0.121697
0.124661
0.124367
0.122828
0.116719
0.110588
0.0991177
0.0880769
0.102941
0.108552
0.104842
0.102149
0.0905882
0.0794344
0.0735068
0.0776923
0.0969457
0.106267
0.105656
0.100226
0.0899547
0.0845928
0.079095
0.0836425
0.103235
0.102941
0.0877602
0.0776244
0.0675339
0.0623756
0.0621493
0.0619231
0.0666968
0.0515385
0.0264253
0.0112896
-0.00882353
0.00106335
0.0109502
0.00588235
0.000859725
-0.014095
-0.0290272
-0.0439819
-0.0589367
-0.048914
-0.0388235
-0.0485747
-0.0582353
-0.0628281
-0.0673982
-0.0720588
-0.0767647
-0.0664706
-0.0610407
-0.0804525
-0.0949321
-0.109502
-0.0991403
-0.0688914
-0.0536652
-0.0484163
-0.0481222
-0.0628507
-0.0726471
-0.0775792
-0.0728281
-0.0482806
-0.0436878
-0.0439593
-0.0439819
-0.0489593
-0.0541629
-0.0495023
-0.0397964
-0.0300226
-0.0351131
-0.025
-0.0596606
-0.0642081
-0.0438235
-0.0234389
-0.0179185
-0.0122398
-0.0214027
-0.0304525
-0.0194796
-0.00848415
0.00255657
0.0136652
0.00990951
0.00622172
-0.00248869
-0.0113575
-0.0203394
-0.0294344
-0.0186425
-0.00776019
-0.00674209
-0.0106787
-0.0196154
-0.018733
-0.00807693
-0.00296381
-0.00825792
-0.0183937
-0.0285973
-0.034638
-0.0414253
-0.0388009
-0.0269231
-0.0259955
-0.0294344
-0.0453846
-0.0644344
-0.0671719
-0.0627602
-0.0455656
-0.0227149
-0.0155204
-0.013371
-0.015905
-0.019095
-0.00341628
0.011267
0.0150453
0.0180769
0.0154751
0.012534
0.00429866
0.000905
0.027353
0.0487104
0.0399774
0.031267
0.0226697
0.0139593
0.0100679
0.00610864
0.0170815
0.0280543
0.0290498
0.0301132
0.031267
0.0372625
0.0480543
0.0488009
0.0394797
0.0301811
0.020905
0.016629
0.0173304
0.0228734
0.0332806
0.0386426
0.0439367
0.0392308
0.0245249
0.0197286
0.0148643
0.0149548
0.03
0.0350453
0.0400905
0.035181
0.0302037
0.055
0.0796833
0.0892987
0.0989593
0.0987557
0.09862
0.0935295
0.0983485
0.132964
0.172534
0.232149
0.26681
0.271606
0.256425
0.196244
0.181018
0.215724
0.23043
0.215181
0.195
0.174887
0.139796
0.0997964
0.0845928
0.089344
0.0842761
0.0693666
0.0494797
0.0295702
0.00950231
-0.0106787
-0.0308371
-0.0509728
-0.0660633
-0.0811085
-0.0861764
-0.0863122
-0.0565837
-0.0369004
-0.0321719
-0.0274434
-0.0326923
-0.0378959
-0.0480543
-0.0582126
-0.0284389
0.0113801
0.116335
0.191335
0.176335
0.216267
0.391199
0.546018
0.67586
0.840747
1.05572
0.920702
0.375656
-0.0395475
-0.329932
-0.805317
-1.42568
-1.57606
-1.41145
-1.39181
-1.46219
-1.31769
-1.07826
-0.86871
-0.674072
-0.504457
-0.344887
-0.260407
-0.196018
-0.166742
-0.142511
-0.128122
-0.11362
-0.114163
-0.119842
-0.0957013
-0.0716515
-0.0676018
-0.0635294
-0.0693665
-0.0750678
-0.0906787
-0.106403
-0.087285
-0.0680995
-0.0737782
-0.0794343
-0.0751131
-0.0707466
-0.0763574
-0.0770361
-0.0577601
-0.0434389
-0.0490497
-0.0496606
-0.0402714
-0.0309049
-0.0215837
-0.0171719
-0.0126923
-0.00825788
-0.0137782
-0.0191628
-0.0194343
0.000248902
0.0298869
0.039638
0.0395023
0.0394571
0.0395476
0.0397286
0.0348869
0.0548869
0.0848643
0.0850453
0.0704525
0.0661765
0.0621041
0.0630996
0.0640498
0.0747285
0.0853394
0.0811313
0.0770136
0.0728281
0.0685521
0.059163
0.0495928
0.0598191
0.0649548
0.0451584
0.0304073
0.0306562
0.0407014
0.065543
0.080362
0.0851584
0.0898643
0.0894797
0.0890724
0.0886426
0.0981448
0.117602
0.11724
0.0970362
0.0869231
0.0918779
0.09181
0.0816742
0.0763801
0.0809955
0.0708598
0.0509729
0.0466064
0.0425566
0.0483485
0.039276
0.0610181
0.0534842
0.0515159
0.0503168
0.0601584
0.0693439
0.0909729
0.110701
0.10414
0.0954525
0.103982
0.111855
0.100475
0.0941403
0.102534
0.101471
0.0815158
0.0675339
0.069457
0.0771493
0.0905656
0.104344
0.118394
0.122579
0.111878
0.106357
0.105973
0.12552
0.154977
0.164525
0.159163
0.148846
0.138575
0.118281
0.0979638
0.122511
0.156968
0.146516
0.126154
0.120792
0.11543
0.0950905
0.0797738
0.0894344
0.099095
0.0938462
0.0886652
0.0934615
0.0982579
0.0980769
0.0928733
0.0676471
0.0474887
0.0574434
0.0624434
0.0374208
0.0173077
0.0221267
0.0270362
0.0270815
0.0272172
0.0173982
-0.00235294
-0.0220362
-0.01681
0.0133032
0.0235068
0.0138461
0.00420814
-0.00547512
-0.0151358
-0.0247964
-0.0295249
-0.029276
-0.028914
-0.0334615
-0.0380317
-0.0376244
-0.0372624
-0.0319683
-0.0267647
-0.0216063
-0.0163348
-0.0260181
-0.0408823
-0.0559276
-0.0311086
-0.00628958
-0.0213575
-0.0363575
-0.0363348
-0.0363575
-0.0464706
-0.0568778
-0.0476018
-0.0383258
-0.0489593
-0.064457
-0.0798642
-0.0903394
-0.0908145
-0.0813122
-0.0568778
-0.0473982
-0.0728054
-0.0880316
-0.0981448
-0.093371
-0.0736878
-0.0638914
-0.0690498
-0.0739819
-0.0688235
-0.0736199
-0.0883936
-0.0780995
-0.0577149
-0.0521493
-0.0564253
-0.0607918
-0.0652036
-0.0695475
-0.0688235
-0.0581448
-0.067466
-0.0416742
-0.0458371
-0.0500905
-0.054457
-0.053914
-0.0537104
-0.048914
-0.0441176
-0.0441855
-0.044819
-0.0712217
-0.0882579
-0.0758823
-0.0643665
-0.0618099
-0.0587783
-0.0634615
-0.0665611
-0.0630316
-0.0572172
-0.0345475
-0.0224887
-0.0158144
-0.00889137
-0.00701354
-0.00608595
-0.00113119
0.00273759
0.00565613
0.00794119
0.00977377
0.0113349
0.0126697
0.0138688
0.02
0.0360634
0.0520815
0.0429638
0.0237104
0.019457
0.0202036
0.0358145
0.0513122
0.0518326
0.0523982
0.0430091
0.0335747
0.0189819
0.00425342
0.0244344
0.0446607
0.0450679
0.045543
0.0409729
0.0362896
0.0264706
0.0215611
0.0365837
0.041629
0.0267195
0.0167421
0.0166742
0.0165159
0.0212896
0.0310634
0.0408598
0.0407014
0.0255657
0.0202715
0.039819
0.0642987
0.0937104
0.103235
0.102873
0.102466
0.101968
0.116358
0.135679
0.199932
0.269118
0.278371
0.277692
0.246946
0.206086
0.210068
0.213982
0.217919
0.221946
0.206131
0.185362
0.134434
0.088439
0.107443
0.121516
0.100724
0.0800453
0.0494118
0.0186199
0.00264708
-0.0083484
-0.0194118
-0.0354072
-0.0562896
-0.0720814
-0.057828
-0.0536878
-0.0546606
-0.0555882
-0.0514479
-0.0522172
-0.0629864
-0.0686425
-0.0643212
-0.05
-0.0256787
0.0586878
0.163122
0.17767
0.162285
0.291833
0.451335
0.585724
0.715045
0.924434
0.723914
0.628484
0.118032
-0.242579
-0.613258
-1.13896
-1.56968
-1.41032
-1.2909
-1.35647
-1.3671
-1.16287
-0.953688
-0.73448
-0.540272
-0.391041
-0.281968
-0.227964
-0.183982
-0.150023
-0.131063
-0.117081
-0.113009
-0.108869
-0.0999095
-0.0911538
-0.0873982
-0.0836199
-0.0797285
-0.080724
-0.0866968
-0.0976697
-0.0887783
-0.0649774
-0.0561765
-0.0573982
-0.0635068
-0.0745023
-0.0805204
-0.0815611
-0.0676471
-0.0487557
-0.0398416
-0.0358824
-0.04681
-0.0577149
-0.043733
-0.029819
-0.0158824
-0.00185522
-0.00271494
-0.00346154
-0.00909503
-0.00981902
0.0292534
0.0533032
0.0524887
0.0518326
0.0513348
0.0509502
0.0456335
0.0502262
0.0747285
0.0893439
0.094095
0.0991629
0.0945701
0.0900452
0.095543
0.10586
0.125973
0.131199
0.126516
0.116855
0.107217
0.107466
0.117579
0.117466
0.107149
0.0969457
0.0868778
0.0718099
0.0566516
0.086267
0.130701
0.130091
0.129457
0.123801
0.1181
0.10233
0.086448
0.105543
0.124661
0.108824
0.0930091
0.0822398
0.071448
0.070543
0.0695928
0.0636652
0.057828
0.0471267
0.0318552
0.0121041
0.00233031
0.0173982
0.0280543
0.0294344
0.0315158
0.034276
0.0329638
0.0207014
0.0328959
0.0626923
0.070905
0.0724887
0.0717195
0.0590271
0.0470362
0.0355656
0.0438009
0.0619909
0.0611312
0.051267
0.0474434
0.0395023
0.072172
0.0852941
0.0886425
0.0922172
0.0910181
0.0899321
0.0839366
0.0829185
0.111833
0.135769
0.129774
0.123824
0.112919
0.102127
0.096267
0.0954977
0.114615
0.123846
0.108258
0.0977376
0.0922398
0.0866516
0.0909502
0.0952262
0.0995023
0.0988914
0.0834163
0.0680317
0.0576923
0.0571946
0.0665611
0.0709955
0.0654977
0.0451131
0.0248416
0.009638
-0.00558824
0.0140498
0.0436199
0.0433484
0.0331674
0.0229638
0.0177375
0.00248868
-0.0128733
0.00660633
0.0259728
0.0153167
0.00461537
-0.00115386
-0.00694571
-0.0128054
-0.0186425
-0.00936653
-0.00490951
-0.0252263
-0.0405882
-0.0410633
-0.041448
-0.0317421
-0.0220362
-0.0222851
-0.0224208
-0.0274887
-0.0424661
-0.0623982
-0.0624661
-0.0426244
-0.0324208
-0.0368326
-0.0412217
-0.0455656
-0.0498643
-0.0541629
-0.0436199
-0.0232127
-0.0226923
-0.0320588
-0.0364932
-0.0410181
-0.0356561
-0.0204072
-0.0152036
-0.0150226
-0.0198869
-0.0249548
-0.0353394
-0.0461539
-0.0274661
-0.00938915
-0.01181
-0.0147511
-0.0382353
-0.0625113
-0.0626018
-0.0557919
-0.0318778
-0.0102941
-0.0159728
-0.0197738
-0.0168552
-0.0145023
-0.00273754
0.00843892
0.0140498
0.0192081
0.0188688
0.0124208
0.00497738
0.00699096
0.0235068
0.0349095
0.0411765
0.0374208
0.0236426
0.0198416
0.0159502
0.0268778
0.0477149
0.0536878
0.0497738
0.0458371
0.0418778
0.0228507
0.038733
0.0145475
0.0303846
0.0164027
0.00253395
-0.00135746
-0.00529411
0.0107014
0.0266063
0.0274661
0.0283258
0.0192308
0.0101584
0.00104072
-0.00321267
0.0225792
0.0431448
0.0437556
0.0443891
0.035
0.025543
0.0110181
0.0163348
0.0414932
0.0567421
0.0621267
0.0675113
0.0728507
0.0780996
0.0832579
0.108281
0.13819
0.168213
0.198348
0.223439
0.243462
0.253348
0.263167
0.252941
0.232692
0.202557
0.172511
0.187443
0.207308
0.177104
0.146878
0.146697
0.146584
0.121516
0.0964706
0.0664253
0.0462896
0.0609955
0.0656787
0.0154299
-0.0247964
-0.0300679
-0.0404072
-0.0557919
-0.0612443
-0.0417647
-0.0271493
-0.0323529
-0.037534
-0.0377376
-0.0330091
-0.0183484
-0.00364254
0.00615384
0.0110407
0.0159955
0.0559728
0.11595
0.195814
0.285588
0.410498
0.535543
0.660634
0.780769
0.955814
1.13572
0.710543
0.230385
-0.34957
-0.924389
-1.32928
-1.70425
-1.5743
-1.44939
-1.32448
-1.20457
-1.08964
-0.954683
-0.704729
-0.48991
-0.370272
-0.265656
-0.20595
-0.161131
-0.151199
-0.141312
-0.136516
-0.11681
-0.0821946
-0.0624887
-0.0626471
-0.0628281
-0.0630769
-0.063371
-0.0587104
-0.0491629
-0.0395701
-0.0450226
-0.0653168
-0.0806109
-0.0909502
-0.0913801
-0.0818778
-0.067353
-0.0527828
-0.0480996
-0.0533484
-0.0585973
-0.063914
-0.0494118
-0.0699548
-0.0203394
-0.0206109
-0.0208597
-0.021086
-0.0263348
-0.0316063
-0.0119683
0.00771494
0.00757919
0.00753395
0.00753394
0.00757919
0.0176471
0.0327149
0.0478281
0.0580317
0.0534389
0.0490045
0.0497285
0.0555204
0.0813575
0.0922398
0.0981674
0.0991177
0.0850453
0.0708371
0.0564932
0.057172
0.0728959
0.0785068
0.0790045
0.0745475
0.0651358
0.0605882
0.0558824
0.0609729
0.0759502
0.0810634
0.0862444
0.0912217
0.0960181
0.105724
0.110317
0.119796
0.129321
0.109072
0.0889367
0.0838009
0.0785973
0.0883032
0.0980091
0.0927828
0.0876471
0.0726018
0.0576018
0.0476471
0.0428054
0.0581448
0.068914
0.0601584
0.0520136
0.0444797
0.0374661
0.0409502
0.0552262
0.0853167
0.0935747
0.0747511
0.0633032
0.0642534
0.0683258
0.0706561
0.0685294
0.0669231
0.0659276
0.0555204
0.0456787
0.0364706
0.0533258
0.0811086
0.0844118
0.07819
0.0623077
0.0416742
0.046086
0.0505204
0.0649321
0.0794344
0.0691403
0.0589593
0.0687783
0.0785747
0.0833258
0.0880543
0.0928054
0.0976018
0.0824661
0.0623303
0.0471041
0.0417873
0.0564027
0.0659728
0.075543
0.0802941
0.0552262
0.0401584
0.0300452
0.0348642
0.0646154
0.069457
0.0592308
0.054276
0.0493439
0.0443213
0.0392308
0.0341176
0.0390045
0.0340498
0.0192308
0.0143891
0.00952487
0.00463799
0.00470587
0.00975112
0.00484161
0.0100452
-0.0047059
-0.0095249
-0.0144344
-0.00445702
0.00549773
0.00552035
0.00540723
-0.00988689
-0.0252489
-0.025724
-0.0263122
-0.0170136
-0.0076697
-0.0133258
-0.0186425
-0.0288235
-0.0392082
-0.0347964
-0.0251131
-0.010181
-0.00520363
-0.0201358
-0.0299548
-0.0346607
-0.0342987
-0.0188688
-0.00334843
0.00728506
-0.00685522
-0.0357919
-0.0447285
-0.0487104
-0.0377828
-0.0169231
-0.0110407
-0.0101131
-0.0141403
-0.0231674
-0.0273303
-0.031629
-0.0160407
0.00447963
-0.00993214
-0.0243665
-0.0339593
-0.0438688
-0.0341629
-0.0250226
-0.0264706
-0.0283484
-0.0505656
-0.0733484
-0.0768326
-0.0808823
-0.0754072
-0.0679412
-0.058371
-0.0457466
-0.0502036
-0.0533937
-0.055543
-0.0530769
-0.0310633
-0.0147511
-0.00402714
0.00119911
-0.00927601
-0.0159728
-0.0137104
-0.00687782
0.00461538
0.00597285
-0.00273755
-0.00658371
-0.00558824
0.000316737
0.0111765
0.0170362
0.0178959
0.0188009
0.0147511
0.0106561
0.0114706
0.0171267
0.0227149
0.0333258
0.0439819
0.0197285
-0.00447965
0.00117646
0.00674207
0.0172624
0.0278054
0.0234842
0.0192081
0.00993212
0.0055656
0.0260407
0.0415385
0.0420588
0.0375566
0.0230769
0.0135973
0.0190724
0.0244344
0.0296833
0.0399095
0.0551357
0.0603846
0.0506109
0.0508371
0.0609729
0.0760633
0.101109
0.111154
0.121199
0.16129
0.206425
0.221471
0.231403
0.24129
0.251131
0.240973
0.25586
0.185769
0.155656
0.195452
0.230181
0.164932
0.104751
0.0996833
0.0946606
0.0745928
0.0544796
0.0442986
0.034095
0.0239367
0.00382354
-0.0362443
-0.0714027
-0.0917647
-0.102217
-0.0877376
-0.0782353
-0.0736652
-0.0740045
-0.089276
-0.0946154
-0.0800452
-0.0654751
-0.050905
-0.0412217
-0.0413801
-0.0265385
-0.00174208
0.0579412
0.132534
0.247195
0.376946
0.481765
0.581629
0.711403
0.846041
0.960543
1.07
0.639502
0.184095
-0.486199
-1.12643
-1.40172
-1.63708
-1.55751
-1.46299
-1.28842
-1.1288
-1.01412
-0.864457
-0.609932
-0.400498
-0.301109
-0.221697
-0.177217
-0.147738
-0.128303
-0.103982
-0.0747511
-0.0554977
-0.0511991
-0.0468326
-0.0524208
-0.0579864
-0.063552
-0.0641629
-0.0447964
-0.0354299
-0.0260633
-0.026629
-0.0371267
-0.0427149
-0.0383937
-0.0340724
-0.0347285
-0.0352941
-0.0357692
-0.0411991
-0.051629
-0.0371493
-0.00771492
-0.01819
-0.0285294
-0.0287556
-0.0289593
-0.0342081
-0.0395475
-0.0199547
-0.000361983
-0.000723974
-0.000972846
-0.00108596
-0.00115384
0.00373304
0.00861992
0.0135068
0.0184389
0.0284615
0.0385973
0.0288462
0.019276
0.0249095
0.0356109
0.0463575
0.0571493
0.0679864
0.0688462
0.0598416
0.0604751
0.0709276
0.0765385
0.0773077
0.0728507
0.0631674
0.0584615
0.053733
0.0538914
0.0639367
0.0689593
0.0739819
0.0790045
0.0789593
0.083733
0.0983258
0.107783
0.117172
0.121629
0.126176
0.110814
0.0954751
0.105091
0.114661
0.109231
0.103846
0.093552
0.0783937
0.0631674
0.0581448
0.07319
0.0835068
0.0791629
0.0704072
0.0573077
0.0497059
0.0525792
0.0659729
0.0999095
0.114367
0.119321
0.112376
0.0984163
0.0914706
0.0916516
0.0905204
0.0882806
0.0863801
0.0849095
0.0792987
0.064457
0.0651357
0.0764706
0.083914
0.0922851
0.0911086
0.0852715
0.0845928
0.0840272
0.103529
0.123122
0.122851
0.122692
0.112602
0.102557
0.0974661
0.0923303
0.0971719
0.101968
0.106787
0.111674
0.106652
0.101629
0.0965611
0.0914027
0.0961991
0.0959955
0.0857692
0.0756335
0.0605882
0.0554977
0.0653394
0.0702263
0.0702263
0.0552715
0.0303167
0.020362
0.0154072
0.0253846
0.0452941
0.0502715
0.0453394
0.0304751
0.0156561
0.0108371
0.0110181
0.0111991
0.0213801
0.0265611
0.0317647
0.0170588
0.00244345
0.00282807
0.00309955
0.00328055
0.00343892
0.00357467
0.00373304
-0.0110407
-0.0258824
-0.0158823
-0.00592759
-0.000995465
-0.00124433
-0.0166968
-0.0272172
-0.027828
-0.0284615
-0.0241176
-0.0197737
-0.0253394
-0.0356561
-0.0457918
-0.0510181
-0.0512896
-0.0463575
-0.0362217
-0.0310633
-0.0308597
-0.0405656
-0.0551357
-0.0595928
-0.0640272
-0.0585294
-0.0429412
-0.0371493
-0.0412443
-0.0602941
-0.0443665
-0.0735068
-0.0627375
-0.0620136
-0.061267
-0.0754977
-0.0897511
-0.0940498
-0.0983936
-0.0827828
-0.0672172
-0.0666063
-0.0659728
-0.075362
-0.0851584
-0.0946832
-0.100317
-0.0863122
-0.0777828
-0.0747511
-0.0772851
-0.0953846
-0.109118
-0.112986
-0.109299
-0.0980543
-0.0894118
-0.083552
-0.0710407
-0.0526018
-0.0397059
-0.0273303
-0.0153394
-0.00882351
-0.00800904
-0.0130543
-0.0141629
-0.00608597
0.00140272
0.00348416
0.0153394
0.0321041
0.0288688
0.0206109
0.0222851
0.0238461
0.0402715
0.056629
0.0630091
0.0693891
0.050724
0.0320362
0.0383258
0.0445475
0.050724
0.0569005
0.0380996
0.0292534
0.0302941
0.0312896
0.0422624
0.05319
0.0591176
0.0600679
0.0459955
0.0368552
0.0376471
0.0383484
0.0439819
0.0495475
0.0550905
0.0557014
0.0463801
0.036991
0.0274887
0.0428054
0.0680317
0.0832579
0.0984615
0.10362
0.0987557
0.113846
0.138846
0.148801
0.163756
0.20871
0.253643
0.263507
0.273326
0.273167
0.273009
0.272828
0.262647
0.212466
0.177262
0.202014
0.211719
0.17138
0.141041
0.145792
0.145679
0.130679
0.105679
0.0656561
0.0454751
0.0701357
0.059819
0.00957013
-0.0206109
-0.0407692
-0.0510407
-0.051267
-0.0366968
-0.0121493
-0.00762444
-0.0180995
-0.023552
-0.0290045
-0.0294797
-0.0199774
-0.000384644
0.0193212
0.0240724
0.0288688
0.108688
0.0334842
0.273167
0.357783
0.467443
0.582172
0.711991
0.841833
0.981629
1.00133
0.44095
-0.109389
-0.629615
-1.1098
-1.475
-1.68518
-1.56534
-1.45057
-1.34595
-1.22122
-1.0664
-0.876629
-0.651923
-0.48224
-0.357534
-0.272896
-0.218348
-0.193756
-0.189072
-0.179321
-0.169593
-0.150045
-0.125633
-0.116109
-0.116471
-0.116787
-0.117036
-0.122308
-0.132692
-0.12319
-0.10371
-0.0991403
-0.10448
-0.109864
-0.110272
-0.110656
-0.111063
-0.0914932
-0.0718326
-0.0720362
-0.0721946
-0.0724208
-0.0726923
-0.0579864
-0.0433032
-0.0285973
-0.0137783
-0.0238235
-0.0338914
-0.0340498
-0.0242534
0.0154977
0.0353167
0.0352489
0.0403167
0.0505204
0.0557692
0.0510181
0.0563348
0.0767647
0.0872398
0.0927828
0.0985294
0.0994796
0.100475
0.0965158
0.0975339
0.108552
0.114638
0.110747
0.106697
0.107489
0.113281
0.12405
0.129638
0.120113
0.0957014
0.0713122
0.0618552
0.0522625
0.0824435
0.112511
0.112715
0.112919
0.102941
0.0928281
0.0975792
0.10224
0.116855
0.131584
0.136538
0.136538
0.116516
0.101425
0.101267
0.101063
0.0958597
0.0858145
0.0759276
0.0660859
0.0512669
0.0467194
0.0617647
0.0728959
0.0794344
0.0765611
0.064276
0.062534
0.0613348
0.0757466
0.100226
0.0971946
0.0817195
0.0739367
0.0739819
0.0673077
0.064638
0.0775113
0.110928
0.0848642
0.0593891
0.0595928
0.0605656
0.0574208
0.0550226
0.07319
0.0917873
0.0907014
0.0847511
0.0638235
0.0578959
0.0970588
0.126199
0.115475
0.104819
0.0991855
0.0885068
0.0727828
0.0770136
0.106176
0.115407
0.0997511
0.0841403
0.0735294
0.0678281
0.0620588
0.0662896
0.0805204
0.0698869
0.0443891
0.0339367
0.0335294
0.0330543
0.0375566
0.0421041
0.0416968
0.0213801
-0.00386877
0.000791859
0.0103846
0.01
0.00968326
0.00954751
0.00952489
-0.00545249
-0.0204525
-0.0254977
-0.030543
-0.0306109
-0.0306335
-0.0305204
-0.0303167
-0.0300452
-0.0298416
-0.0297511
-0.029638
-0.0245249
-0.0243891
-0.0391855
-0.0540045
-0.0688914
-0.0688235
-0.0437783
-0.028733
-0.0286652
-0.0335068
-0.0533484
-0.0584615
-0.0587783
-0.0541629
-0.0446154
-0.0399095
-0.0450452
-0.055181
-0.0654525
-0.0660407
-0.0568552
-0.0477602
-0.0386878
-0.0495023
-0.0751131
-0.0805204
-0.0858597
-0.0763122
-0.0668778
-0.0574887
-0.0479638
-0.0632579
-0.0784842
-0.0836652
-0.0838914
-0.0642308
-0.0495475
-0.0497059
-0.0547285
-0.0746154
-0.0894344
-0.0792308
-0.0690272
-0.0638235
-0.0585294
-0.0630996
-0.0726923
-0.0823756
-0.0821946
-0.0670815
-0.0569683
-0.0568326
-0.0615837
-0.0711312
-0.0757692
-0.0705204
-0.0503394
-0.0203394
-0.0157014
-0.0163122
-0.0270362
-0.0431448
-0.05
-0.0525113
-0.0457014
-0.0596154
-0.0391403
-0.0473756
-0.0534842
-0.0573529
-0.043914
-0.0284389
-0.0160407
-0.00361991
-0.00153846
9.04975e-05
0.00117647
0.00156109
0.0212896
0.0399095
0.0445475
0.0465611
0.0381674
0.029457
0.020362
0.0111086
0.0267421
0.0323529
0.0379638
0.0436199
0.0392986
0.039819
0.0501584
0.0554977
0.0508597
0.0462443
0.0466516
0.0421041
0.0325566
0.0428281
0.0629638
0.0680769
0.0682127
0.0634389
0.0537104
0.0439819
0.0342308
0.0544118
0.0795475
0.0747059
0.0698869
0.0650679
0.0602263
0.0702941
0.0802489
0.0850905
0.0898869
0.0947511
0.0996606
0.0845928
0.0744344
0.109072
0.12862
0.133122
0.13767
0.132285
0.126923
0.126538
0.155995
0.215294
0.254593
0.278937
0.288326
0.27776
0.247149
0.206425
0.190633
0.194774
0.203959
0.213213
0.182602
0.137104
0.111516
0.0908597
0.0902263
0.099638
0.0891855
0.0688462
0.0485747
0.0232353
0.00264706
-0.0180769
-0.023733
-0.0293213
-0.0398643
-0.0503394
-0.0507919
-0.0463122
-0.0219457
-0.00255656
-0.00303168
-0.00337104
-0.00861991
-0.0138688
-0.0141629
-0.00947963
0.0102262
0.0550226
0.134955
0.189955
0.235
0.339932
0.504728
0.644502
0.774276
0.929095
1.10387
0.848801
0.36871
-0.136538
-0.6519
-1.11224
-1.55253
-1.55274
-1.44787
-1.33803
-1.23326
-1.09362
-0.959072
-0.71948
-0.949842
-0.365181
-0.260543
-0.201018
-0.141561
-0.117172
-0.0928733
-0.0885521
-0.0842082
-0.0897964
-0.0954299
-0.0811991
-0.066991
-0.0627602
-0.0585294
-0.0643213
-0.0700679
-0.0807466
-0.0815837
-0.0576018
-0.0435294
-0.0443213
-0.0550679
-0.0757919
-0.0865159
-0.0872625
-0.0830769
-0.0689593
-0.0597511
-0.0654073
-0.0709955
-0.0665385
-0.0621267
-0.0577602
-0.0483258
-0.0388235
-0.0292987
-0.0197285
-0.0150679
-0.020362
-0.00579187
0.0187104
0.0334163
0.0432805
0.0382579
0.0333032
0.0333484
0.033371
0.0583484
0.0834389
0.0838235
0.084457
0.0852715
0.0861538
0.086991
0.0876697
0.0981222
0.108529
0.109005
0.104548
0.0851584
0.0705882
0.0757692
0.0758371
0.0658145
0.0558145
0.0458824
0.0359729
0.0210181
0.0308597
0.0654977
0.0800679
0.0745701
0.069095
0.0636425
0.0531674
0.0426244
0.0469683
0.061267
0.0557014
0.0402715
0.0198869
-0.000475108
-0.0058371
-0.00619909
-0.00658371
-0.00696832
-0.00723981
-0.00728506
-0.0169457
-0.0263348
-0.010543
0.00567874
0.00760182
0.010181
0.0134163
0.0173756
0.0121493
0.0157466
0.0470814
0.0661312
0.0678507
0.0625566
0.0403394
0.0231674
0.0165158
0.0202941
0.0394796
0.049276
0.0496606
0.0511991
0.0417647
0.0449774
0.0586652
0.0626018
0.0667873
0.0760633
0.0854525
0.0849547
0.0745475
0.0890498
0.113507
0.118054
0.122692
0.127376
0.127104
0.11181
0.0964706
0.126041
0.155566
0.145158
0.134842
0.129593
0.124321
0.118982
0.113575
0.1181
0.122624
0.122217
0.1169
0.0965158
0.0812217
0.0859276
0.0906561
0.0854072
0.0801583
0.0799095
0.0747285
0.0596154
0.0544796
0.069276
0.074095
0.0639819
0.0490045
0.0291402
0.0192986
0.014457
0.0144796
0.0244117
0.0293665
0.0243891
0.0094796
-0.00540727
-0.010362
-0.0104073
-0.00554301
0.00414025
-0.00135749
-0.0119005
-0.0174208
-0.0230091
-0.0138009
-0.00463803
-0.00533939
-0.00597288
-0.0116064
-0.0172625
-0.0329865
-0.0436199
-0.0191403
0.000407204
-0.00490953
-0.0100905
-0.0202037
-0.030181
-0.0350227
-0.0300227
-0.0051584
0.0099321
0.00527146
-0.00427604
-0.0138009
-0.0184389
-0.0231901
-0.0280091
-0.0228733
-0.0177602
-0.0226697
-0.0275792
-0.0324887
-0.0374887
-0.0325792
-0.0226244
-0.0126471
-0.0177376
-0.0330091
-0.0385294
-0.0444344
-0.0408824
-0.0228959
-0.025362
-0.0282579
-0.046629
-0.0656109
-0.0803394
-0.0936425
-0.0798643
-0.0633484
-0.0538914
-0.0428054
-0.0502941
-0.0578507
-0.0506561
-0.0442534
-0.0336199
-0.0235068
-0.0139593
-0.0104072
-0.0278054
-0.0407014
-0.0241176
-0.0176923
-0.0213575
-0.0250679
-0.0288235
-0.0325339
-0.0312444
-0.0251357
-0.0141855
-0.00312217
0.0080543
0.00420815
-0.00966063
-0.013552
-0.0174887
-0.0115158
0.00438915
0.0103394
0.0113575
0.00242082
0.0134615
-0.0106335
-0.004819
-0.00400453
-0.00319004
0.00760181
0.0183937
0.0142308
0.00997739
0.020543
0.0310634
0.0416516
0.0522625
0.0378507
0.0233937
0.0138462
0.00911764
0.0392308
0.0593665
0.0795701
0.0897964
0.075
0.0701131
0.0851358
0.105045
0.124864
0.164751
0.214729
0.234706
0.229638
0.239457
0.264186
0.258982
0.233846
0.218733
0.208643
0.203597
0.208529
0.178348
0.138122
0.133054
0.1381
0.123145
0.10319
0.06819
0.0330769
0.0578281
0.0775792
0.0324887
-0.00753393
-0.0376244
-0.0578281
-0.0531448
-0.0485068
-0.038914
-0.0293213
-0.024638
-0.0198416
-0.02
-0.0202715
-0.0106561
-0.00101809
0.00368779
0.0134615
0.0283032
0.0681448
0.122941
0.207692
0.317398
0.442195
0.572149
0.687082
0.796991
0.931787
1.08147
0.756063
0.295588
-0.299729
-0.92491
-1.27009
-1.58029
-1.56063
-1.51111
-1.33163
-1.14715
-1.0276
-0.898009
-0.668416
-0.448891
-0.339525
-0.235249
-0.185905
-0.141538
-0.127217
-0.112941
-0.118688
-0.119502
-0.0953846
-0.0762217
-0.0719231
-0.0675566
-0.0731222
-0.0787557
-0.0795023
-0.0753167
-0.0611991
-0.0519683
-0.0575792
-0.0681674
-0.0787557
-0.0794118
-0.0700452
-0.065724
-0.0613122
-0.0568552
-0.0573756
-0.0629186
-0.0734615
-0.0590045
-0.0345475
-0.0299774
-0.0303167
-0.0305656
-0.0357692
-0.041086
-0.0414932
-0.0119457
0.0176244
0.0124208
0.00735294
0.00737556
0.00744343
0.0124434
0.0174208
0.037466
0.0576697
0.0480543
0.0385746
0.0342308
0.0349774
0.0556787
0.0715384
0.0675339
0.063552
0.0595023
0.0552715
0.0408823
0.0415385
0.0522851
0.0528959
0.0433258
0.0387556
0.0342308
0.0296154
0.0298869
0.0449774
0.0699095
0.0750226
0.0652489
0.0652036
0.0749321
0.0895475
0.104118
0.108756
0.113439
0.10819
0.0929412
0.0726018
0.0572624
0.0769683
0.0967195
0.0865611
0.0764706
0.0714253
0.0664027
0.0613801
0.0565158
0.0619231
0.0677602
0.0541403
0.041086
0.0485747
0.0565611
0.0700453
0.0842082
0.0991177
0.107579
0.0889819
0.0725792
0.0732353
0.0773756
0.0851584
0.0930543
0.0961991
0.090181
0.075
0.0652715
0.0660634
0.0779412
0.0908597
0.0942987
0.0932127
0.0922851
0.0965158
0.100837
0.100272
0.109751
0.124276
0.118914
0.0986199
0.0933032
0.0879864
0.0976471
0.107308
0.117014
0.126765
0.106606
0.0864706
0.0862444
0.0859502
0.0906335
0.0953846
0.0802489
0.0651584
0.0550453
0.0499095
0.0647285
0.0745928
0.0694797
0.064457
0.0495701
0.0396154
0.0295701
0.0295249
0.039457
0.0443892
0.0443439
0.0344344
0.0146606
0.00481901
0.0049095
0.00504525
0.00522625
0.00542986
0.00565611
-0.00909502
-0.0287783
-0.0185294
0.00165159
0.00183258
0.00701358
-0.0177828
-0.0226018
-0.0325113
-0.0425113
-0.0176471
0.00717194
-0.00807692
-0.0234842
-0.0240498
-0.0247738
-0.0306787
-0.0364932
-0.0321719
-0.0278054
-0.0234842
-0.0238462
-0.0389819
-0.0442308
-0.029638
-0.0197059
-0.0244118
-0.034095
-0.0437557
-0.0483032
-0.0527376
-0.0421267
-0.0164706
-0.0107466
-0.0199547
-0.0289593
-0.0377828
-0.0416516
-0.0455882
-0.0396154
-0.0237104
-0.0177602
-0.02181
-0.0308371
-0.0398643
-0.0390272
-0.0283032
-0.0225566
-0.0217873
-0.0359502
-0.0503394
-0.0551358
-0.0599774
-0.0348416
-0.0103394
-0.0215385
-0.0332353
-0.0403394
-0.0482806
-0.0571267
-0.0595249
-0.040362
-0.0248643
-0.0329412
-0.037715
-0.0344344
-0.0266968
-0.00443438
0.0130769
0.0156787
0.0123303
0.0030543
-0.00199095
0.00219457
0.0105204
0.0230543
0.0302489
0.032172
0.0290724
0.020905
0.0176018
0.0142308
0.020724
0.0371041
0.0435294
0.0399548
0.0263575
0.0127375
0.00898189
0.0201131
0.0311991
0.0422851
0.0284842
0.0147511
0.0109728
0.00710407
0.0280995
0.0490045
0.049819
0.0506787
0.0466742
0.0426471
0.0435294
0.0443439
0.0550679
0.0657466
0.0564253
0.0471493
0.0479186
0.0485747
0.0641177
0.0695475
0.0748416
0.0802036
0.0756787
0.0761312
0.0915837
0.111855
0.127014
0.142059
0.167036
0.172217
0.172557
0.20776
0.252851
0.287873
0.317873
0.292828
0.257783
0.242896
0.253009
0.198032
0.173009
0.202941
0.227896
0.152964
0.0831448
0.093371
0.103507
0.0835068
0.0634615
0.048371
0.0233484
-0.0114932
-0.0413801
-0.0662217
-0.0863801
-0.086629
-0.0819005
-0.0671946
-0.0574434
-0.0726018
-0.0777828
-0.0780317
-0.0732353
-0.0583937
-0.048552
-0.0486425
-0.0485973
-0.0534842
0.00649321
0.106357
0.121244
0.106154
0.231199
0.391403
0.511629
0.616833
0.816946
1.02699
0.707014
0.352059
0.0522624
-0.257443
-0.97224
-1.6321
-1.50699
-1.40188
-1.4567
-1.47147
-1.25629
-1.0512
-0.871222
-0.686335
-0.501493
-0.346652
-0.276765
-0.22181
-0.20681
-0.181991
-0.142376
-0.117783
-0.108213
-0.103597
-0.113891
-0.114186
-0.104525
-0.0949548
-0.0804751
-0.0710634
-0.071629
-0.0770588
-0.0873756
-0.0928054
-0.0883484
-0.073914
-0.0595023
-0.0499548
-0.0402263
-0.0504073
-0.0705656
-0.0608145
-0.0411086
-0.0363575
-0.0365611
-0.036629
-0.0366063
-0.0465837
-0.056629
-0.0317421
-0.00687784
0.00307691
0.0131448
0.00832579
0.00350678
0.00859727
0.013733
0.0290271
0.0494344
0.0649095
0.0704977
0.0512443
0.0419231
0.0575113
0.0682805
0.084276
0.0904525
0.0967873
0.0930995
0.0643213
0.0703394
0.0962896
0.107014
0.10267
0.0935294
0.0845475
0.0702489
0.0556561
0.066086
0.0865385
0.0918778
0.0971267
0.0923756
0.0775113
0.0923982
0.0721041
0.131719
0.141312
0.140973
0.140679
0.135475
0.130249
0.139819
0.149389
0.12905
0.108756
0.108529
0.103371
0.0782579
0.0631448
0.0780317
0.0881448
0.0787556
0.0694118
0.0649774
0.056086
0.0428959
0.0402715
0.0581448
0.0719683
0.0767873
0.075181
0.0619683
0.0572851
0.0661312
0.0668099
0.0595475
0.0528959
0.0467647
0.040362
0.0388688
0.0433258
0.0487104
0.0549547
0.0620814
0.0650905
0.0638009
0.0527828
0.0419909
0.0762896
0.110724
0.110317
0.11
0.104751
0.0995475
0.104276
0.108982
0.11371
0.118552
0.128575
0.133665
0.113756
0.098733
0.108575
0.118348
0.1181
0.118009
0.108077
0.0882127
0.0684163
0.0635068
0.0784389
0.0834163
0.0734842
0.0636199
0.0438009
0.0339593
0.024095
0.0291855
0.0442308
0.0493891
0.0446606
0.0250226
0.00542987
0.010724
0.0259502
0.0161991
-0.00350679
-0.00807692
-0.00748869
-0.0167873
-0.026086
-0.00556561
0.0149321
0.0105882
0.00631222
0.0021267
-0.00203619
-0.0212217
-0.0354525
-0.00484162
0.0208371
0.0167195
0.00766969
-0.00640271
-0.015543
-0.0197511
-0.0240498
-0.0184389
-0.0127149
-0.00683257
-0.00590497
-0.0199547
-0.0191403
0.00151585
0.0121946
0.00773757
-0.00647058
-0.0206561
-0.0248642
-0.0291176
-0.0134842
0.0170362
0.0125339
-0.00708145
-0.0120815
-0.0123303
-0.0176471
-0.0279864
-0.0283032
-0.0336199
-0.0238009
-0.0338914
-0.0290498
-0.0242308
-0.0193213
-0.0143891
-0.019457
-0.0244796
-0.0343665
-0.0441177
-0.0487783
-0.0484389
-0.0231674
-0.00778282
-0.0224887
-0.0317873
-0.0410181
-0.0502489
-0.0444796
-0.0387557
-0.0330543
-0.0323077
-0.0415158
-0.0506561
-0.0597285
-0.0588914
-0.0481222
-0.0424208
-0.0467873
-0.0509955
-0.0452036
-0.0398416
-0.0448416
-0.0500905
-0.045724
-0.04181
-0.038371
-0.0554299
-0.0831222
-0.0915158
-0.0935294
-0.0728733
-0.0501357
-0.0354977
-0.0190272
-0.0308371
-0.0426697
-0.0402036
-0.0380996
-0.016267
0.00484163
0.0102262
0.0146606
0.00805431
0.00070136
0.00755658
0.0140724
0.0152715
0.0164706
0.0177149
0.0188688
0.00988688
0.0107692
0.0315159
0.0422398
0.0429864
0.038733
0.0244118
0.0099774
0.000475109
0.00592761
0.0263348
0.0218326
0.00242081
-0.00196834
-0.0063801
-0.00592761
0.00443439
0.00970587
0.0149095
0.00527149
-0.0142534
-0.0188462
-0.0185294
-0.013371
-0.00828055
-0.00321268
0.00183257
-0.0130996
-0.0280543
-0.0330543
-0.0330769
-0.00819007
0.0116742
0.0216063
0.0315611
0.0364932
0.041267
0.0458371
0.0553846
0.0749095
0.0945249
0.109299
0.14405
0.20871
0.243258
0.257715
0.257172
0.226606
0.211063
0.19552
0.185023
0.18948
0.183982
0.158529
0.143145
0.127828
0.112511
0.0971719
0.0766742
0.0560859
0.0504751
0.0498642
0.0193891
0.0490045
-0.036448
-0.0520363
-0.0528055
-0.0536652
-0.0444797
-0.0352489
-0.0359729
-0.0366743
-0.0424208
-0.0482127
-0.0240725
-0.00993218
-0.00570139
-0.00142537
-0.00217199
0.0320362
0.126244
0.205475
0.254683
0.333914
0.438213
0.547602
0.662081
0.806403
0.97052
0.669615
0.0587104
-0.417104
-0.827828
-1.22346
-1.60403
-1.59977
-1.45568
-1.39656
-1.35742
-1.20321
-1.02896
-0.814774
-0.595634
-0.441561
-0.287557
-0.223507
-0.164367
-0.160158
-0.155973
-0.131878
-0.107828
-0.0988462
-0.0898417
-0.0806787
-0.071448
-0.0822398
-0.0881448
-0.0692082
-0.0553394
-0.0564706
-0.0575339
-0.0584842
-0.0594344
-0.0704525
-0.0715385
-0.0476923
-0.0338009
-0.034819
-0.0357919
-0.0417195
-0.0427149
-0.0338235
-0.0249321
-0.00601811
-0.00199097
-0.00289594
-0.00375567
-0.00459277
0.00443436
0.0183484
0.022285
0.0262896
0.0304525
0.0347511
0.0391402
0.0385746
0.0579638
0.0873529
0.0868099
0.0863348
0.0809728
0.0757239
0.0755656
0.0755656
0.0958144
0.116222
0.111742
0.107285
0.102692
0.0979864
0.0981448
0.0982353
0.0933484
0.088552
0.0787556
0.068914
0.0640271
0.0639819
0.0887782
0.0985068
0.0981674
0.0978507
0.0925792
0.0871493
0.0868325
0.106063
0.135181
0.144389
0.138665
0.132964
0.127285
0.121584
0.12086
0.120045
0.124231
0.12362
0.113122
0.107647
0.107172
0.111629
0.116199
0.116199
0.116606
0.107308
0.0983936
0.0849773
0.0719909
0.0944117
0.117511
0.121425
0.124005
0.123824
0.121493
0.107308
0.0963122
0.108529
0.115814
0.0988009
0.0820362
0.0754299
0.0745249
0.0844118
0.0902262
0.091991
0.0945249
0.0878281
0.0714253
0.0552715
0.0590724
0.0778507
0.0867421
0.0907466
0.0848416
0.0690271
0.0632579
0.0675113
0.0866742
0.105792
0.105
0.094276
0.0835294
0.0777376
0.0719005
0.0660407
0.0751131
0.0842308
0.073552
0.0629638
0.0573756
0.0517647
0.056086
0.0603846
0.0547285
0.0491629
0.0287557
0.0184389
0.0131674
0.0128054
0.0273529
0.0369683
0.0266742
0.0114253
0.00122172
-0.00895928
-0.0191176
-0.0192986
-0.00452489
0.000339363
-0.00966064
-0.0147059
-0.0197964
-0.0249548
-0.0302262
-0.0306109
-0.0210634
-0.021448
-0.0318552
-0.0374887
-0.0383032
-0.0292534
-0.0152489
-0.0111538
-0.011991
-0.0378054
-0.0635294
-0.0691629
-0.0749321
-0.0559276
-0.0366968
-0.0419457
-0.0471041
-0.0573077
-0.0674887
-0.0626244
-0.0577149
-0.0427376
-0.0325566
-0.0521041
-0.0664932
-0.0607919
-0.0550679
-0.0493213
-0.0436425
-0.0280091
-0.0323303
-0.0515837
-0.0608371
-0.0601584
-0.0545928
-0.039095
-0.0285973
-0.0280996
-0.0375792
-0.0521267
-0.0569683
-0.0620136
-0.047172
-0.0228054
-0.0291177
-0.0459276
-0.0531674
-0.0560181
-0.0595928
-0.0631674
-0.0613122
-0.0483937
-0.0589593
-0.0666064
-0.055905
-0.0442987
-0.0375113
-0.0304525
-0.0130317
0.00355203
-0.00592762
-0.016086
-0.0119457
-0.00384616
0.0151131
0.0268326
0.0283258
0.0297511
0.021086
0.0122172
0.0130995
0.0188914
0.029638
0.0354977
0.0364706
0.0374434
0.043371
0.0541855
0.0649095
0.0705656
0.0761539
0.0668326
0.0476018
0.0433032
0.0439367
0.0494797
0.0599774
0.0654751
0.0659955
0.0565385
0.0420588
0.0274435
0.0177149
0.0378959
0.0580543
0.0533032
0.0486199
0.0438914
0.0390272
0.0390272
0.0389593
0.0488235
0.0586878
0.0586652
0.0586878
0.0686425
0.0784616
0.0881674
0.107851
0.132511
0.147195
0.151946
0.176652
0.221267
0.255837
0.280385
0.284955
0.26457
0.249208
0.238846
0.213326
0.182647
0.201923
0.246199
0.195679
0.105317
0.0949774
0.104638
0.0991855
0.0836425
0.0680996
0.0526018
0.0272625
-0.00303166
-0.0285068
-0.0541403
-0.0648416
-0.0755656
-0.0662443
-0.0568552
-0.0673529
-0.0778733
-0.0785294
-0.0742534
-0.0549547
-0.0405656
-0.0360407
-0.0314027
-0.0366742
-0.0220588
0.0324208
0.0668778
0.0763122
0.165882
0.335634
0.465407
0.560158
0.694819
0.854412
0.854027
0.748665
0.508348
0.193122
-0.437195
-1.1876
-1.39799
-1.43835
-1.49371
-1.55907
-1.36437
-1.12464
-0.970068
-0.820611
-0.606176
-0.811742
-0.312262
-0.24276
-0.218235
-0.193733
-0.154389
-0.115136
-0.100928
-0.0866742
-0.0923077
-0.0979412
-0.0986425
-0.0993665
-0.0850905
-0.0707919
-0.061448
-0.0519909
-0.0624661
-0.0730995
-0.0689367
-0.0647511
-0.0505204
-0.0461991
-0.0417647
-0.0422624
-0.0527149
-0.0532579
-0.043914
-0.0296154
-0.0153167
-0.0108597
-0.016267
-0.0216516
-0.0220136
-0.00742081
0.0121267
0.0166968
0.0213122
0.0210181
0.0107919
0.00556562
0.0103394
0.035181
0.0551358
0.0552036
0.0553846
0.0507014
0.046086
0.056448
0.0669004
0.0725792
0.0784615
0.0845023
0.0906335
0.0917421
0.0927149
0.103529
0.114231
0.119819
0.115543
0.0915158
0.0772851
0.0676697
0.0629864
0.0783258
0.0886652
0.0939593
0.0892308
0.069457
0.0694796
0.0892987
0.109005
0.128597
0.138167
0.132738
0.122421
0.112149
0.111697
0.121131
0.125611
0.120136
0.104729
0.0893891
0.0741176
0.0538688
0.0685068
0.0832353
0.0832805
0.0835068
0.0687783
0.054457
0.0458824
0.0378733
0.0552715
0.0733258
0.0721946
0.071086
0.0695249
0.06681
0.0775339
0.0854073
0.0798869
0.0734842
0.0669683
0.0602262
0.0482127
0.0470136
0.0618326
0.0673982
0.0686878
0.0709502
0.0722851
0.0758824
0.0697737
0.0737104
0.0977149
0.106946
0.116403
0.110928
0.0954977
0.0999774
0.114412
0.118891
0.123394
0.127964
0.127624
0.107398
0.0971946
0.121833
0.146403
0.136041
0.125724
0.110498
0.0953167
0.0851584
0.0749774
0.0847059
0.0944344
0.0892534
0.0791629
0.0641403
0.054095
0.0439819
0.0338461
0.0387104
0.043733
0.0389366
0.0292081
0.0195475
0.0147511
0.014819
0.0148869
0.00999998
-0.00470591
-0.0192534
-0.0238009
-0.0283484
-0.0279638
-0.0176471
-0.0122398
-0.0167421
-0.0261991
-0.0356335
-0.0500905
-0.0645475
-0.0490272
-0.0235294
-0.0229638
-0.0273303
-0.0366968
-0.0461765
-0.0508824
-0.0557466
-0.050724
-0.0457466
-0.0506787
-0.0557466
-0.0660407
-0.0714706
-0.0520815
-0.0376471
-0.0380317
-0.0382127
-0.0432127
-0.0530543
-0.0678054
-0.0678507
-0.0380996
-0.0229638
-0.0324435
-0.0369457
-0.0315159
-0.0311312
-0.0407693
-0.0403846
-0.02
-0.0243892
-0.0385747
-0.0426245
-0.0415837
-0.0406335
-0.0347738
-0.0289819
-0.0232353
-0.0323756
-0.0514254
-0.0554978
-0.0596607
-0.0439593
-0.0133258
-0.0126471
-0.0119683
-0.0263575
-0.040905
-0.0456561
-0.0505656
-0.0356335
-0.0212444
-0.0324208
-0.0441177
-0.0463575
-0.0492308
-0.0527602
-0.0511539
-0.0393665
-0.0308597
-0.0404072
-0.0466063
-0.0397511
-0.0275113
-0.00497738
0.00773755
0.00542986
0.00708145
0.0128054
0.013009
0.00251131
0.0108823
0.0383937
0.0456787
0.0378054
0.0347511
0.0314932
0.028009
0.0293665
0.0356108
0.0467873
0.0480317
0.0393439
0.0356109
0.0367873
0.0478507
0.0588235
0.0597059
0.0605656
0.0415158
0.0225113
0.0134842
0.0043439
0.0350679
0.0557466
0.0514253
0.0471267
0.0328507
0.0184842
0.019095
0.0194796
0.0297738
0.0401131
0.030543
0.0209955
0.0164253
0.0167195
0.0268778
0.0319231
0.0368552
0.0419004
0.0371041
0.0322851
0.0373982
0.0573982
0.0822851
0.102081
0.11681
0.121606
0.116471
0.156312
0.211086
0.235724
0.255294
0.244955
0.224683
0.199434
0.179208
0.153937
0.128597
0.183167
0.217783
0.132624
0.0575792
0.0675339
0.0774434
0.0723077
0.0621493
0.0419683
0.0218326
-0.0131674
-0.0432127
-0.0733711
-0.0936199
-0.0889367
-0.0842987
-0.0796833
-0.0799774
-0.090181
-0.0954299
-0.0957693
-0.0811086
-0.056448
-0.0466516
-0.0466516
-0.0365611
-0.021448
0.0135294
0.0583936
0.0932353
0.123077
0.248077
0.393235
0.518394
0.643507
0.788575
0.93862
0.913643
0.868688
0.493846
0.0890724
-0.640769
-1.30572
-1.39575
-1.47577
-1.51072
-1.49066
-1.25563
-1.04568
-0.925792
-0.770973
-0.541267
-0.361561
-0.286742
-0.226878
-0.197036
-0.16233
-0.12776
-0.108235
-0.093733
-0.0891403
-0.0944344
-0.0997059
-0.095
-0.0853846
-0.0758371
-0.0662444
-0.0566063
-0.0619231
-0.0771946
-0.0825792
-0.0830769
-0.0685973
-0.0491403
-0.0445701
-0.0448869
-0.0501131
-0.0603168
-0.0556335
-0.0660407
-0.0214253
-0.00674209
-0.0169457
-0.0270588
-0.027172
-0.027353
-0.00762445
0.0120814
0.0218552
0.0317195
0.0216742
0.0116742
0.0166516
0.0266063
0.0415837
0.0566289
0.0718099
0.0821493
0.0726244
0.0630543
0.0633937
0.073914
0.0946833
0.105611
0.106674
0.10776
0.103801
0.0996154
0.105249
0.110792
0.116244
0.106991
0.0879412
0.078552
0.0688688
0.0741629
0.0895023
0.0948642
0.0902036
0.0804751
0.0706787
0.0757014
0.0855656
0.100272
0.114864
0.12448
0.134163
0.118937
0.10371
0.103394
0.103032
0.0976923
0.0924434
0.0773077
0.0622172
0.0421493
0.0370588
0.0519457
0.0620362
0.0623756
0.0579638
0.0387783
0.0201584
0.0121946
0.0147059
0.0276923
0.0363575
0.045724
0.0500226
0.0441629
0.0416064
0.0472172
0.0595023
0.0687557
0.0676244
0.0611539
0.0545475
0.0480543
0.0526471
0.0631901
0.0692082
0.075905
0.0787104
0.0773756
0.0713801
0.0656109
0.0899095
0.114344
0.118914
0.12362
0.108484
0.0933937
0.0882805
0.0831222
0.0979412
0.112783
0.112647
0.112602
0.102715
0.0926923
0.0974887
0.102262
0.0970362
0.0919005
0.0968778
0.0919457
0.0670815
0.0571267
0.0670588
0.0720136
0.0669231
0.0520588
0.0373077
0.0275792
0.0178281
0.0229864
0.0380769
0.0432579
0.0385747
0.0240498
0.00961539
0.00509051
0.00549775
0.00590499
0.00633485
0.01181
0.00737557
-0.00692307
-0.0211538
-0.00545248
0.010181
0.0107919
0.0114253
0.00214933
-0.0070362
-0.0211538
-0.0302715
-0.00445701
0.0162217
0.0120136
0.00766968
-0.00158371
-0.0109276
-0.0204072
-0.0300452
-0.0148642
-0.014819
-0.0248416
-0.0298416
-0.0348643
-0.0399548
-0.0351131
-0.0302036
-0.025181
-0.0199774
-0.019638
-0.0293213
-0.043914
-0.0433032
-0.0326244
-0.0270136
-0.0313801
-0.0356787
-0.0348869
-0.0340272
-0.0381901
-0.0224887
-0.00178733
-0.0109276
-0.0198643
-0.0386199
-0.0573529
-0.0562217
-0.0552715
-0.034457
-0.0136878
-0.0179186
-0.0221041
-0.0311991
-0.0403394
-0.0396154
-0.0389819
-0.033371
-0.0278054
-0.0322851
-0.0370362
-0.0420815
-0.0476018
-0.0535973
-0.0550905
-0.0420815
-0.0395475
-0.0574208
-0.0704977
-0.0730317
-0.0632806
-0.0461539
-0.0363575
-0.024457
-0.0263348
-0.0377149
-0.0346606
-0.0271719
-0.0152489
0.00104073
0.0116968
0.0215611
0.0154525
-0.00640272
0.0211086
0.04819
0.0500226
0.0517647
0.0484389
0.045
0.0314932
0.0179186
0.0341855
0.0502941
0.0513349
0.0524208
0.048552
0.0396606
0.0257692
0.0217194
0.0425113
0.0582579
0.0590045
0.0498642
0.0257918
0.0165611
0.0271719
0.0327375
0.0382805
0.0438009
0.0492986
0.0448869
0.0305203
0.0260407
0.0314253
0.0367873
0.0421493
0.0475565
0.048009
0.0384163
0.0237556
0.0239593
0.0340497
0.0591855
0.0393891
0.0746154
0.059819
0.0699321
0.0799321
0.104774
0.134548
0.169412
0.199299
0.19914
0.198959
0.203733
0.208439
0.198122
0.182805
0.157511
0.142262
0.157081
0.146855
0.0865611
0.056267
0.0710181
0.0658371
0.0456787
0.0205204
-0.00961541
-0.019819
-0.0101131
-0.0153846
-0.0356109
-0.0708371
-0.111063
-0.121425
-0.111946
-0.092534
-0.0731674
-0.0637104
-0.0541176
-0.059457
-0.0747738
-0.0651358
-0.045543
-0.0309503
-0.0213349
0.00334841
0.0281222
0.0929412
0.157738
0.262466
0.367149
0.48681
0.611538
0.726425
0.826357
0.876244
0.756063
0.245814
-0.284434
-0.849638
-1.28975
-1.55477
-1.65986
-1.55007
-1.44034
-1.32066
-1.18597
-1.03127
-0.841516
-0.626742
-0.462104
-0.332647
-0.2481
-0.188462
-0.163801
-0.154118
-0.134457
-0.114842
-0.105385
-0.096086
-0.0717647
-0.0473982
-0.0530091
-0.0685747
-0.0791177
-0.0947059
-0.0704073
-0.0461539
-0.03181
-0.017353
-0.0378281
-0.0583258
-0.0389367
-0.0195928
-0.0152263
-0.0108598
-0.00644799
-0.00194573
-0.017353
-0.0327602
-0.0232353
-0.00873307
0.0107918
0.025362
0.0149773
0.00470585
0.00452485
0.00918549
0.0236651
0.03819
0.0528054
0.0576018
0.0473755
0.0473077
0.0571719
0.0720588
0.0969683
0.101968
0.0970814
0.0923982
0.0928959
0.093371
0.0988235
0.109299
0.119796
0.125271
0.125701
0.121041
0.10629
0.106516
0.106652
0.106516
0.106267
0.0961312
0.0860181
0.0808597
0.075543
0.09
0.104389
0.113801
0.123213
0.112489
0.101742
0.110814
0.124796
0.138778
0.147851
0.147014
0.136312
0.115747
0.105023
0.10414
0.103303
0.102557
0.0969231
0.0863801
0.0709955
0.0557466
0.0557014
0.0658824
0.0715611
0.0727376
0.0595249
0.0419231
0.0398869
0.0383032
0.0468779
0.0648643
0.075543
0.0788688
0.0597285
0.0386426
0.0363349
0.0335295
0.0361991
0.0393439
0.0380317
0.0373756
0.0274887
0.0234842
0.0404525
0.0531674
0.056448
0.0601131
0.0540724
0.0481901
0.0473982
0.0515837
0.0707466
0.0899321
0.0991403
0.103552
0.0981674
0.0877828
0.0773303
0.0767421
0.0860181
0.0903846
0.0898643
0.0794796
0.0641855
0.058733
0.0581448
0.0576244
0.062172
0.0667647
0.0614027
0.0460633
0.030724
0.0252489
0.0246606
0.024095
0.0236199
0.0183032
0.0130769
-0.00717195
-0.0275113
-0.00294117
0.021629
0.011267
0.00104072
-0.0140272
-0.0290724
-0.0292081
-0.0293665
-0.0245249
-0.0196154
-0.0145928
-0.00947964
-0.0193213
-0.029276
-0.0243213
-0.0193213
-0.0192534
-0.0191403
-0.0239593
-0.0286652
-0.0333484
-0.0282127
-0.00828054
0.00158371
0.00140272
-0.00373303
-0.0138235
-0.0240045
-0.0343213
-0.024819
-0.00552036
-0.00138009
0.00271493
-0.00312217
0.00613122
-0.0246154
-0.0253846
-0.016086
-0.00665159
-0.00708145
-0.00748869
-0.0279638
-0.0483032
-0.0184389
0.00135746
0.00106335
0.000814477
-0.0093439
-0.0193665
-0.0295701
-0.0345928
-0.0147511
0.000226243
-0.00461539
-0.00934389
-0.0239819
-0.0336878
-0.0434842
-0.043371
-0.0283484
-0.0182805
-0.0181222
-0.0278959
-0.0476471
-0.0575566
-0.0526018
-0.0476471
-0.0427602
-0.0380543
-0.0384163
-0.0487557
-0.0644796
-0.0710407
-0.0732579
-0.075905
-0.0739819
-0.0774887
-0.0861991
-0.100023
-0.112828
-0.089095
-0.0626244
-0.0529412
-0.0417195
-0.0544118
-0.0669683
-0.064638
-0.0583032
-0.0330995
-0.0133937
-0.00409502
-0.000791851
-0.0134842
-0.0166968
-0.000407238
0.0106561
0.0165158
0.0223077
0.0180543
0.0137557
0.0143665
0.0198416
0.035181
0.0454525
0.0506787
0.0459502
0.031267
0.0265611
0.02181
0.0319005
0.0518552
0.0569005
0.0570815
0.0423077
0.0225113
0.0226018
0.0325792
0.0374887
0.0473303
0.0471493
0.046991
0.0319005
0.0168326
0.0366742
0.056448
0.0462217
0.0359955
0.0357692
0.030543
0.0103167
0.00500001
0.0395475
0.069095
0.0836878
0.0933484
0.0830317
0.0726923
0.0823077
0.101765
0.136063
0.175385
0.224774
0.249186
0.24362
0.233009
0.222421
0.216674
0.210905
0.195204
0.17957
0.183982
0.198439
0.15776
0.0919457
0.096267
0.115701
0.105204
0.0847511
0.049276
0.0787557
0.0231222
0.0373756
0.00665159
-0.0240045
-0.044638
-0.0652941
-0.0660633
-0.0669004
-0.0528054
-0.038733
-0.0445928
-0.0503167
-0.0559276
-0.0565611
-0.0372851
-0.0230769
-0.0188235
0.000475122
0.049819
0.074276
0.0738235
0.163303
0.342692
0.487036
0.601358
0.710792
0.810317
0.859842
0.879344
0.648756
0.308077
-0.292489
-0.982941
-1.30335
-1.53371
-1.55919
-1.5398
-1.33048
-1.09118
-0.98181
-0.882398
-0.657941
-0.438462
-0.334072
-0.239774
-0.195475
-0.151154
-0.13681
-0.122443
-0.108077
-0.0937783
-0.0795701
-0.0654072
-0.0562444
-0.0470362
-0.0577602
-0.0684615
-0.0692081
-0.0650453
-0.0509729
-0.0418778
-0.0377149
-0.0434616
-0.0641403
-0.0698869
-0.060724
-0.0515837
-0.0374208
-0.0232127
-0.0139367
-0.0146154
-0.0252489
-0.0259276
-0.0166516
-0.0123303
-0.00794118
-0.00352942
-0.00409503
-0.00461539
-0.0101358
0.00425339
0.0286199
0.0331222
0.0427602
0.0375566
0.0324434
0.0323303
0.0321493
0.0569457
0.08181
0.0868326
0.0921267
0.0927602
0.0935294
0.0992534
0.10491
0.110498
0.116063
0.111674
0.10724
0.0977602
0.0882805
0.0988462
0.109231
0.109321
0.10448
0.0897738
0.0800679
0.0753167
0.075362
0.0904977
0.110339
0.125226
0.12509
0.114909
0.114661
0.124321
0.128914
0.133462
0.138077
0.137783
0.117511
0.0922398
0.0869231
0.0865611
0.0912443
0.0859729
0.0807466
0.0756335
0.0557692
0.0360407
0.0413122
0.0469457
0.0533258
0.0603846
0.0380317
0.0261991
0.029819
0.0336199
0.0475566
0.0602941
0.0614706
0.0600226
0.050543
0.0396154
0.0376471
0.0404751
0.0433032
0.0421041
0.0420136
0.0424661
0.0334163
0.0253846
0.0283258
0.0416742
0.0554073
0.0593891
0.0586199
0.0579186
0.0522851
0.0616968
0.0811312
0.0955882
0.110136
0.109819
0.0995928
0.0893213
0.0839593
0.0985068
0.113032
0.117624
0.12233
0.107172
0.0920362
0.0917873
0.0914706
0.0961538
0.10086
0.0956561
0.090543
0.0804977
0.0704751
0.0654072
0.0603394
0.0703167
0.075362
0.0604751
0.0456335
0.0358145
0.0309502
0.0310181
0.031086
0.0362217
0.0364706
0.0168326
0.00717195
-0.00253393
0.00266969
0.0178054
0.0230543
0.0234163
0.00382353
-0.0207466
-0.0253846
-0.0200905
-0.014819
-0.00959276
-0.00943439
-0.0242987
-0.0291629
-0.0342081
-0.0295701
-0.0251358
-0.0257466
-0.026267
-0.0366968
-0.0470136
-0.0572625
-0.0675339
-0.0578054
-0.0481222
-0.0384615
-0.0334163
-0.0579412
-0.0775339
-0.0822398
-0.0819683
-0.0666742
-0.0562217
-0.0556109
-0.0599321
-0.0691855
-0.0734163
-0.0676697
-0.0569231
-0.0461539
-0.0403394
-0.0445249
-0.0487557
-0.0530543
-0.0575113
-0.0571041
-0.0467195
-0.0313575
-0.035905
-0.0504072
-0.0550453
-0.0549095
-0.0450226
-0.055362
-0.0208597
-0.0167647
-0.0382353
-0.0602489
-0.0628507
-0.0660634
-0.0498643
-0.0339367
-0.0432127
-0.0508597
-0.0615611
-0.069276
-0.0639367
-0.0526244
-0.0321267
-0.0147964
-0.0173982
-0.0210181
-0.0156335
-0.0107692
-0.00153846
0.0116063
0.0238914
0.0208824
0.00264706
-0.00579186
-0.00443439
0.00678732
0.0278959
0.0390045
0.0401357
0.0263348
0.00257919
-0.00633485
-0.000384622
0.0105882
0.0215837
0.0276018
0.0236878
0.0198416
0.0159502
0.0119004
0.0127602
0.0135973
0.0144118
0.00529411
-0.00377829
-0.00789593
-0.0121267
-0.00149321
0.00909502
0.0246833
0.0353168
0.0160407
0.00171945
0.00221719
0.00762444
0.0279638
0.0433258
0.0437557
0.0442534
0.0397964
0.0401131
0.055181
0.0702036
0.0802262
0.0952941
0.115407
0.125543
0.120611
0.155498
0.215272
0.250045
0.269819
0.259615
0.239434
0.209208
0.178914
0.173507
0.168009
0.177557
0.197172
0.1319
0.0516742
0.0662896
0.0807919
0.0852941
0.089819
0.0594118
0.0290498
0.0187104
0.0032353
-0.0224661
-0.0432353
-0.0489593
-0.0545927
-0.0601357
-0.0656109
-0.0610407
-0.0515837
-0.0372398
-0.0278733
-0.0184615
-0.00895927
-0.0243439
-0.0297285
-0.0251584
0.00938915
0.0639367
0.113575
0.158213
0.258077
0.383009
0.50276
0.627353
0.756946
0.891561
0.961358
1.01631
0.661244
0.236109
-0.419186
-1.09959
-1.31998
-1.13532
-1.52557
-1.52579
-1.29613
-1.07656
-0.962036
-0.827534
-0.578009
-0.368416
-0.288733
-0.224118
-0.179683
-0.145339
-0.126041
-0.106674
-0.0922624
-0.0826244
-0.0929412
-0.0983937
-0.0790271
-0.0647511
-0.0704977
-0.0761312
-0.0766516
-0.0871041
-0.107534
-0.103054
-0.0786651
-0.0692308
-0.0697285
-0.0702036
-0.0756561
-0.0811312
-0.086629
-0.0771946
-0.0578054
-0.0532579
-0.0536199
-0.063914
-0.0791629
-0.0695249
-0.0499774
-0.0404525
-0.0358823
-0.0361538
-0.0363348
-0.0464932
-0.0566516
-0.0268778
0.00289594
0.00778282
0.0127602
0.00780544
0.00294119
-0.00180995
-0.00151583
0.0337104
0.0541403
0.0599095
0.0658371
0.0618552
0.0577602
0.0585068
0.0641403
0.0796606
0.0902263
0.0908371
0.0864932
0.0722398
0.0676471
0.0776471
0.0826923
0.0778054
0.0730091
0.0733032
0.0735294
0.0686425
0.0936199
0.133462
0.143213
0.137896
0.127557
0.117195
0.106787
0.0913349
0.110882
0.130498
0.120249
0.110068
0.0999095
0.0897511
0.0844797
0.0791629
0.0788688
0.0787783
0.0690045
0.0594796
0.045181
0.0363122
0.0579186
0.0750905
0.0778507
0.0762896
0.0604299
0.0498643
0.0545249
0.0675339
0.0935747
0.106719
0.0968552
0.0860181
0.0760407
0.074276
0.0824887
0.0866968
0.0918778
0.0926697
0.0891403
0.0817421
0.0702941
0.0791403
0.0982579
0.107579
0.117081
0.111719
0.121471
0.0813122
0.0711991
0.0859955
0.100747
0.110588
0.12052
0.105475
0.0904299
0.0803846
0.0702715
0.0850226
0.0997738
0.0846606
0.0695928
0.0645475
0.0593891
0.0541855
0.048914
0.0585747
0.0633484
0.0382806
0.0282805
0.0283258
0.0282579
0.0330543
0.0378959
0.0428281
0.0378054
0.0228054
0.0178507
0.0129186
0.0128507
0.0226697
0.0226697
0.0128507
0.00807694
0.00332581
-0.0014932
-0.00635745
-0.00624433
0.00391404
-0.00567872
-0.0202036
-0.019819
-0.0195022
-0.004276
0.0108371
0.00585975
0.00092762
-0.0138688
-0.028733
-0.0287556
-0.0290271
-0.0195927
-0.0102036
-0.00576922
-0.00613121
-0.0213348
-0.0364932
-0.0515837
-0.0567647
-0.0370362
-0.021991
-0.0265837
-0.0310634
-0.0304978
-0.0299774
-0.0245023
-0.0190045
-0.0134842
-0.0177149
-0.0317195
-0.0356109
-0.0294344
-0.0183258
-0.00728508
-0.00124435
-0.000180999
-0.0090724
-0.0229412
-0.0268552
-0.0308371
-0.0249548
-0.0041629
-0.00825792
-0.0122624
-0.0312896
-0.0504299
-0.0447511
-0.0394796
-0.0296154
-0.0198869
-0.0351584
-0.050905
-0.0572625
-0.0642534
-0.0618778
-0.0603846
-0.0547285
-0.0513575
-0.0703167
-0.0820815
-0.0767421
-0.0696154
-0.046086
-0.03319
-0.0257692
-0.0234842
-0.0264706
-0.025181
-0.024638
-0.0202941
-0.00687783
0.000950232
0.00334842
0.00049774
-0.00751132
-0.010724
-0.00911765
-0.00266969
0.00868778
0.0151131
0.0116063
0.013009
0.00929864
0.0354977
0.0415837
0.0525566
0.0635068
0.0496154
0.0357466
0.0267195
0.0176244
0.0335068
0.0493665
0.0502489
0.0511765
0.052172
0.0531222
0.0440498
0.0397738
0.0604299
0.0761086
0.0668552
0.0576244
0.053371
0.0539367
0.0643665
0.0697285
0.0700227
0.0603846
0.0408597
0.046267
0.0715611
0.0917421
0.106833
0.126968
0.147149
0.142308
0.127443
0.152534
0.187534
0.237443
0.287285
0.292127
0.292014
0.251968
0.211923
0.196765
0.181516
0.201199
0.215928
0.17086
0.130905
0.11595
0.100973
0.10095
0.100905
0.0858824
0.0658824
0.0309276
0.00095024
-0.0341176
-0.0592534
-0.0544118
-0.0495701
-0.0547285
-0.0647964
-0.0747964
-0.0798642
-0.0800226
-0.0752036
-0.0604072
-0.0505204
-0.0554751
-0.0604072
-0.0553167
-0.0353394
-0.0154751
0.0593892
0.149299
0.189367
0.214548
0.334683
0.464729
0.599661
0.734525
0.934389
1.13428
0.544253
-0.035724
-0.515814
-0.981041
-1.38133
-1.70165
-1.55188
-1.42706
-1.38722
-1.31744
-1.16281
-0.988213
-0.763665
-0.56914
-0.424525
-0.31491
-0.250317
-0.205792
-0.176357
-0.152014
-0.127738
-0.118394
-0.118959
-0.119548
-0.115204
-0.10586
-0.0915385
-0.0721041
-0.0526471
-0.0531674
-0.0786652
-0.0792534
-0.0699095
-0.0655204
-0.0611086
-0.0566968
-0.0571946
-0.0626018
-0.073009
-0.0685068
-0.0790498
-0.039638
-0.0301131
-0.0352941
-0.0403394
-0.0454299
-0.0506109
-0.0158824
0.00882354
0.018552
0.0283258
0.0131674
-0.00201356
0.00271495
0.0124887
0.0373529
0.0574435
0.0626471
0.0679864
0.0684616
0.0688235
0.0640272
0.0693665
0.0898869
0.105679
0.116742
0.117828
0.108914
0.109774
0.120407
0.126018
0.126606
0.112308
0.0881222
0.0788009
0.0743213
0.0747059
0.0849774
0.0902263
0.0904751
0.0907014
0.0858597
0.0858597
0.090724
0.100407
0.109977
0.119615
0.129367
0.114186
0.0988914
0.103394
0.107896
0.107466
0.107081
0.0917647
0.0765158
0.0662896
0.0559502
0.0605204
0.0652489
0.0701357
0.0654072
0.0411312
0.026991
0.0229186
0.0294118
0.0515158
0.0641629
0.0723756
0.0766742
0.0719684
0.0695023
0.0743439
0.086991
0.097534
0.0963349
0.083733
0.0718552
0.060543
0.0643212
0.0783936
0.0782353
0.078914
0.0806335
0.0682579
0.0715385
0.0752941
0.0842986
0.0934389
0.107647
0.122036
0.111652
0.101335
0.110995
0.120633
0.120271
0.119955
0.119751
0.119729
0.12491
0.13
0.134887
0.134796
0.114774
0.0997964
0.114864
0.110023
0.0902262
0.0902715
0.110158
0.120091
0.12
0.0901358
0.045362
0.0305656
0.030724
0.0407919
0.0557919
0.0609955
0.0663575
0.0617647
0.0471946
0.0424887
0.0426697
0.0378733
0.0431448
0.0135747
0.00414028
-0.00522623
-0.014638
0.00581449
0.0262217
0.021629
0.0171041
0.00771494
-0.0015837
-0.000837097
-0.00013574
0.0104525
0.0210407
0.0116516
0.00237557
-0.00190045
-0.0113122
-0.025905
-0.0306561
-0.015543
-0.00538461
-0.000135738
9.05059e-05
-0.00975113
-0.0147511
-0.0149547
-0.015362
-0.010905
-0.0114027
-0.0218326
-0.0421493
-0.0623756
-0.0477149
-0.0131222
-0.0183484
-0.0335294
-0.0388235
-0.0390271
-0.0440045
-0.0539593
-0.0340498
-0.00918552
-0.0242081
-0.0390724
-0.0487783
-0.0584615
-0.0482805
-0.0381222
-0.0428959
-0.0474887
-0.0318326
-0.0211538
-0.0605204
-0.0799095
-0.0593665
-0.0438914
-0.0384163
-0.0378733
-0.0522624
-0.0616968
-0.0712217
-0.0708371
-0.0505882
-0.0455882
-0.0607466
-0.0708145
-0.0760181
-0.0820815
-0.0839819
-0.0814253
-0.0744796
-0.0631674
-0.0517873
-0.0692081
-0.095362
-0.100317
-0.0930317
-0.0823982
-0.0704072
-0.0638009
-0.0671267
-0.08
-0.0983937
-0.0728507
-0.0481222
-0.049095
-0.050905
-0.0536878
-0.0570362
-0.070724
-0.0795702
-0.0485973
-0.0226697
-0.0266968
-0.0307014
-0.0396833
-0.0488462
-0.0483258
-0.0429186
-0.0275566
-0.0170815
-0.0264706
-0.0358597
-0.0352489
-0.0297059
-0.014276
-0.00384616
-0.00339367
-0.00791856
-0.0173982
-0.0271267
-0.036991
-0.0218778
0.00821266
0.0183936
0.0136651
0.00395925
-0.00576925
-0.0106561
-0.0106561
-0.00065612
0.0143439
0.0143891
0.0194796
-0.000475116
-0.000542991
0.0142534
0.0289593
0.0535747
0.0781448
0.0678054
0.057466
0.0670588
0.0816289
0.116131
0.155588
0.200023
0.234457
0.233891
0.228303
0.212557
0.201719
0.210792
0.209977
0.174367
0.168801
0.193235
0.172557
0.106787
0.0860181
0.105226
0.104593
0.0841403
0.0535747
0.0228733
0.0120588
0.0161538
0.00527149
-0.0155882
-0.051448
-0.087353
-0.0832806
-0.0691855
-0.0652263
-0.0613122
-0.0522625
-0.0480996
-0.0488688
-0.0496606
-0.0356109
-0.021629
-0.00764707
0.0164027
0.0806109
0.134864
0.119072
0.153258
0.347398
0.521493
0.645566
0.784683
0.933891
0.928122
0.677376
0.411516
0.135498
-0.370498
-1.10143
-1.39229
-1.3081
-1.32403
-1.42509
-1.31124
-1.07251
-0.888665
-0.729706
-0.545724
-0.351765
-0.242964
-0.154276
-0.125611
-0.106946
-0.0981222
-0.0891629
-0.0852489
-0.0914027
-0.0826697
-0.0590045
-0.0502941
-0.0415385
-0.0576923
-0.0738235
-0.0700679
-0.0663801
-0.0576697
-0.048914
-0.0550679
-0.0611538
-0.0722172
-0.0783258
-0.0545475
-0.0358145
-0.0420588
-0.0481674
-0.0490724
-0.0499321
-0.0608145
-0.0617873
-0.0378507
-0.0238688
-0.024819
-0.0257466
-0.026629
-0.0274887
-0.0283032
-0.0142081
0.00990951
0.0191855
0.0235973
0.0281222
0.0227602
0.0323077
0.0517647
0.0563349
0.0610181
0.065905
0.0710181
0.0714027
0.0769457
0.0823982
0.107805
0.10819
0.108575
0.0990498
0.0895701
0.0749774
0.0603394
0.0807466
0.101041
0.0960634
0.0910181
0.076086
0.0611539
0.0711538
0.085905
0.100498
0.110091
0.114751
0.119434
0.114095
0.118484
0.137602
0.141742
0.13095
0.120204
0.109502
0.0988914
0.0883484
0.0927602
0.112127
0.116561
0.106063
0.0906561
0.075362
0.0702941
0.0654299
0.0604751
0.0657014
0.0719005
0.0789367
0.0765385
0.0697738
0.0836652
0.0975113
0.110204
0.121674
0.111923
0.0999321
0.0846833
0.0730317
0.091629
0.105136
0.0982127
0.0918552
0.081629
0.0722398
0.058552
0.0556335
0.0835294
0.101968
0.0908597
0.0799095
0.0740724
0.0682579
0.072466
0.0816742
0.0958371
0.10009
0.0895022
0.0839819
0.0785068
0.0828733
0.0971041
0.101357
0.0956335
0.09
0.084457
0.078914
0.0733484
0.0776696
0.091923
0.0912896
0.0757692
0.0603167
0.0448416
0.0443212
0.043733
0.0530316
0.0623755
0.046923
0.0315611
0.0361991
0.0407918
0.0353167
0.029819
0.0292986
0.0238461
0.00357463
-0.0116742
-0.0119231
-0.0122625
-0.00273759
0.00676469
-0.00871043
-0.0191403
-0.0295475
-0.0401584
-0.0559276
-0.0568326
-0.0378281
-0.0337557
-0.0445023
-0.0551584
-0.065724
-0.0762444
-0.0867874
-0.082534
-0.0682806
-0.0635973
-0.0686426
-0.0737331
-0.0788688
-0.0790724
-0.0842761
-0.0593213
-0.0542082
-0.0639367
-0.0734616
-0.0877602
-0.102059
-0.0764706
-0.0508371
-0.0500453
-0.0491856
-0.0533258
-0.0574887
-0.0666969
-0.0760181
-0.0653168
-0.0547512
-0.0540724
-0.0534389
-0.0579186
-0.0575792
-0.0424435
-0.0325792
-0.0280543
-0.0340724
-0.0556109
-0.0676923
-0.0703394
-0.0736878
-0.0726018
-0.0716968
-0.0702036
-0.0667421
-0.0707466
-0.0765837
-0.0804072
-0.0535294
-0.0163122
-0.00395927
-0.00203619
-0.00610858
-0.0108823
-0.00615383
0.00262446
0.0202036
0.0371946
0.0289593
0.0205882
0.016991
0.0132127
0.0192987
0.0252715
0.0311765
0.0371267
0.0281901
0.0192987
0.0153394
0.0162444
0.0370362
0.0528281
0.0536652
0.0545475
0.0454299
0.0363349
0.0322398
0.0329864
0.0485973
0.0592986
0.0601358
0.0559502
0.0366742
0.0373529
0.0479638
0.0634842
0.0789367
0.069457
0.0500453
0.0455656
0.0460181
0.0564706
0.0719005
0.0772398
0.082534
0.0828959
0.0682579
0.0734842
0.0785747
0.103575
0.128529
0.143507
0.158529
0.153529
0.153507
0.203416
0.24319
0.272805
0.297398
0.287081
0.271787
0.251493
0.231131
0.210701
0.205181
0.23457
0.219027
0.143597
0.103213
0.107828
0.112398
0.111923
0.0963801
0.0707466
0.0502715
0.0298643
-0.00563348
-0.0512443
-0.0470136
-0.0279186
-0.0337557
-0.0495023
-0.060181
-0.0707918
-0.0763801
-0.0769909
-0.0627149
-0.0785068
-0.0441855
-0.0497285
-0.0352036
-0.0206561
0.00386879
0.0333711
0.0878959
0.157511
0.27224
0.391991
0.516697
0.646312
0.795837
0.910339
0.959864
0.839457
0.414118
-0.136176
-0.846471
-1.30188
-1.4674
-1.54785
-1.55319
-1.43844
-1.21864
-1.06391
-0.959253
-0.754661
-0.500113
-0.370475
-0.290747
-0.241086
-0.201493
-0.171946
-0.147443
-0.127986
-0.108507
-0.108937
-0.119299
-0.124706
-0.120204
-0.0958145
-0.0764706
-0.0720136
-0.0674208
-0.0727602
-0.0780769
-0.0884389
-0.0938688
-0.0643665
-0.0398869
-0.0553167
-0.0706787
-0.0660181
-0.0613348
-0.0666968
-0.0670588
-0.0473982
-0.0326018
-0.0376697
-0.0427602
-0.0429186
-0.0430995
-0.0382805
-0.0284163
-0.0134615
-0.00837105
-0.0231674
-0.0279638
-0.0178281
-0.00269231
0.0174434
0.0277149
0.0331222
0.0336425
0.024276
0.0198869
0.0254751
0.0462443
0.0671946
0.0733484
0.0746606
0.0759502
0.0671946
0.0733484
0.0794118
0.090362
0.101312
0.0924661
0.0835747
0.0793665
0.0749774
0.0805656
0.0861538
0.101742
0.11733
0.107896
0.0983937
0.108756
0.123959
0.143959
0.158982
0.169095
0.174231
0.159344
0.144412
0.134434
0.134389
0.149299
0.154321
0.139321
0.119502
0.104661
0.099819
0.1
0.105249
0.115611
0.10629
0.0873303
0.0788914
0.0709502
0.0834842
0.106561
0.115317
0.119615
0.114208
0.108258
0.105317
0.0998643
0.111199
0.120475
0.119005
0.117172
0.0953394
0.0739593
0.0734615
0.0736426
0.0842987
0.0959276
0.0886652
0.0821267
0.0859502
0.0899095
0.0939593
0.0981448
0.112443
0.111878
0.096448
0.0860181
0.085543
0.0950226
0.114502
0.124118
0.118846
0.103643
0.0884615
0.0831222
0.0826697
0.0872172
0.0967873
0.101516
0.0964027
0.091267
0.0860407
0.0757466
0.0654299
0.0651131
0.069819
0.054638
0.0395475
0.034457
0.0293213
0.0291176
0.028914
0.0287783
0.0237104
-0.00126697
-0.0212217
-0.0212896
-0.0214027
-0.0164706
-0.011448
-0.0163122
-0.0210407
-0.0306561
-0.0404072
-0.0403394
-0.0352941
-0.0252262
-0.0250905
-0.0398869
-0.0496606
-0.054457
-0.0593891
-0.0594796
-0.0595249
-0.0545928
-0.0598416
-0.0752036
-0.0806561
-0.0862217
-0.0869005
-0.0776244
-0.0732127
-0.0736425
-0.0888688
-0.10905
-0.11448
-0.104842
-0.104864
-0.104706
-0.104457
-0.104095
-0.11362
-0.1231
-0.122647
-0.12224
-0.111833
-0.101267
-0.110475
-0.11957
-0.123643
-0.122805
-0.107104
-0.096448
-0.0858145
-0.0801584
-0.094457
-0.103824
-0.103303
-0.0928959
-0.0726018
-0.0622398
-0.0617873
-0.0664027
-0.0811765
-0.0813122
-0.0669004
-0.0630995
-0.0648643
-0.0670814
-0.0697738
-0.0730543
-0.0816968
-0.0705656
-0.0486425
-0.0448643
-0.0434163
-0.0486878
-0.0321493
-0.054819
-0.0472398
-0.0196833
0.00717194
0.0130543
0.0183484
0.0132353
0.0071267
0.00986426
0.0120814
0.0188914
0.0256335
0.0223756
0.0191176
0.0108597
0.0123529
0.0436878
0.0649774
0.0562443
0.0475792
0.0440045
0.0354525
0.0268778
0.0332127
0.054457
0.0657014
0.0619457
0.0582127
0.0545249
0.0507466
0.0468552
0.0528733
0.0688235
0.069819
0.0608597
0.0569231
0.0529412
0.053733
0.0643439
0.0699095
0.0704751
0.0661086
0.0617647
0.042353
0.0228507
0.0532127
0.0834389
0.0835973
0.0837557
0.0889819
0.0941629
0.0941855
0.099095
0.128914
0.15371
0.148552
0.158371
0.208167
0.242896
0.252511
0.267059
0.286538
0.291086
0.265747
0.23543
0.205113
0.209661
0.25405
0.228439
0.162896
0.137398
0.136946
0.126493
0.111041
0.10552
0.104932
0.0993439
0.0887557
0.05319
0.0176018
-0.00312217
-0.0239366
-0.0247964
-0.0106335
-0.00631221
-0.00190045
-0.00242081
-0.00289592
0.00153847
0.00590498
0.0202715
0.0347738
0.0294796
0.0292534
0.0490272
0.0837783
0.153439
0.243077
0.372783
0.492579
0.607443
0.727285
0.862104
0.946878
0.981584
0.791403
0.38638
-0.198552
-0.908416
-1.29339
-1.47339
-1.53357
-1.52378
-1.36382
-1.14373
-1.00864
-0.903597
-0.68371
-0.443937
-0.339231
-0.249525
-0.224751
-0.204932
-0.195136
-0.200385
-0.160747
-0.141176
-0.136516
-0.131742
-0.141946
-0.152217
-0.152579
-0.153009
-0.138507
-0.123982
-0.134321
-0.144593
-0.149864
-0.155136
-0.15043
-0.140792
-0.126222
-0.116584
-0.126833
-0.137036
-0.14224
-0.137489
-0.112783
-0.0931222
-0.0834615
-0.0836652
-0.0938009
-0.0938914
-0.0839367
-0.069095
-0.0493665
-0.029457
-0.0143665
-0.00923077
-0.0140498
-0.00386878
0.0163122
0.0314706
0.0466968
0.0471946
0.0378733
0.0435294
0.0542081
0.0650679
0.0760633
0.0871041
0.0982579
0.0845701
0.0709276
0.072172
0.0732353
0.089095
0.104977
0.101109
0.097172
0.0879864
0.0786199
0.0791629
0.0796833
0.0851584
0.0906335
0.0911312
0.0916742
0.0972172
0.112466
0.132443
0.142308
0.147059
0.141878
0.121833
0.111855
0.106923
0.101923
0.106878
0.11181
0.111742
0.0918326
0.0670588
0.0622851
0.0625113
0.0627602
0.0681222
0.0738009
0.0749321
0.0617421
0.0491403
0.0570362
0.0653846
0.0792534
0.0935068
0.0879638
0.0816516
0.0685973
0.0528733
0.0638688
0.0730996
0.0764932
0.0746607
0.0529864
0.0370136
0.0320136
0.0376018
0.0586425
0.0706335
0.0836652
0.0822398
0.0712896
0.0654525
0.0647059
0.0689593
0.0831448
0.097534
0.107059
0.101697
0.0864027
0.0909955
0.105498
0.11
0.114502
0.114095
0.103778
0.0984163
0.0930091
0.0875566
0.0870588
0.0965611
0.106109
0.0957692
0.0854977
0.0752036
0.0648869
0.0695249
0.0741629
0.0838914
0.0936878
0.068552
0.0534389
0.0382806
0.0230996
0.0279864
0.0328733
0.0228733
0.0129638
0.00312218
-0.00674207
-0.0016742
0.00343892
0.00864254
-0.000995466
-0.0304751
-0.0449547
-0.0445023
-0.0391629
-0.0288688
-0.0234615
-0.0229638
-0.0323982
-0.0467647
-0.0512217
-0.0507918
-0.0404751
-0.0252489
-0.0250452
-0.0347964
-0.0445249
-0.0543213
-0.039276
-0.0194796
-0.0249321
-0.0304751
-0.0359955
-0.0413801
-0.0566063
-0.06681
-0.0370362
-0.0122172
-0.00728506
-0.00228506
-0.0172398
-0.0319683
-0.0415385
-0.0461991
-0.0309502
-0.0206561
-0.0102715
-0.00470588
-0.0239819
-0.0381674
-0.0423303
-0.0415158
-0.0257014
-0.0148642
-0.0139819
-0.0230317
-0.0420362
-0.0511312
-0.0453394
-0.024638
-0.00400451
-0.00328053
-0.0124661
-0.0316968
-0.0510181
-0.0454977
-0.0303167
-0.0255204
-0.0207692
-0.0308597
-0.0563801
-0.0527602
-0.0498642
-0.0476244
-0.0462217
-0.0406787
-0.0333032
-0.0482805
-0.0615837
-0.0584615
-0.0529412
-0.0348643
-0.0171719
-0.0150905
-0.0177828
-0.0302036
-0.0336199
-0.0130769
0.00162896
0.00554299
0.00866515
0.00604071
0.00312217
0.00488687
0.0064932
0.0129412
0.0192534
0.0254751
0.0267195
0.0179864
0.0142081
0.010362
0.00640271
0.0123303
0.0182127
0.0240724
0.03
0.0259955
0.0219005
0.0227602
0.0285521
0.0242534
0.0399095
0.0355656
0.0362217
0.0368326
0.047353
0.0578054
0.0582579
0.0587104
0.0391855
0.019638
0.02
0.0252489
0.0554072
0.075543
0.0607466
0.0508824
0.0460181
0.0411765
0.0463348
0.0562896
0.0810634
0.100905
0.120837
0.125837
0.11586
0.125837
0.150747
0.195611
0.250475
0.270294
0.270068
0.244819
0.209548
0.204231
0.213891
0.218665
0.213575
0.20862
0.203756
0.148824
0.0938235
0.103756
0.118643
0.10362
0.0886652
0.0537783
0.0189819
-0.0208371
-0.0507692
-0.0508145
-0.0509502
-0.0561086
-0.0611539
-0.071086
-0.0810634
-0.0761765
-0.0662896
-0.0413122
-0.021267
-0.0311539
-0.0409276
-0.0406335
-0.0304751
-0.0104525
0.0496154
0.149774
0.175023
0.150362
0.250679
0.425905
0.576109
0.721267
0.91638
1.13149
0.741742
0.172104
-0.197647
-0.522534
-1.05749
-1.62249
-1.53247
-1.38242
-1.41738
-1.46738
-1.25256
-1.03781
-0.848009
-0.65819
-0.478394
-0.30862
-0.243869
-0.184231
-0.154706
-0.125204
-0.100701
-0.0811765
-0.0765838
-0.0719684
-0.0724435
-0.0680543
-0.0538009
-0.0395475
-0.0252489
-0.0158824
-0.021448
-0.0270589
-0.0327602
-0.0385068
-0.0392534
-0.0348643
-0.0204073
-0.0158598
-0.0263349
-0.0269231
-0.0175566
-0.0130317
-0.00839368
-0.00373305
-0.00404979
-0.00938915
-0.019819
-0.0102941
0.00923076
0.0188914
0.0136878
0.0335068
0.0333258
0.0181448
0.0029638
0.042828
0.0827602
0.0778054
0.0729638
0.0582579
0.043552
0.043733
0.0489366
0.074276
0.0948642
0.100679
0.106787
0.108009
0.108959
0.104593
0.100226
0.105928
0.101697
0.0774886
0.0633258
0.0642081
0.0647285
0.0699321
0.0752262
0.0706334
0.0660181
0.0613801
0.0465384
0.0314932
0.0412669
0.0609049
0.0805656
0.100271
0.0850226
0.0597511
0.0593439
0.0688461
0.0583937
0.043009
0.0477149
0.0525339
0.0273755
0.00214932
0.0118552
0.0215837
0.0164253
0.0115611
-0.00285067
-0.0171267
-0.0214706
-0.0254299
-0.0137104
0.00371037
0.0218325
0.0308597
0.0158823
0.00407238
0.0146154
0.0285068
0.0409502
0.0459954
0.0435068
0.0414253
0.03
0.0233258
0.0363575
0.0354525
0.0355656
0.0365385
0.0383711
0.0410634
0.0395475
0.0582353
0.0821267
0.0861539
0.0903168
0.0896154
0.0790498
0.0735521
0.0830769
0.107511
0.131946
0.126448
0.121018
0.110679
0.100362
0.114955
0.129502
0.13405
0.133597
0.108145
0.0877828
0.0825792
0.0823303
0.1069
0.116516
0.0912217
0.0759502
0.0707014
0.0655204
0.0503846
0.0501358
0.0597511
0.0644344
0.0642308
0.054095
0.0339593
0.0238688
0.018733
0.0135068
0.00819006
0.00309956
0.00323531
-0.00160632
-0.0114706
-0.00651582
0.00830318
0.0131222
0.00796381
-0.00205881
0.00307694
-0.0416742
-0.0664027
-0.0312217
0.00391404
-0.000950208
-0.00581446
-0.0156335
-0.0254525
-0.0404072
-0.0555656
-0.0308597
-0.0161765
-0.0264479
-0.0367194
-0.0469683
-0.0574434
-0.048009
-0.0388688
-0.0400226
-0.0411086
-0.0470814
-0.0579185
-0.0736199
-0.0744118
-0.0553167
-0.0461086
-0.0517873
-0.0576018
-0.0534389
-0.058914
-0.0741629
-0.0696606
-0.0553167
-0.0508597
-0.0562896
-0.0616289
-0.0619231
-0.0672172
-0.0774887
-0.0626471
-0.0377602
-0.0427602
-0.0526471
-0.0574434
-0.0622398
-0.0471946
-0.0322398
-0.0372398
-0.0421267
-0.0468778
-0.0515611
-0.0512217
-0.0459502
-0.0258145
-0.0108145
-0.0308597
-0.0410633
-0.0414027
-0.0420814
-0.0531448
-0.0599095
-0.0423756
-0.0303394
-0.0338009
-0.0378281
-0.0468778
-0.0590498
-0.0691855
-0.0666516
-0.0416968
-0.0299095
-0.021991
-0.0144118
-0.0123529
-0.00117647
0.0192534
0.0292081
0.0284163
0.0265611
0.0289819
0.0158824
-0.00264704
0.0134842
0.0444797
0.0354978
0.0265159
0.0273756
0.0281448
0.018914
0.00959278
0.0300905
0.0505656
0.0460634
0.0415611
0.0370815
0.0325792
0.0429864
0.0533032
0.0585068
0.0636878
0.0538462
0.0440045
0.0341855
0.034276
0.0592534
0.0742308
0.0742534
0.0743439
0.069457
0.0545701
0.0347285
0.0345702
0.0542082
0.0639819
0.0588914
0.0537783
0.0486426
0.0434842
0.0482353
0.0777602
0.107127
0.111629
0.106222
0.110747
0.100204
0.144593
0.158891
0.20819
0.257511
0.25181
0.246086
0.235362
0.224548
0.228575
0.227579
0.201697
0.185882
0.205068
0.194276
0.118484
0.0726923
0.101765
0.110928
0.0952263
0.0795701
0.053914
0.0382353
0.0225339
0.00167422
-0.0293439
-0.0452715
-0.0610633
-0.0719005
-0.0778054
-0.0737557
-0.0597511
-0.0556787
-0.0565158
-0.0673077
-0.0830543
-0.0887557
-0.089457
-0.0702262
-0.0459955
-0.016629
0.0128507
0.0522851
0.0867647
0.166357
0.255905
0.415272
0.56957
0.698937
0.833394
0.962919
0.972466
0.557014
0.0964706
-0.499208
-1.02491
-1.40552
-1.63111
-1.5617
-1.45229
-1.2679
-1.11355
-0.994208
-0.814864
-0.575566
-0.416267
-0.326968
-0.252851
-0.183914
-0.154887
-0.135701
-0.126584
-0.117534
-0.113439
-0.119344
-0.10543
-0.0816516
-0.0777376
-0.0736652
-0.0695701
-0.0754751
-0.0813801
-0.0823303
-0.0733258
-0.0543213
-0.0552941
-0.0561991
-0.0620588
-0.0679186
-0.0538462
-0.0397964
-0.0356335
-0.0314027
-0.0421493
-0.0528054
-0.0633937
-0.069095
-0.0449774
-0.0258597
-0.0215837
-0.0171719
-0.0176923
-0.0181901
-0.0236652
-0.0142534
0.0200905
0.0396154
0.0343213
0.029095
0.0338914
0.0387783
0.0436878
0.053733
0.0637783
0.069095
0.0747059
0.080362
0.0760407
0.086629
0.107127
0.112715
0.108326
0.103846
0.0993439
0.0899774
0.0955656
0.0907466
0.105679
0.0907466
0.0758824
0.0709955
0.0661086
0.0661765
0.0711086
0.10086
0.125498
0.120023
0.114525
0.119005
0.123462
0.127896
0.132262
0.131606
0.125973
0.110339
0.0947285
0.0791177
0.0734842
0.0878507
0.0922624
0.0817421
0.0713349
0.0610407
0.0409955
0.0161765
0.0266742
0.0575339
0.069095
0.0763348
0.0741855
0.0626697
0.06181
0.0609728
0.0731674
0.0932353
0.0956109
0.0906335
0.0840045
0.0764027
0.0691403
0.0623529
0.0713348
0.0809276
0.0809729
0.0818099
0.0737557
0.0713348
0.0941855
0.11224
0.105475
0.098733
0.101968
0.10509
0.0931222
0.0909955
0.118665
0.136471
0.124457
0.107466
0.0954977
0.0886199
0.0818099
0.0851357
0.10362
0.112262
0.111154
0.100294
0.079638
0.0690724
0.0735746
0.0781448
0.0777828
0.0774434
0.0721946
0.0520588
0.0319683
0.0418552
0.0617421
0.0617195
0.0467647
0.0268326
0.00696833
-0.00282805
-0.012647
0.00744346
0.0275566
0.0178054
0.00812218
-0.00156109
-0.0112443
-0.0259276
-0.0410181
-0.0265611
-0.0119683
-0.0221719
-0.0380995
-0.0547285
-0.0669231
-0.0597511
-0.0533936
-0.0723755
-0.0792986
-0.0843665
-0.0930317
-0.0999095
-0.0937783
-0.070724
-0.0536199
-0.0469909
-0.0452036
-0.0486425
-0.0579638
-0.0682126
-0.0494117
-0.0214479
-0.0141402
-0.0172172
-0.0255882
-0.0341176
-0.0376923
-0.0363574
-0.0151357
0.00599551
0.00705885
0.00807695
-0.00595019
-0.0200226
-0.0191855
-0.0184163
-0.0076244
0.00314483
0.00882358
0.0145249
0.000294149
-0.0140045
-0.00341624
0.00714937
0.0128281
0.0184842
0.0140951
0.00972855
-0.00466059
0.000859777
0.0212896
0.0317421
0.0322625
0.0278281
0.0134163
0.0040272
-0.000361951
0.0051584
0.0206109
0.0411086
0.0616516
0.0672399
0.0628733
0.0835521
0.114186
0.144796
0.175407
0.20095
0.226471
0.262059
0.29267
0.33319
0.373665
0.359231
0.344864
0.345475
0.346041
0.331584
0.312081
0.277489
0.242896
0.218394
0.183982
0.129638
0.0853394
0.0610181
0.0415611
0.0420362
0.0424887
0.0428959
0.0283258
-0.00624434
-0.0259502
-0.0307919
-0.0356561
-0.0304977
-0.025362
-0.0252941
-0.0351584
-0.0500226
-0.0449774
-0.0300226
-0.0249321
-0.0197059
-0.0145249
-0.0193439
-0.0241176
-0.018914
0.0761539
0.181109
0.161154
0.126312
0.291516
0.451674
0.581787
0.716833
0.906855
1.0019
0.551855
0.136833
-0.178122
-0.5781
-1.25312
-1.67317
-1.46819
-1.34819
-1.39824
-1.3633
-1.17342
-0.973665
-0.76405
-0.574389
-0.399638
-0.289864
-0.230113
-0.200339
-0.185566
-0.16095
-0.131448
-0.106878
-0.0922172
-0.0874887
-0.0927149
-0.0980091
-0.0933937
-0.0838462
-0.0743439
-0.064819
-0.0552489
-0.0705882
-0.0958824
-0.10129
-0.101787
-0.0872398
-0.0826244
-0.0679412
-0.0532127
-0.0634842
-0.0737557
-0.0591177
-0.0444796
-0.0397511
-0.0349321
-0.0400453
-0.0451357
-0.0502489
-0.0504299
-0.0305882
-0.0158145
-0.0109276
-0.00590497
-0.0107466
-0.0155656
-0.0304072
-0.0202036
0.0100905
0.0305204
0.0411086
0.0419231
0.0329412
0.034095
0.045362
0.0567873
0.068371
0.0748869
0.0713348
0.067828
0.0643665
0.0708145
0.0871493
0.0933032
0.0942987
0.0852489
0.071086
0.0516968
0.0370815
0.0572851
0.0773756
0.0874661
0.0976018
0.0928054
0.0879864
0.0980543
0.107986
0.122805
0.137579
0.142353
0.142195
0.107127
0.0870136
0.09681
0.106584
0.0963801
0.0862217
0.0861086
0.0760634
0.0560407
0.0509502
0.0658371
0.0761539
0.0719457
0.0626923
0.0433258
0.0397511
0.0369231
0.0445928
0.0628054
0.0718326
0.0812896
0.0738235
0.0545475
0.0488235
0.046267
0.0456335
0.0480769
0.046448
0.0504072
0.0442308
0.0382127
0.0479864
0.0586425
0.0602489
0.0627149
0.0609955
0.059819
0.0439593
0.0332353
0.0625339
0.0869231
0.0914479
0.0911086
0.075905
0.0657466
0.0655882
0.0703167
0.0849774
0.0946833
0.0994344
0.0992986
0.084276
0.0792308
0.089095
0.0938462
0.0935294
0.0882353
0.0779412
0.0728054
0.0678054
0.0627149
0.0675339
0.0723982
0.0723077
0.0622624
0.0472851
0.0373303
0.0273529
0.0322851
0.022172
0.0421493
0.0321946
0.0222851
0.0124434
0.0126244
0.0127376
0.0226471
0.0325792
0.0326244
0.0277828
0.0030543
-0.0166516
-0.0114027
-0.00617646
-0.000882342
0.0043439
0.00459277
0.00497739
-0.0045475
-0.0141629
-0.00886877
-0.00355203
0.00183258
0.00223982
-0.0123529
-0.0219683
-0.026629
-0.0214027
-0.00626698
-0.00104073
-0.000723975
-0.0103394
-0.0248869
-0.0344344
-0.0440045
-0.0335973
-0.01319
-0.00771492
-0.00214931
-0.0114932
-0.0307918
-0.0302489
-0.024819
-0.0143891
-0.00395927
-0.0086199
-0.0132805
-0.0228507
-0.0324434
-0.0221267
-0.0118326
-0.0114932
-0.0111312
-0.0207692
-0.0304299
-0.040181
-0.0449774
-0.024819
-0.00975112
0.000271499
0.00031675
-0.0246154
-0.039638
-0.0347964
-0.0300452
-0.0254072
-0.0209955
-0.0217421
-0.0324208
-0.053009
-0.0535973
-0.0391855
-0.0347059
-0.0351357
-0.0354525
-0.0407013
-0.0510181
-0.0612217
-0.0611312
-0.0509955
-0.045905
-0.0457013
-0.050362
-0.0649095
-0.0693665
-0.0738235
-0.0532579
-0.0325792
-0.0317194
-0.030724
-0.044638
-0.0585294
-0.0674661
-0.0714706
-0.0505204
-0.0346154
-0.0237783
-0.0179412
-0.0370588
-0.0512444
-0.0404977
-0.0298869
-0.0243665
-0.0190272
-0.0238462
-0.0338009
-0.0440498
-0.0450679
-0.03181
-0.0241177
-0.0270362
-0.0304525
-0.0392081
-0.0527376
-0.065543
-0.0567873
-0.0256335
-0.0159276
-0.00425339
-0.00233032
-0.0101357
-0.00776018
-0.0010181
0.00952489
0.00927602
0.0384389
0.0467873
0.0241855
0.0011086
0.0176923
0.0339367
0.0349321
0.0358371
0.0366968
0.0375339
0.0332806
0.0289593
0.034638
0.0402715
0.0410634
0.0416742
0.0373077
0.0329186
0.0284842
0.0289819
0.0444118
0.0548643
0.0553846
0.0509728
0.036629
0.0272172
0.0276923
0.0331674
0.0436425
0.054095
0.0645701
0.0550905
0.0356335
0.0311312
0.0315384
0.0318326
0.0371041
0.0423756
0.0376471
0.0328959
0.0331222
0.0382805
0.0433484
0.0684163
0.0935068
0.0936199
0.0936425
0.103462
0.113213
0.128032
0.152783
0.207421
0.252081
0.241787
0.231471
0.231063
0.230588
0.230113
0.224638
0.20414
0.19371
0.208326
0.182941
0.102557
0.0821267
0.121697
0.121312
0.0959502
0.0705882
0.035181
0.0247738
0.0193439
-0.0011086
-0.0265611
-0.046991
-0.0623982
-0.0678959
-0.0734615
-0.0640272
-0.0446154
-0.0301584
-0.0156109
-0.0209276
-0.0411765
-0.0315158
-0.0219231
0.00271492
0.0273982
0.0720814
0.106855
0.126719
0.176606
0.336516
0.486403
0.61629
0.741199
0.871109
0.936063
0.876086
0.706109
0.361131
-0.168914
-0.943937
-1.36894
-1.42391
-1.48889
-1.55391
-1.434
-1.16414
-0.984321
-0.849593
-0.664683
-0.454683
-0.349842
-0.285158
-0.220453
-0.160724
-0.135995
-0.121267
-0.116516
-0.111742
-0.106991
-0.112285
-0.0976245
-0.117986
-0.0733258
-0.0786426
-0.0839819
-0.0893439
-0.0847059
-0.0800905
-0.0754751
-0.0707693
-0.0809729
-0.0911765
-0.0864254
-0.0816969
-0.0819684
-0.0772398
-0.0624435
-0.0576697
-0.0728281
-0.0829186
-0.0829865
-0.0731448
-0.0383711
-0.0235973
-0.0238009
-0.0238914
-0.028914
-0.0339367
-0.0289367
-0.0139819
0.00595021
0.0160633
0.0213574
0.0417194
0.0621267
0.0625792
0.0530769
0.0736199
0.104253
0.105136
0.0962443
0.0923529
0.0934389
0.109547
0.125633
0.131629
0.137602
0.123575
0.109547
0.100588
0.0915158
0.102081
0.112534
0.108122
0.103756
0.0993665
0.0948869
0.0902262
0.0904751
0.115679
0.135814
0.13086
0.125814
0.130701
0.130633
0.120611
0.120543
0.130475
0.125543
0.105747
0.0959276
0.0960181
0.0961764
0.0963801
0.0966063
0.1019
0.087466
0.0632353
0.049095
0.0351583
0.0419004
0.0592986
0.0672624
0.0708145
0.0650452
0.0496154
0.043914
0.0373982
0.0642534
0.0886878
0.084638
0.078733
0.067647
0.0562896
0.059638
0.0634842
0.0734842
0.084276
0.0656787
0.0479186
0.0561539
0.0648416
0.0738009
0.0830543
0.0825792
0.0822851
0.0771267
0.0719909
0.0718778
0.0766968
0.0914027
0.101199
0.0959276
0.0908597
0.0907692
0.0907014
0.0856109
0.0904299
0.105226
0.0951131
0.0750679
0.0699548
0.0647738
0.059638
0.0595475
0.0644344
0.0593213
0.0742987
0.0693213
0.0442986
0.019276
0.0342986
0.0493213
0.0494118
0.0496154
0.0299095
0.0102489
0.00561086
0.000927599
0.0161991
0.0264932
0.0119005
-0.00264706
-0.0170814
-0.0263575
-0.0254751
-0.0247285
-0.0191629
-0.0134163
-0.0124434
-0.0164706
-0.025543
-0.0295928
-0.0335973
-0.0276018
-0.00660635
-0.00558824
-0.0245475
-0.0335294
-0.0325339
-0.0315837
-0.0306787
-0.0247964
-0.0138914
-0.0230091
-0.0421267
-0.0461991
-0.0402941
-0.0295023
-0.0237783
-0.0279864
-0.0321267
-0.031267
-0.0304073
-0.0445249
-0.058733
-0.0381448
-0.0176018
-0.0320588
-0.0465837
-0.0462443
-0.0461539
-0.051267
-0.051448
-0.0316742
-0.0219005
-0.0371041
-0.0472625
-0.0474208
-0.0426018
-0.0328054
-0.0281222
-0.0233711
-0.0281901
-0.0477149
-0.0573756
-0.0571946
-0.0469683
-0.0317195
-0.026267
-0.0306335
-0.0449774
-0.0592308
-0.0633258
-0.0623303
-0.0512896
-0.0352036
-0.0290272
-0.0277602
-0.0265837
-0.0354977
-0.0293665
-0.0232353
-0.0221267
-0.0209955
-0.0348643
-0.048733
-0.0476244
-0.0467873
-0.0262444
-0.00579187
-0.010362
-0.0154525
-0.0161765
-0.0174434
-0.0292534
-0.0319005
-0.0102941
-0.00253394
-0.0185068
-0.0277602
-0.0201584
-0.00952489
-0.00653846
-0.00380091
0.00880091
0.0216063
0.0242534
0.0260181
0.0269004
0.0219457
0.0160407
0.0291855
0.0516968
0.0439366
0.0259276
0.0176244
0.00907239
0.0153846
0.0315158
0.0425339
0.038552
0.0395928
0.0205882
0.00647058
-0.00782806
0.0226697
0.0531674
0.0337557
0.0143892
0.0150453
0.0157014
0.00633487
-0.00307691
0.0124208
0.0279185
0.0285068
0.0291176
0.0196154
0.00999995
0.0103167
0.0105655
0.0257465
0.0309954
0.0313348
0.0265836
0.0116968
0.0117646
0.0318325
0.0468778
0.0569004
0.0619683
0.0570361
0.0520135
0.051923
0.0717194
0.106403
0.116154
0.125973
0.135701
0.145339
0.19
0.234661
0.249231
0.258756
0.258394
0.258122
0.232828
0.207511
0.197172
0.186833
0.216538
0.21629
0.126109
0.0609729
0.0808145
0.0956335
0.0754299
0.0602036
0.04
0.0248643
0.0197511
-0.000452474
-0.0407466
-0.0661538
-0.0666516
-0.0671041
-0.0724887
-0.0777828
-0.073009
-0.06819
-0.0683937
-0.0586651
-0.0439593
-0.0391403
-0.0392308
-0.0393439
-0.0394796
0.0153846
0.0802489
0.105204
0.125271
0.250362
0.385475
0.500656
0.620837
0.805882
0.965882
0.715973
0.451131
0.0612896
-0.368597
-1.04351
-1.56844
-1.51844
-1.48851
-1.5286
-1.49867
-1.28871
-1.09882
-0.939072
-0.754412
-0.529842
-0.375181
-0.315385
-0.260679
-0.216109
-0.181652
-0.157308
-0.122964
-0.0835747
-0.074095
-0.0945928
-0.100136
-0.0908145
-0.0616063
-0.0175113
-0.0183258
-0.0340272
-0.0397285
-0.0454525
-0.0511765
-0.0569231
-0.0527828
-0.0387104
-0.0345249
-0.0352262
-0.0408823
-0.0365158
-0.0222172
-0.00798641
0.00624436
0.0205204
0.00993213
-0.000610873
0.00886878
0.0183258
0.0226697
0.0269909
0.0413801
0.050905
0.0353846
0.0301357
0.0498869
0.0645475
0.0741403
0.0838235
0.0886652
0.0935973
0.0986199
0.10371
0.0988688
0.0991855
0.114661
0.125226
0.12086
0.111516
0.102195
0.0977828
0.103258
0.10862
0.108914
0.104412
0.0949548
0.0801131
0.0649774
0.0598869
0.064819
0.0796154
0.0893665
0.0790951
0.0688235
0.0735973
0.0782353
0.0976018
0.116833
0.116063
0.115317
0.0995928
0.0838914
0.0732579
0.0675792
0.0867873
0.0960634
0.0704525
0.0498642
0.039276
0.0287104
0.0281674
0.0278054
0.0276697
0.0226923
0.0128507
0.00359727
-0.0100226
-0.00819005
0.0141176
0.0272398
0.036086
0.0338688
0.0204977
0.0203846
0.0283258
0.0331222
0.0354751
0.0380317
0.040724
0.0333032
0.016086
0.0198642
0.039457
0.0446606
0.0507013
0.037828
0.0256787
0.0338009
0.0421719
0.0557466
0.069457
0.0732353
0.077172
0.0663348
0.0555656
0.0647059
0.0738235
0.0829412
0.0921267
0.101448
0.10586
0.0852941
0.0697511
0.0692308
0.0735973
0.0878507
0.0921267
0.0814706
0.070905
0.0604072
0.0549095
0.0594344
0.0639366
0.0634389
0.0530543
0.0377828
0.0324661
0.0271041
0.02681
0.0365611
0.0412896
0.0460407
0.030905
0.0508371
-0.00427601
-0.00941174
0.00549776
0.0204525
0.0204299
0.0204751
0.0106109
0.000791878
-0.0040045
-0.00884613
0.00119912
0.0112217
0.00631224
0.00144798
-0.00343889
-0.00828052
-0.0131222
-0.0130543
0.00196834
0.0069231
-0.00821265
-0.018371
-0.0235746
-0.0238914
-0.0143439
-0.00493212
0.00441178
-0.00119909
-0.0168552
-0.0328054
-0.0490045
-0.0402489
-0.0214932
-0.0175565
-0.0184389
-0.0242534
-0.0349774
-0.0456561
-0.0564479
-0.0424887
-0.0184389
-0.023914
-0.0342308
-0.0347059
-0.0352036
-0.0406108
-0.0460181
-0.0314479
-0.0168099
-0.0270135
-0.0371493
-0.0422398
-0.0472624
-0.0322398
-0.017285
-0.0123529
-0.0123529
-0.027285
-0.0372398
-0.0422624
-0.0423529
-0.022466
-0.00757916
-0.00269229
-0.00273754
-0.0177828
-0.0332353
-0.0440271
-0.0347511
-0.0105882
-0.0122398
-0.0295927
-0.0375339
-0.0411538
-0.0455656
-0.0496154
-0.0468326
-0.0373303
-0.036267
-0.0428054
-0.0413122
-0.0341176
-0.0277375
-0.0115384
0.00986427
0.0308597
0.0161086
0.000475135
-0.00619908
-0.013733
0.00798644
0.0293213
0.030362
0.0313801
0.0173303
0.00319006
-0.00104071
-0.000407226
0.0201131
0.0356335
0.0261312
0.0165837
0.0169684
0.0173303
0.0126697
0.0129186
0.0231222
0.0234163
0.0138009
0.00909504
0.00445703
0.00454753
0.0145928
0.0196607
0.0247512
0.0198869
0.00506789
0.000226274
0.000339389
0.015362
0.0353168
0.0402941
0.0403168
0.040362
0.0404073
0.0204073
0.0103168
0.0251131
0.0398416
0.0595928
0.0793439
0.0790498
0.078733
0.0884163
0.103009
0.127511
0.147036
0.151629
0.171222
0.225747
0.270136
0.284434
0.28871
0.268009
0.247398
0.231855
0.211312
0.185747
0.195091
0.239344
0.21362
0.127986
0.102466
0.112014
0.0966063
0.0661991
0.0556335
0.0599547
0.0443665
0.00886877
-0.0117421
-0.0324208
-0.0581448
-0.0839593
-0.0697964
-0.0455656
-0.0512217
-0.0618326
-0.0624887
-0.0631674
-0.0488914
-0.034638
-0.0253167
-0.0158824
-0.0213348
-0.0117647
0.0777602
0.142217
0.136584
0.185973
0.375475
0.540068
0.659683
0.799231
0.983733
0.91319
0.522602
0.157036
-0.183484
-0.708982
-1.3895
-1.55507
-1.36566
-1.31629
-1.35192
-1.2524
-1.07776
-0.878258
-0.668891
-0.494593
-0.330362
-0.241086
-0.161742
-0.15233
-0.147873
-0.138507
-0.129253
-0.105068
-0.0759276
-0.0717421
-0.0674661
-0.0681448
-0.0688235
-0.0695023
-0.0702262
-0.0510407
-0.0318778
-0.0476471
-0.063371
-0.059095
-0.054819
-0.0505882
-0.0463801
-0.0371267
-0.0278054
-0.0384163
-0.0490045
-0.0546154
-0.0553167
-0.041086
-0.0317873
-0.0273756
-0.027828
-0.03819
-0.043552
-0.038914
-0.0243891
-0.00493212
0.0096154
0.0192987
0.0241855
0.0192308
0.014276
0.00929865
0.0292987
0.0593439
0.0645475
0.0598869
0.0553168
0.0558824
0.0716742
0.0776244
0.0935973
0.109615
0.0956109
0.0815385
0.0774208
0.0732127
0.0838462
0.0945023
0.105339
0.111109
0.0815837
0.0569683
0.0473982
0.0477376
0.0778733
0.0979864
0.0931448
0.0883032
0.103371
0.108303
0.1131
0.127783
0.147353
0.147036
0.126878
0.116719
0.111516
0.106222
0.11086
0.115588
0.12043
0.110385
0.0904299
0.0854525
0.0804751
0.0808145
0.0913801
0.0968778
0.0976018
0.0792534
0.0616968
0.0746606
0.08819
0.102489
0.116448
0.118643
0.119231
0.113348
0.105068
0.103643
0.101448
0.105091
0.108982
0.0827828
0.0670815
0.0721946
0.0780996
0.0798416
0.0823756
0.0906561
0.0943891
0.0785294
0.0677376
0.071991
0.0812443
0.0904977
0.0998416
0.109299
0.103869
0.0835068
0.0730996
0.0726471
0.0821946
0.0967421
0.10138
0.0961312
0.0858597
0.0755204
0.0701358
0.0747511
0.0794344
0.0791629
0.068914
0.058733
0.0485973
0.0383937
0.0530543
0.0676923
0.0674434
0.0622851
0.0371946
0.0171267
0.0169909
0.0168099
0.021629
0.0264932
0.0214027
0.00635746
-0.0186652
-0.0337557
-0.0339593
-0.0292308
-0.0145701
-0.00981901
-0.0199321
-0.0301131
-0.0454751
-0.0561312
-0.051991
-0.0428054
-0.0335747
-0.0390724
-0.0543665
-0.059638
-0.0649774
-0.0654977
-0.0560633
-0.0513801
-0.0465158
-0.0565158
-0.076448
-0.0815158
-0.0816516
-0.0767421
-0.0617421
-0.0665385
-0.071086
-0.0854525
-0.0997737
-0.0890498
-0.0783032
-0.0774887
-0.0765837
-0.0855882
-0.0945928
-0.0986652
-0.0978507
-0.0769683
-0.0613122
-0.0656109
-0.0749321
-0.089276
-0.0987557
-0.0984615
-0.0885068
-0.068914
-0.0546833
-0.0458371
-0.0476244
-0.0650679
-0.0782806
-0.0771267
-0.066267
-0.0548416
-0.0514253
-0.0505656
-0.0566742
-0.0656561
-0.0535747
-0.0310181
-0.018552
-0.00667421
-0.00572398
-0.015362
-0.020543
-0.0216968
0.00597286
0.0330543
0.0347738
0.0362896
0.0276923
0.0189819
0.0150453
0.0109955
0.0219005
0.0328281
0.0388009
0.0447964
0.0257918
0.0167194
0.0275339
0.0382805
0.0390045
0.039819
0.0407466
0.0367421
0.0277602
0.0285973
0.0442987
0.0499548
0.0406109
0.0363348
0.0421041
0.0378733
0.0185973
0.0241403
0.0495475
0.0550226
0.0455656
0.0361086
0.026629
0.0220136
0.0272625
0.0324435
0.0375792
0.0427602
0.0529864
0.0581674
0.0632127
0.0830769
0.102828
0.112534
0.12224
0.122036
0.121878
0.141674
0.176357
0.235882
0.280339
0.284819
0.279344
0.233914
0.203484
0.183009
0.182443
0.216787
0.221176
0.175656
0.145204
0.124819
0.114434
0.113982
0.103416
0.0827828
0.062172
0.046629
0.0110634
-0.0345475
-0.0503168
-0.0462217
-0.0471267
-0.0580091
-0.0638235
-0.0645701
-0.0653167
-0.0711312
-0.0570588
-0.0779864
-0.033733
-0.0393439
-0.0299321
-0.0205203
-0.0011312
0.0282127
0.0975113
0.171855
0.251335
0.345905
0.49052
0.635136
0.784661
0.904118
0.978597
0.863213
0.432964
-0.0972398
-0.767421
-1.23774
-1.47821
-1.58869
-1.56412
-1.42948
-1.21477
-1.07507
-0.97543
-0.77095
-0.501584
-0.362104
-0.277511
-0.227919
-0.193326
-0.163778
-0.129299
-0.114909
-0.100588
-0.0962217
-0.0968099
-0.0923529
-0.0828733
-0.0735294
-0.0692534
-0.0649547
-0.0605882
-0.0711538
-0.0816968
-0.0922172
-0.102783
-0.0734615
-0.0541629
-0.0497964
-0.045362
-0.055905
-0.0664253
-0.0768778
-0.0774208
-0.0481448
-0.0287783
-0.0292308
-0.0296154
-0.03
-0.0303846
-0.0257692
-0.0161991
-0.00162893
0.00800908
0.00271496
-0.00253391
0.0022851
0.0171493
0.0320588
0.0420362
0.0521041
0.0573077
0.0526245
0.0479865
0.0483484
0.0637104
0.0842082
0.0900226
0.091086
0.0922172
0.0933711
0.0894118
0.0852941
0.100995
0.116674
0.107557
0.0984842
0.0892308
0.0798643
0.0704299
0.065905
0.0862896
0.101629
0.101923
0.102149
0.102353
0.107376
0.127172
0.141855
0.151516
0.156222
0.140928
0.125656
0.11543
0.120136
0.139751
0.139457
0.119095
0.103982
0.0938914
0.0838688
0.0738914
0.073914
0.0840045
0.0844118
0.075181
0.0713801
0.0730769
0.0754751
0.0835068
0.0921267
0.0962444
0.0857014
0.074638
0.071629
0.0662217
0.0827828
0.0972172
0.095543
0.0933484
0.076267
0.0597964
0.0493213
0.0444797
0.0650453
0.0815158
0.0792082
0.0775792
0.0763801
0.0754525
0.0747285
0.0790498
0.0934389
0.102896
0.102421
0.101991
0.0965837
0.0962444
0.105973
0.110656
0.115294
0.11
0.0947738
0.0895475
0.0843213
0.0890498
0.10371
0.108439
0.108235
0.0980996
0.0830543
0.0730543
0.0629865
0.0777376
0.0974208
0.0822399
0.067172
0.0571494
0.047172
0.0372399
0.0272625
0.0322172
0.0371946
0.0272625
0.0173982
0.012534
0.00766972
0.00285072
-0.00199091
0.00312221
0.00323533
-0.0166516
-0.0314932
-0.0413348
-0.0412896
-0.0213348
-0.0163348
-0.0262896
-0.0363348
-0.0464932
-0.0567873
-0.0772172
-0.0727828
-0.0533936
-0.048733
-0.0588687
-0.0640271
-0.0691855
-0.0743212
-0.0794796
-0.0697511
-0.0499773
-0.0499095
-0.0596832
-0.0644344
-0.074095
-0.0686425
-0.0631222
-0.0525113
-0.0416968
-0.0506561
-0.0595249
-0.0684163
-0.0773529
-0.0613122
-0.0452262
-0.0490724
-0.0529412
-0.0619004
-0.070905
-0.0748869
-0.0740271
-0.0533258
-0.037647
-0.0369457
-0.0412896
-0.0557692
-0.0706335
-0.0808597
-0.0763348
-0.0571267
-0.0485294
-0.050543
-0.0532353
-0.0566289
-0.0607692
-0.0643891
-0.0653394
-0.0587783
-0.0499774
-0.044095
-0.0363801
-0.03319
-0.025724
-0.00875564
0.00296381
0.00918553
0.00468327
-0.000723962
-0.00712668
-0.014276
0.00791857
0.0297738
0.0314254
0.0330317
0.0295928
0.0261312
0.0176244
0.0139367
0.0351131
0.0513122
0.0425113
0.0337783
0.0249774
0.0161991
0.0174434
0.0236199
0.0397737
0.0459728
0.0371946
0.0233936
0.00454751
0.0106109
0.0415837
0.0576471
0.0588235
0.0549321
0.0459728
0.0369909
0.0279638
0.0388009
0.0595023
0.0651584
0.0607918
0.0564027
0.0520136
0.047647
0.0432127
0.0636425
0.0889593
0.0992308
0.10948
0.104661
0.0997964
0.119887
0.139887
0.144819
0.154774
0.179729
0.204661
0.23457
0.264367
0.288959
0.293529
0.248167
0.217896
0.212647
0.202398
0.187149
0.181833
0.196448
0.181176
0.136063
0.115995
0.11095
0.0909728
0.0659728
0.0558371
0.0556109
0.0254072
-0.0147738
-0.03
-0.0402715
-0.0455882
-0.0509502
-0.056267
-0.0515158
-0.0467421
-0.0469457
-0.0521267
-0.0673756
-0.0427602
-0.0181674
-0.0134389
-0.00855204
0.00142533
0.0214027
0.101335
0.181131
0.235769
0.31043
0.450226
0.585091
0.719977
0.859932
1.01998
0.89991
0.329729
-0.20543
-0.695543
-1.15061
-1.56566
-1.68075
-1.52591
-1.41609
-1.33624
-1.20636
-1.04645
-0.846606
-0.626855
-0.46224
-0.317738
-0.238145
-0.178462
-0.158778
-0.149095
-0.144412
-0.139774
-0.100294
-0.0608824
-0.0613348
-0.0566968
-0.0771041
-0.0775566
-0.0880317
-0.0985747
-0.0792308
-0.059819
-0.0652489
-0.0706335
-0.0760407
-0.0814932
-0.0720588
-0.0626471
-0.0681448
-0.0734842
-0.0739367
-0.0741176
-0.0793213
-0.079638
-0.0600679
-0.0404072
-0.0256109
-0.0157919
-0.0209955
-0.031086
-0.0411312
-0.0313122
-0.00660634
0.0132579
0.0283032
0.0334389
0.0286652
0.0238235
0.023914
0.0440724
0.0793439
0.0797511
0.0702941
0.0659955
0.0617873
0.0776244
0.103529
0.11448
0.120452
0.10629
0.0920588
0.0878959
0.0836878
0.0943439
0.104932
0.090543
0.0760633
0.0664027
0.0516968
0.0320136
0.0272624
0.0623756
0.0874661
0.0926018
0.0975792
0.0973529
0.0970588
0.0967194
0.0963348
0.100905
0.100543
0.0902941
0.0800905
0.0648642
0.0694344
0.0938235
0.0984389
0.0882579
0.0680995
0.0479638
0.0429186
0.0380091
0.0534163
0.0791403
0.0801357
0.0714932
0.0684842
0.066086
0.0543212
0.03819
0.0677376
0.0967421
0.0932127
0.0872851
0.0791403
0.0689367
0.0718552
0.0742308
0.0722625
0.0708371
0.0598643
0.0495023
0.0498643
0.0561312
0.0733484
0.086267
0.0847964
0.0837783
0.0831222
0.0825565
0.0770362
0.0814932
0.105928
0.11552
0.105271
0.100091
0.1
0.0997964
0.0945701
0.099276
0.123937
0.113756
0.0937104
0.0886652
0.0835973
0.0784389
0.0832127
0.0930091
0.102851
0.0827376
0.10767
0.0426471
0.0375792
0.0523756
0.0671267
0.0569683
0.0469231
0.046991
0.0471041
0.0171493
0.0021267
0.0270362
0.0469683
0.0320136
0.0171493
0.00735294
-0.00242081
0.00773756
0.0178733
0.0230091
0.0182805
-0.00624434
-0.0257692
-0.0353394
-0.03
-0.00975113
0.00554299
0.0209276
0.0214253
0.00701358
-0.00746606
-0.0270362
-0.0267195
-0.0114932
-0.00119909
0.0091629
0.0144796
0.00970588
-0.000226243
-0.0103167
-0.0155656
-0.0108823
-0.0160181
-0.0261086
-0.0213348
-0.0167195
-0.0172624
-0.0178507
-0.0134615
-0.00893665
-0.0291855
-0.0493665
-0.0545475
-0.0498643
-0.0103846
0.0142534
-0.0108145
-0.0306787
-0.0304299
-0.0302489
-0.0401357
-0.0500226
-0.0399095
-0.0296833
-0.034276
-0.0385973
-0.0377602
-0.0370136
-0.0413575
-0.0407466
-0.0302036
-0.0295249
-0.0387104
-0.0429412
-0.0422398
-0.041629
-0.041086
-0.035543
-0.025
-0.0344118
-0.0538235
-0.0583484
-0.0581674
-0.0583937
-0.0488235
-0.0393213
-0.0302489
-0.0518326
-0.0740724
-0.076991
-0.0807466
-0.0754072
-0.068371
-0.0640045
-0.0573982
-0.0686652
-0.0777376
-0.0645928
-0.0521719
-0.0406335
-0.0342081
-0.042828
-0.0471493
-0.0472624
-0.0434615
-0.0256787
-0.0135294
-0.00690044
-0.00545248
-0.0191403
-0.033009
-0.0418552
-0.0311312
-0.00556562
0.00497738
0.00554299
0.00113121
-0.00828054
-0.00771494
0.0027828
0.00803167
0.0131448
0.0183937
0.0187557
0.0190498
0.019276
0.0194344
0.0295023
0.0295701
0.0296833
0.0198643
0.0100453
0.0101131
0.0100453
0.0248643
0.0396606
0.0445023
0.0494344
0.0345023
0.0195928
0.0196154
0.0244344
0.0440724
0.0586652
0.0532806
0.0479864
0.0427828
0.0475566
0.0722625
0.0918552
0.106335
0.115792
0.110272
0.124683
0.159005
0.198303
0.232579
0.241833
0.246063
0.215339
0.169661
0.153891
0.143009
0.162059
0.191109
0.160317
0.119683
0.0790498
0.0433711
0.0376923
0.031991
0.0261991
0.0203394
0.00950228
-0.00628959
-0.0670588
-0.112828
-0.0986199
-0.0845249
-0.0905656
-0.096629
-0.102624
-0.108529
-0.104412
-0.0953168
-0.0812218
-0.0721267
-0.0630317
-0.0538462
-0.0595475
-0.0552715
-0.0360634
0.0230769
0.117172
0.17129
0.205475
0.314796
0.459208
0.603552
0.752805
0.936991
1.13113
0.760317
0.269547
-0.216199
-0.6969
-1.1876
-1.67835
-1.51914
-1.32998
-1.30084
-1.2667
-1.12258
-0.968507
-0.734502
-0.515588
-0.381697
-0.26276
-0.213756
-0.174729
-0.155792
-0.136946
-0.108167
-0.0793665
-0.0604978
-0.0515385
-0.067534
-0.0785521
-0.0746154
-0.0607919
-0.0370362
-0.0232579
-0.029457
-0.0355883
-0.0366742
-0.0377602
-0.0338462
-0.0249774
-0.0161086
-0.0171946
-0.0282353
-0.0342987
-0.0353846
-0.0264706
-0.0125566
-0.00359731
0.00542985
-0.000452507
-0.016267
-0.0221267
-0.0230543
0.00597283
0.025
0.034095
0.0432805
0.0325565
0.0218326
0.0311086
0.0403846
0.0547059
0.069095
0.0685746
0.0681448
0.0777375
0.0874208
0.0972624
0.107285
0.112421
0.117647
0.112941
0.108145
0.10819
0.113122
0.122964
0.127851
0.132828
0.122783
0.0976244
0.0873303
0.0869231
0.0914479
0.100905
0.105317
0.109683
0.10905
0.0983936
0.0925339
0.0964479
0.120317
0.144208
0.148145
0.142104
0.121041
0.104977
0.103982
0.103009
0.102014
0.101041
0.0851583
0.0693439
0.0635294
0.0577602
0.0671041
0.0767194
0.0717194
0.0669909
0.0474887
0.0385294
0.0352488
0.0375565
0.0554751
0.0692307
0.0738688
0.0768778
0.0777149
0.0714253
0.053009
0.0422624
0.0492081
0.0569004
0.0604751
0.0542308
0.0381901
0.0328507
0.0382353
0.0546154
0.0719457
0.0698869
0.0583711
0.0521041
0.0560407
0.0600453
0.0641177
0.0683032
0.0776018
0.0670136
0.0564932
0.0559276
0.0552715
0.0795475
0.103869
0.103303
0.102805
0.0923077
0.0818326
0.0814027
0.0809502
0.0904525
0.0999774
0.0895475
0.0791855
0.0738462
0.0685294
0.0682579
0.0679638
0.0726697
0.0724661
0.0573529
0.0472172
0.0420136
0.0418099
0.0516289
0.0565611
0.0615611
0.0565837
0.0316516
0.0267647
0.0218778
0.0269683
0.0420588
0.0471945
0.0423755
0.0325339
0.0226923
0.0179412
0.0181448
0.0182127
0.0282579
0.0183031
0.0081674
-0.00223985
-0.012715
-0.00314482
0.00647057
0.0161312
0.0258597
0.000678711
-0.0144344
-0.0245475
-0.034819
-0.0249548
-0.0150905
-0.00988688
-0.00470591
-0.0145475
-0.0242987
-0.0390045
-0.033733
-0.00843891
0.00205881
-0.0122172
-0.0213348
-0.0203394
-0.0243213
-0.0333032
-0.0273982
-0.00658374
-0.00074663
-0.00988691
-0.0140951
-0.0183711
-0.0226697
-0.0270589
-0.0265385
-0.0160408
-0.020543
-0.0350905
-0.044819
-0.0497964
-0.0350453
-0.0207693
-0.0219684
-0.0236426
-0.0358371
-0.0485294
-0.0667421
-0.0805204
-0.0599321
-0.0426697
-0.0483484
-0.0509276
-0.055362
-0.0586425
-0.0608824
-0.0583258
-0.0359955
-0.0195023
-0.0137783
-0.00848416
-0.00880091
-0.0102263
-0.00257919
0.00457013
0.0113122
0.0178959
0.0143891
0.0107466
0.00699094
0.0181448
0.0392308
0.0453846
0.0466063
0.0478054
0.0439819
0.0351358
0.0262217
0.0322172
0.0481674
0.0541855
0.0552715
0.0413122
0.0273529
0.0184389
0.00943439
0.0252941
0.0411312
0.0320362
0.0229638
0.0238235
0.024638
0.0204299
0.0161765
0.0219004
0.0276244
0.033371
0.0341403
0.0148416
0.00542985
0.020905
0.0313348
0.0367647
0.0422398
0.0477149
0.0481674
0.0385746
0.0588235
0.0989593
0.114095
0.119276
0.164389
0.219434
0.22948
0.21948
0.214412
0.214321
0.204276
0.189299
0.164253
0.139163
0.164027
0.133846
0.138733
0.0736878
0.0836878
0.0937783
0.0739366
0.0540271
0.0539819
0.0539367
0.0340045
0.00911764
-0.0208371
-0.0508371
-0.0758145
-0.090905
-0.0659276
-0.0461312
-0.0511765
-0.0561538
-0.0561312
-0.056086
-0.0560181
-0.0410407
-0.0111538
0.00382353
-0.00106334
0.00404978
0.0241177
0.0691177
0.124072
0.229095
0.349186
0.464321
0.579502
0.689683
0.804842
0.924819
1.04971
0.674706
0.234819
-0.435045
-1.11991
-1.3748
-1.6148
-1.56998
-1.51023
-1.30538
-1.11548
-1.02054
-0.895588
-0.655679
-0.445882
-0.331154
-0.236425
-0.196674
-0.1669
-0.147127
-0.132398
-0.112738
-0.0980769
-0.088371
-0.0785973
-0.0737783
-0.0688914
-0.0739593
-0.0692081
-0.0495928
-0.0399095
-0.0451131
-0.0502715
-0.0503846
-0.0604751
-0.0755882
-0.0608597
-0.031267
-0.0265611
-0.0367421
-0.0419457
-0.0421493
-0.0423077
-0.0424434
-0.0326018
-0.0177828
-0.0129185
-0.013009
-0.0230543
-0.0330769
-0.01319
0.0066516
0.0215385
0.0364932
0.0315385
0.0266742
0.0219005
0.0220815
0.0521267
0.0772398
0.0775113
0.0778507
0.0832806
0.0890045
0.0800679
0.081086
0.106968
0.122873
0.123824
0.119774
0.110701
0.106538
0.107285
0.1081
0.103733
0.0994344
0.0948869
0.0804299
0.0560407
0.0614932
0.0768099
0.0821267
0.0824434
0.0827376
0.0829638
0.0831222
0.0781448
0.0979185
0.0725792
0.117353
0.102217
0.0920814
0.0819909
0.0720136
0.0619683
0.0767873
0.0916289
0.0716063
0.0516742
0.0467647
0.0419004
0.0471267
0.0525565
0.0532353
0.0543665
0.0460633
0.0383032
0.031086
0.0292986
0.0579638
0.0721946
0.0770136
0.0751584
0.0663349
0.0595475
0.0497059
0.0585973
0.0813122
0.084276
0.0725566
0.06181
0.0519683
0.0426018
0.0438235
0.0610634
0.0792082
0.0828959
0.0820362
0.0813575
0.0758145
0.0803846
0.09
0.099638
0.109344
0.0991403
0.0890272
0.0739819
0.058914
0.0887331
0.108552
0.0984616
0.0884389
0.0834389
0.0734616
0.0535294
0.0434616
0.0682127
0.0880543
0.0780543
0.0680996
0.0631222
0.0531222
0.0431222
0.0380543
0.0379186
0.0378507
0.0328733
0.0279412
0.0230317
0.0180996
0.0181448
0.0182353
0.0233711
0.0185973
0.00391407
-0.0107466
-0.0254298
-0.0152262
0.00493217
0.0102263
0.0156561
0.0161539
0.00171948
-0.017647
-0.0371041
-0.0168099
0.00341631
-0.00624432
-0.0158371
-0.0254299
-0.0350452
-0.0396832
-0.0444796
-0.034457
-0.024638
-0.0350452
-0.0454977
-0.0559728
-0.0613801
-0.0467647
-0.0371719
-0.0375565
-0.0378054
-0.0529412
-0.0630769
-0.07819
-0.0781674
-0.0480543
-0.0378959
-0.0378507
-0.0374434
-0.0419457
-0.0563575
-0.080724
-0.0651131
-0.0345023
-0.023733
-0.0228054
-0.0268552
-0.0359502
-0.0400452
-0.0391855
-0.0384389
-0.0377149
-0.0319909
-0.036267
-0.0405656
-0.0449095
-0.0293439
-0.0138461
-0.0182805
-0.0229864
-0.0280543
-0.0330543
-0.0479185
-0.0586425
-0.035362
-0.0175566
-0.0291403
-0.0423756
-0.0562896
-0.068914
-0.0802941
-0.0855656
-0.0693665
-0.054819
-0.0525339
-0.050362
-0.0432127
-0.0356787
-0.03319
-0.0219005
-0.00158371
0.00312217
-0.00285068
-0.00975113
-0.0173529
-0.00536199
0.0162896
0.0229185
0.0245249
0.0210407
0.0124887
0.00391402
-0.00477376
0.0163122
0.0422851
0.0383937
0.0346154
0.0308145
0.0270136
0.0282353
0.0293439
0.0452941
0.0611991
0.0570814
0.0529864
0.0489367
0.0448869
0.0408371
0.0366742
0.0473982
0.0581222
0.0538688
0.0496606
0.0404525
0.0411086
0.061629
0.0721719
0.0727828
0.0683937
0.0540045
0.0396154
0.0301584
0.0555204
0.100747
0.116041
0.116403
0.116719
0.116991
0.11724
0.112398
0.142398
0.182308
0.22724
0.272217
0.277195
0.277149
0.247059
0.2169
0.226719
0.236538
0.211357
0.186244
0.186154
0.181018
0.150769
0.125498
0.135385
0.135339
0.100271
0.0652262
0.0352489
0.0151131
0.00977373
-0.000520371
-0.0207014
-0.0408824
-0.0661086
-0.0763349
-0.0815837
-0.0769005
-0.0472625
-0.0376245
-0.0379638
-0.0381674
-0.0433032
-0.0434842
-0.0337104
-0.0238688
-0.0139593
0.0559276
0.135814
0.115792
0.0757918
0.260724
0.475611
0.595611
0.490701
0.865769
1.01081
0.720837
0.440814
0.190701
-0.129457
-0.84957
-1.43466
-1.40477
-1.39991
-1.48502
-1.48018
-1.21045
-0.985747
-0.84095
-0.681177
-0.48638
-0.341697
-0.267127
-0.207534
-0.172873
-0.148213
-0.138575
-0.133959
-0.134389
-0.119864
-0.0903846
-0.0758371
-0.0811991
-0.0865837
-0.0919909
-0.102398
-0.112805
-0.0982579
-0.0737557
-0.0692081
-0.0645928
-0.0699321
-0.0852489
-0.0905656
-0.0958824
-0.0762217
-0.0515837
-0.0519231
-0.0521946
-0.0673982
-0.0825566
-0.0677149
-0.0528733
-0.0479864
-0.0430769
-0.0381674
-0.0331901
-0.0331674
-0.0331901
-0.0132579
-0.00325793
0.00190044
0.00721718
0.00762442
0.00807691
0.00357465
0.0140724
0.0445475
0.0601131
0.0658145
0.0668099
0.0580995
0.0544344
0.0557919
0.0669231
0.0878733
0.0988687
0.0999321
0.0859728
0.0669683
0.0679864
0.0789819
0.0847737
0.0803846
0.0759955
0.0816516
0.0772624
0.0577602
0.0781448
0.0984163
0.103597
0.10871
0.118756
0.128733
0.123597
0.118416
0.12819
0.137964
0.137896
0.132896
0.107919
0.088009
0.0931674
0.0982805
0.0983936
0.0985068
0.0986199
0.0941402
0.0701131
0.0609954
0.0616968
0.0632126
0.0656787
0.0686877
0.0662217
0.0654525
0.0653394
0.0689593
0.0813349
0.0874887
0.0921493
0.0936199
0.0874887
0.0814932
0.0705203
0.0741402
0.0877602
0.0925792
0.0833937
0.0848869
0.0671267
0.0802263
0.0939593
0.0980317
0.102353
0.106787
0.111335
0.110973
0.110679
0.11043
0.110181
0.114955
0.119774
0.11957
0.119412
0.114344
0.109231
0.119072
0.128846
0.133597
0.133462
0.118439
0.108371
0.103213
0.0980543
0.0978959
0.0977602
0.102692
0.0976923
0.0777602
0.0628281
0.0528507
0.0528507
0.0628507
0.0678507
0.0678733
0.0479864
0.0231674
0.018371
0.0185294
0.0286652
0.0388235
0.0190498
-0.000656106
-0.0103167
-0.0199321
-0.0195249
-0.0191403
-0.00877828
0.00171946
-0.0176471
-0.0370136
-0.0414706
-0.0459729
-0.0254525
-0.0149321
-0.0143891
-0.0188009
-0.0382127
-0.0527149
-0.0573303
-0.0570588
-0.0418552
-0.0266516
-0.0164932
-0.0263348
-0.0511312
-0.0610181
-0.0661538
-0.0614932
-0.0469457
-0.0423982
-0.0478054
-0.0530317
-0.0531222
-0.0532127
-0.0483032
-0.043371
-0.0484163
-0.0534841
-0.0584389
-0.0732353
-0.0930317
-0.0828507
-0.0726244
-0.0623303
-0.0519457
-0.0714706
-0.090905
-0.0903167
-0.0897285
-0.0841403
-0.0785068
-0.0778054
-0.0770814
-0.0763575
-0.0756561
-0.0850452
-0.089457
-0.0688461
-0.0582353
-0.0726244
-0.0819909
-0.0813575
-0.0807692
-0.0753167
-0.0702036
-0.0653167
-0.0603167
-0.0654977
-0.0714027
-0.0680769
-0.0652036
-0.0679186
-0.0664027
-0.0597285
-0.0615837
-0.0719457
-0.0808145
-0.0873756
-0.0659502
-0.0333032
-0.0207692
-0.0131448
-0.0203394
-0.0381448
-0.0320362
-0.0267647
0.00780543
0.0415158
0.024276
0.00662896
0.0136199
0.0204299
0.0171041
0.0135747
0.0298643
0.0411312
0.0274208
0.0136878
-0.00018099
-0.00418553
0.0166968
0.0325566
0.0384389
0.0394344
0.0255204
0.0165159
0.0123982
0.0231901
0.0489141
0.054638
0.045362
0.0360407
0.0266742
0.0172851
0.00782804
0.0232353
0.058552
0.043914
0.0192986
0.0195475
0.0296832
0.0347737
0.0297963
0.0398416
0.0548868
0.0549321
0.0549547
0.0598642
0.0646154
0.0892308
0.113756
0.118281
0.122873
0.117557
0.112195
0.126674
0.161041
0.225317
0.26957
0.273869
0.268235
0.237624
0.216968
0.21129
0.205566
0.209819
0.21414
0.218484
0.187851
0.12724
0.106561
0.115792
0.110045
0.0943439
0.0737557
0.0532579
0.0276697
-0.00305431
-0.0138914
-0.014819
-0.0257919
-0.0417421
-0.0476018
-0.0534163
-0.0542082
-0.0399774
-0.0358145
-0.0316742
-0.0273982
-0.0230091
-0.0236199
-0.0242308
-0.0147964
0.00963799
0.0940498
0.163484
0.147986
0.182534
0.347059
0.501561
0.616086
0.760588
0.935045
0.90457
0.584186
0.258824
-0.0715611
-0.582081
-1.24274
-1.51337
-1.48394
-1.49943
-1.53989
-1.40543
-1.17113
-0.991923
-0.827783
-0.628529
-0.414163
-0.324864
-0.260633
-0.231403
-0.207195
-0.168077
-0.129027
-0.124932
-0.125814
-0.126765
-0.117783
-0.103891
-0.0900905
-0.086267
-0.0823982
-0.103484
-0.124548
-0.125656
-0.126833
-0.1131
-0.0993439
-0.0904977
-0.0815837
-0.0927828
-0.103824
-0.109887
-0.106063
-0.0773529
-0.0585068
-0.0594344
-0.0554072
-0.0464706
-0.0425339
-0.038552
-0.0295701
-0.0156335
-0.00658371
-0.0073982
-0.00819004
-0.00395928
0.0152715
0.0395023
0.0588462
0.0733258
0.0728959
0.0625339
0.0621493
0.0717421
0.0864027
0.101199
0.111244
0.116516
0.1069
0.0973077
0.102579
0.107738
0.117828
0.127873
0.117964
0.108122
0.0983484
0.0884615
0.0882806
0.0879864
0.0927376
0.0924887
0.0771946
0.06681
0.0663348
0.0757014
0.0998869
0.119005
0.1331
0.132217
0.111335
0.100452
0.0945475
0.088552
0.0925566
0.0915837
0.0806335
0.0647511
0.0489367
0.0381222
0.0273077
0.0264932
0.0357466
0.0354072
0.0254073
0.0203394
0.0204299
0.0212444
0.0227149
0.0346606
0.0472624
0.0407014
0.0340272
0.030905
0.0262896
0.0451358
0.0616516
0.0651584
0.0674887
0.0500453
0.0325565
0.0299095
0.0328054
0.0466289
0.0562669
0.0566516
0.0580317
0.0504751
0.0433032
0.0464027
0.0546154
0.0679186
0.076448
0.0802036
0.0839819
0.0827602
0.0815385
0.085362
0.0992081
0.1131
0.117104
0.111199
0.105181
0.0990271
0.10276
0.116448
0.120204
0.124072
0.113077
0.127172
0.0812443
0.0752489
0.0891403
0.103032
0.0871041
0.0712896
0.0654751
0.0597059
0.0590271
0.0583484
0.0626244
0.0669231
0.0513122
0.0357692
0.0302262
0.0245249
0.028733
0.0329638
0.0322398
0.0266516
0.0111765
0.000678722
9.04836e-05
-0.000678748
-0.00158372
0.00237556
0.011267
0.00520361
-0.0157919
-0.0266516
-0.0274434
-0.0232806
-0.0141403
-0.00995476
-0.0156787
-0.0263348
-0.0369005
-0.0423756
-0.0378281
-0.0333032
-0.033733
-0.0390272
-0.0442308
-0.0444344
-0.0445701
-0.0345701
-0.0244796
-0.0192986
-0.0139593
-0.0283937
-0.0428054
-0.0473303
-0.0469683
-0.0266968
-0.0114706
-0.0112443
-0.0109955
-0.0207466
-0.0306108
-0.0305882
-0.030724
-0.0210633
-0.0117873
-0.0178054
-0.0237783
-0.0249095
-0.0268778
-0.0246154
-0.0180317
-0.0121719
-0.0171041
-0.0317647
-0.0392986
-0.0397964
-0.0333937
-0.0197738
-0.00843892
0.00389141
0.000429876
-0.0134163
-0.0123982
-0.0118778
0.00794119
0.0418552
0.0447738
0.0470136
0.0286878
0.0100226
0.0160634
0.0218778
0.027534
0.0331901
0.0238914
0.0146154
0.0153394
0.0160407
0.0166968
0.0173077
0.0278733
0.0335521
0.0143439
0.000135751
0.00588236
0.0165385
0.0421041
0.0526697
0.0532805
0.0439819
0.0247738
0.0154751
0.0111991
0.0166742
0.0370815
0.042534
0.0330317
0.0285068
0.0289593
0.0244118
0.0148416
0.0201584
0.0354299
0.0407014
0.0359729
0.0311991
0.0313575
0.066448
0.091448
0.10638
0.12129
0.111222
0.101131
0.105928
0.115588
0.155158
0.194706
0.239231
0.268756
0.268348
0.257941
0.217443
0.191855
0.206176
0.21552
0.21491
0.204367
0.178846
0.148326
0.117805
0.102195
0.106538
0.0959502
0.0704072
0.0498643
0.0342987
0.00866517
-0.0220362
-0.0327602
-0.0284841
-0.0441629
-0.0797964
-0.0854751
-0.0811991
-0.0669683
-0.0527602
-0.0484615
-0.0440724
-0.0496154
-0.0600679
-0.0504977
-0.0409955
-0.0165611
0.0178733
0.102398
0.177014
0.166652
0.191335
0.371086
0.540815
0.690498
0.850204
1.03498
0.984774
0.504525
0.0442308
-0.381086
-0.876425
-1.45676
-1.65704
-1.47224
-1.37749
-1.35783
-1.25828
-1.09885
-0.889367
-0.649774
-0.485136
-0.355453
-0.275905
-0.216516
-0.172172
-0.132851
-0.123507
-0.11914
-0.114796
-0.110475
-0.101176
-0.0919231
-0.0827375
-0.0685747
-0.079276
-0.0899321
-0.0856561
-0.0814479
-0.0672624
-0.0530543
-0.0487556
-0.0443665
-0.0598869
-0.0754298
-0.0660407
-0.0567194
-0.0474887
-0.0382353
-0.0338235
-0.0293213
-0.0397964
-0.0502489
