ekg
0
-0.0133333
-0.017
-0.00999999
-0.0105556
-0.0186363
-0.0273077
-0.0153333
-0.00441179
-0.00394738
-0.00357142
-0.00282606
-0.00279999
-0.00833333
-0.0137931
-0.00935486
-0.00545454
-0.00685716
-0.00837836
-0.010641
-0.0132927
-0.0217442
-0.0258889
-0.0255319
-0.0256122
-0.0259804
-0.0313208
-0.0364546
-0.0410526
-0.0450847
-0.042459
-0.0380953
-0.0319231
-0.0240299
-0.0196377
-0.0142253
0.00184932
0.0181333
0.0294156
0.0408861
0.0574074
0.0736747
0.095
0.111207
0.127303
0.143516
0.159731
0.175737
0.191649
0.207525
0.218515
0.229369
0.240286
0.251215
0.251972
0.252793
0.263496
0.269261
0.255128
0.240756
0.221322
0.20187
0.1824
0.157874
0.133256
0.10874
0.0842105
0.0596296
0.0399635
0.0253957
0.0058156
-0.00377622
-0.0134138
-0.0181292
-0.0177852
-0.0175497
-0.0223529
-0.0272258
-0.0320382
-0.0369812
-0.0320186
-0.0270245
-0.0270606
-0.0272455
-0.0372485
-0.032076
-0.0272254
-0.028
-0.0288418
-0.0348045
-0.0410221
-0.0418579
-0.0422432
-0.0375401
-0.032963
-0.0332461
-0.0332642
-0.0331538
-0.0330203
-0.0379648
-0.0428607
-0.0378572
-0.0330732
-0.0370048
-0.0361962
-0.0284597
-0.0298357
-0.0439535
-0.0676498
-0.101324
-0.126991
-0.127172
-0.12457
-0.13
-0.135317
-0.140588
-0.141041
-0.131584
-0.126923
-0.127059
-0.127059
-0.126946
-0.126765
-0.126539
-0.126312
-0.126086
-0.120837
-0.115566
-0.120294
-0.125023
-0.124729
-0.124412
-0.124118
-0.123846
-0.118575
-0.113281
-0.117964
-0.12267
-0.122398
-0.122127
-0.121833
-0.121561
-0.121267
-0.12095
-0.115611
-0.110272
-0.114932
-0.119548
-0.114118
-0.10871
-0.108326
-0.107896
-0.102421
-0.0969005
-0.101357
-0.105792
-0.100204
-0.0945928
-0.0889593
-0.0833032
-0.0826245
-0.0819684
-0.0863123
-0.0856788
-0.0750905
-0.0696381
-0.0642534
-0.0738688
-0.0885295
-0.0933259
-0.098258
-0.0783485
-0.0585973
-0.0290046
0.000452429
-0.00520367
-0.0109955
-0.00194576
0.00699089
0.0208823
0.0297963
0.00371037
-0.0222851
-0.0432127
-0.0590498
-0.0597738
-0.0604073
-0.0509729
-0.0464706
-0.0569005
-0.0673077
-0.0826471
-0.092896
-0.098077
-0.103235
-0.103416
-0.103575
-0.0987104
-0.0938236
-0.098914
-0.10405
-0.0992308
-0.0844118
-0.0695928
-0.0697285
-0.079819
-0.32491
-0.585
-0.815068
-1.04511
-0.785181
-0.480271
0.559638
1.57455
2.32443
2.9793
3.07416
3.13403
3.02891
2.71382
1.79369
0.948529
0.278439
-0.171606
-0.196629
-0.206674
-0.171742
-0.156833
-0.1869
-0.216923
-0.241923
-0.261923
-0.271923
-0.276968
-0.277059
-0.277172
-0.272308
-0.267376
-0.262376
-0.257398
-0.257443
-0.257489
-0.252534
-0.242624
-0.23276
-0.227805
-0.222805
-0.212828
-0.202873
-0.197941
-0.198054
-0.183213
-0.178394
-0.173552
-0.168688
-0.163778
-0.158823
-0.153914
-0.14905
-0.134185
-0.119321
-0.114457
-0.109593
-0.0996832
-0.0897511
-0.079819
-0.0699774
-0.0600905
-0.050181
-0.0402488
-0.0302941
-0.0153393
-0.00536197
0.0096154
0.0295249
0.0594118
0.0743213
0.0842534
0.0991629
0.114027
0.128846
0.14362
0.158484
0.173439
0.178529
0.178756
0.183937
0.194072
0.194276
0.184548
0.164887
0.145272
0.115543
0.0907014
0.0657466
0.0407014
0.0206561
0.000610858
-0.0194118
-0.0394344
-0.0494796
-0.0595475
-0.0746606
-0.089819
-0.0950453
-0.100317
-0.100611
-0.100882
-0.106086
-0.11129
-0.106538
-0.10181
-0.102059
-0.102308
-0.107579
-0.112986
-0.113552
-0.115181
-0.122941
-0.131787
-0.136742
-0.140679
-0.138281
-0.131018
-0.124005
-0.113484
-0.0999321
-0.0859955
-0.0718552
-0.0582352
-0.0410181
-0.0328507
-0.0384163
-0.0419683
-0.0525339
-0.0532353
-0.0540045
-0.0495927
-0.0450905
-0.0507466
-0.0565611
-0.057466
-0.0584389
-0.0494796
-0.0406561
-0.0369457
-0.0332126
-0.0443891
-0.0542533
-0.0527827
-0.0502035
-0.0466515
-0.0445474
-0.0341628
-0.0280542
-0.0510633
-0.0675112
-0.0817873
-0.0964705
-0.10638
-0.110814
-0.113937
-0.118642
-0.129909
-0.137624
-0.143009
-0.147919
-0.142692
-0.13776
-0.132919
-0.127851
-0.127579
-0.127195
-0.131742
-0.131244
-0.135701
-0.120136
-0.124547
-0.123891
-0.12319
-0.122489
-0.121765
-0.125995
-0.130204
-0.114344
-0.0983936
-0.0973077
-0.0961764
-0.100045
-0.103869
-0.0976244
-0.0913574
-0.0900678
-0.0887782
-0.0874887
-0.0861991
-0.0799321
-0.0736877
-0.0774434
-0.0812443
-0.0801357
-0.0791176
-0.07819
-0.0774208
-0.0718099
-0.0664027
-0.0661764
-0.0660633
-0.0610859
-0.0562669
-0.0616289
-0.0671493
-0.0727828
-0.0735068
-0.0643439
-0.0602488
-0.0562217
-0.0622624
-0.073371
-0.0695475
-0.0658144
-0.0671267
-0.0684389
-0.0547737
-0.0361538
-0.00760178
0.015905
0.00438917
-0.00717192
0.00119912
0.0145702
0.0480091
0.0565385
0.0201584
-0.0161312
-0.0423529
-0.0584841
-0.0495249
-0.0354298
-0.0261991
-0.0319231
-0.0575792
-0.0781674
-0.0887104
-0.0941855
-0.089638
-0.0850679
-0.0904751
-0.0958145
-0.091086
-0.0863801
-0.0916968
-0.0970362
-0.0923982
-0.0677149
-0.0429638
-0.0481448
-0.0632805
-0.348484
-0.638756
-0.879005
-1.09423
-0.77448
-0.389729
0.565113
1.48502
2.24984
2.87962
2.97939
3.03916
2.93896
2.6488
1.90871
1.15367
0.373643
-0.136448
-0.236606
-0.261787
-0.191946
-0.167014
-0.201991
-0.231968
-0.251968
-0.261946
-0.261923
-0.261923
-0.256968
-0.251946
-0.256946
-0.256923
-0.246878
-0.24181
-0.236719
-0.231697
-0.231742
-0.231742
-0.231697
-0.226629
-0.216538
-0.211493
-0.211493
-0.201471
-0.191403
-0.17629
-0.161154
-0.156041
-0.15095
-0.140837
-0.130701
-0.120588
-0.110498
-0.110385
-0.110249
-0.105136
-0.0950453
-0.0749321
-0.0598416
-0.0547511
-0.0446606
-0.0295475
-0.00943439
0.0156335
0.0306787
0.0357014
0.045724
0.0557919
0.0658824
0.0809955
0.096086
0.106131
0.121176
0.136222
0.141267
0.146312
0.156448
0.166697
0.172059
0.177511
0.187919
0.198281
0.193665
0.179095
0.159706
0.145385
0.130905
0.116267
0.0965158
0.0766968
0.0469457
0.0172625
0.0075792
-0.00226244
-0.0173529
-0.0375566
-0.0578054
-0.0731222
-0.0784841
-0.0838914
-0.0943665
-0.104728
-0.104932
-0.105068
-0.100181
-0.0953167
-0.0954298
-0.10043
-0.110317
-0.115181
-0.110068
-0.106199
-0.113597
-0.122081
-0.121538
-0.124525
-0.135747
-0.137647
-0.125385
-0.109661
-0.0961086
-0.0821493
-0.0679638
-0.0542986
-0.0469683
-0.0429412
-0.0467647
-0.0332353
-0.0206561
-0.0169457
-0.0138009
-0.0265837
-0.0427828
-0.0433032
-0.0479412
-0.0666064
-0.086448
-0.0970362
-0.107172
-0.121697
-0.132783
-0.145362
-0.154299
-0.159751
-0.164751
-0.154344
-0.144186
-0.139276
-0.134299
-0.139231
-0.144027
-0.138688
-0.133303
-0.132896
-0.137443
-0.146946
-0.15138
-0.145747
-0.140113
-0.139502
-0.138914
-0.138326
-0.13767
-0.141946
-0.146244
-0.140588
-0.134955
-0.134299
-0.123575
-0.122805
-0.122014
-0.121222
-0.11543
-0.10957
-0.10862
-0.107624
-0.106629
-0.105633
-0.104638
-0.10362
-0.102557
-0.101471
-0.0953167
-0.0892307
-0.0881221
-0.0869909
-0.0908371
-0.0947058
-0.0885973
-0.0825113
-0.0814479
-0.0804072
-0.0743891
-0.0685068
-0.0727602
-0.0771719
-0.0767421
-0.0764479
-0.0762669
-0.0762217
-0.0813122
-0.0815837
-0.0720362
-0.0425565
-0.0131674
-0.00889136
-0.00972847
-0.000678711
0.0133032
0.0273303
0.0364254
0.00556564
-0.0252262
-0.035905
-0.0464706
-0.046923
-0.0472398
-0.0473981
-0.047466
-0.057466
-0.0674434
-0.0773529
-0.0871945
-0.0870135
-0.0868099
-0.0915611
-0.0963122
-0.0961086
-0.0959276
-0.0957239
-0.0904751
-0.0802036
-0.0699321
-0.0546606
-0.0493665
-0.0590724
-0.183824
-0.378643
-0.678416
-1.02814
-0.927873
-0.652602
0.127579
1.04767
1.92781
2.79799
3.04812
3.21321
3.11335
2.98353
2.22871
1.44889
0.64405
-0.115814
-0.210701
-0.295611
-0.235475
-0.180271
-0.195
-0.214706
-0.23948
-0.259299
-0.264072
-0.268801
-0.268529
-0.268281
-0.268077
-0.267896
-0.262692
-0.252489
-0.237308
-0.227104
-0.231878
-0.236652
-0.231448
-0.221267
-0.211063
-0.20586
-0.200679
-0.19543
-0.195158
-0.184887
-0.169615
-0.164367
-0.15914
-0.153891
-0.14862
-0.138348
-0.128077
-0.122805
-0.117534
-0.107262
-0.111991
-0.0817195
-0.071448
-0.0711765
-0.070905
-0.0556561
-0.0404299
-0.0302036
-0.0199774
-0.00475115
0.0104751
0.035724
0.0509955
0.066267
0.0865385
0.10181
0.112014
0.122195
0.132398
0.142602
0.152805
0.158054
0.168439
0.178959
0.18448
0.189977
0.19052
0.176131
0.15681
0.137534
0.113122
0.0885747
0.0639367
0.0442081
0.0195023
-0.015181
-0.0398416
-0.0644796
-0.0741629
-0.0838914
-0.0936878
-0.103597
-0.113597
-0.118688
-0.118891
-0.11914
-0.119344
-0.119638
-0.125091
-0.13052
-0.130837
-0.130973
-0.135905
-0.140792
-0.135701
-0.131176
-0.132579
-0.135339
-0.139661
-0.143462
-0.14095
-0.134887
-0.134638
-0.130407
-0.11224
-0.0929411
-0.0828959
-0.0732806
-0.0592308
-0.0486199
-0.0415611
-0.0381901
-0.0383032
-0.0388688
-0.0397512
-0.0450679
-0.054276
-0.0519684
-0.0388914
-0.0307918
-0.0341176
-0.0400226
-0.0448416
-0.0544344
-0.0670362
-0.0816516
-0.0968779
-0.107036
-0.115837
-0.132783
-0.145656
-0.148937
-0.150272
-0.150158
-0.150068
-0.145226
-0.140362
-0.145407
-0.150272
-0.149955
-0.14957
-0.139095
-0.128597
-0.133077
-0.137534
-0.136968
-0.136357
-0.135701
-0.135023
-0.134321
-0.133643
-0.128054
-0.12233
-0.121561
-0.120814
-0.12009
-0.119344
-0.113575
-0.107805
-0.107036
-0.106222
-0.105362
-0.104412
-0.108416
-0.112376
-0.111267
-0.0951131
-0.0889366
-0.0927375
-0.0965158
-0.0952715
-0.0940498
-0.0928733
-0.0916742
-0.0854525
-0.079276
-0.0781448
-0.0770588
-0.076086
-0.0752715
-0.0745023
-0.0740724
-0.0638461
-0.0537783
-0.0588462
-0.0641176
-0.069638
-0.075362
-0.0762896
-0.0773303
-0.0734842
-0.0597511
-0.0411312
-0.0226018
-0.00414026
-0.000678733
-0.0122172
0.00626698
0.0397964
0.0383937
0.0220815
-0.00911763
-0.0402036
-0.0462217
-0.0521719
-0.053009
-0.043733
-0.0443665
-0.0499095
-0.065362
-0.080724
-0.0859955
-0.0912217
-0.0914706
-0.0917194
-0.0919004
-0.0920362
-0.0971719
-0.102308
-0.097466
-0.092647
-0.082828
-0.073009
-0.06819
-0.0833484
-0.148484
-0.338665
-0.688914
-0.879186
-0.909434
-0.614638
-0.0498416
0.809932
1.86471
2.52948
2.97425
3.10903
3.0988
2.80862
2.41348
1.52333
0.503145
0.0679864
-0.247172
-0.232376
-0.167579
-0.167715
-0.182805
-0.217919
-0.258054
-0.26319
-0.268348
-0.268507
-0.268643
-0.268824
-0.26905
-0.269253
-0.269412
-0.269525
-0.269638
-0.254796
-0.239977
-0.240136
-0.240249
-0.235294
-0.230339
-0.220385
-0.210498
-0.200656
-0.190814
-0.185995
-0.181176
-0.176357
-0.171538
-0.166742
-0.161946
-0.157127
-0.15224
-0.14733
-0.142466
-0.137647
-0.122805
-0.107941
-0.103122
-0.0983484
-0.0835294
-0.0686651
-0.0588235
-0.0490045
-0.0342081
-0.0444344
0.00533938
0.0251131
0.0349548
0.0448643
0.0647511
0.0846154
0.104457
0.124253
0.139005
0.153733
0.168507
0.183371
0.193326
0.203371
0.203507
0.203597
0.19862
0.188756
0.169072
0.144412
0.119706
0.094819
0.0747511
0.054638
0.0344796
0.0143439
-0.00572399
-0.0257919
-0.0458824
-0.0660407
-0.081267
-0.0864932
-0.0867647
-0.092172
-0.10267
-0.108235
-0.113824
-0.119434
-0.115113
-0.110905
-0.111719
-0.112511
-0.113145
-0.118552
-0.123959
-0.119638
-0.116154
-0.114276
-0.113281
-0.122443
-0.130249
-0.13043
-0.126674
-0.1181
-0.106493
-0.0928959
-0.0787104
-0.0695701
-0.0617421
-0.0507014
-0.0436652
-0.0462218
-0.0457919
-0.0368326
-0.0378734
-0.0486426
-0.0541856
-0.0542082
-0.0527829
-0.0502716
-0.0422851
-0.0297738
-0.024525
-0.0225566
-0.0254073
-0.0420589
-0.0663123
-0.0917195
-0.10681
-0.111109
-0.119186
-0.129072
-0.139457
-0.156923
-0.157353
-0.157285
-0.142443
-0.127738
-0.123145
-0.118462
-0.11862
-0.118643
-0.118552
-0.118416
-0.123258
-0.128077
-0.127873
-0.127647
-0.122443
-0.11724
-0.122036
-0.126742
-0.116357
-0.105973
-0.110588
-0.115226
-0.109887
-0.104502
-0.0990724
-0.0935746
-0.0931221
-0.0924887
-0.0968099
-0.101109
-0.100385
-0.0996153
-0.0988009
-0.0929185
-0.0819683
-0.0759502
-0.0798868
-0.0838235
-0.0827602
-0.0817194
-0.0807013
-0.0647285
-0.0588009
-0.0629412
-0.0671493
-0.0714706
-0.0759728
-0.0656561
-0.0555203
-0.050543
-0.045724
-0.0510633
-0.0565837
-0.0572851
-0.0581448
-0.0590498
-0.0602036
-0.066448
-0.0627602
-0.0341176
-0.0155203
-0.00199093
0.00142536
-0.000271462
0.00803171
0.0363801
0.044819
0.0483485
0.0219684
-0.0243212
-0.0405203
-0.0466289
-0.0526471
-0.048552
-0.0442986
-0.0398869
-0.0453846
-0.0608145
-0.0711991
-0.0815385
-0.0868326
-0.0820814
-0.0772851
-0.0774661
-0.077647
-0.077828
-0.083009
-0.08819
-0.078371
-0.0685294
-0.0536425
-0.0487783
-0.0990045
-0.229276
-0.584525
-0.864751
-0.974955
-0.875091
-0.375158
0.349796
1.41477
2.25473
2.82962
3.0845
3.01439
2.8393
2.58428
1.89428
0.899276
0.254231
-0.190905
-0.296063
-0.236244
-0.196335
-0.161335
-0.17129
-0.201199
-0.226109
-0.246018
-0.250928
-0.250837
-0.250769
-0.250724
-0.250656
-0.240588
-0.235543
-0.230498
-0.235475
-0.240475
-0.235453
-0.230407
-0.210362
-0.190317
-0.190272
-0.190226
-0.190158
-0.190068
-0.179955
-0.169819
-0.164751
-0.159706
-0.149661
-0.139638
-0.134638
-0.129615
-0.129548
-0.124412
-0.109253
-0.0941629
-0.0791176
-0.064095
-0.054095
-0.0440045
-0.0338688
-0.0287557
-0.0236652
-0.00859729
0.00644797
0.0215158
0.0366063
0.0517421
0.0669231
0.0870815
0.107217
0.12233
0.112421
0.147511
0.152602
0.162692
0.172828
0.1781
0.183394
0.20362
0.223778
0.218846
0.213959
0.199253
0.17948
0.15957
0.139615
0.114367
0.0893439
0.0743665
0.0544344
0.0245928
-0.00524885
-0.0300905
-0.05
-0.0600226
-0.0700452
-0.0800679
-0.0900679
-0.1
-0.104887
-0.109751
-0.114615
-0.11448
-0.114367
-0.119276
-0.124163
-0.124027
-0.118824
-0.10862
-0.10371
-0.109434
-0.116765
-0.124729
-0.137127
-0.142783
-0.139751
-0.133824
-0.114231
-0.0939593
-0.0948643
-0.0986878
-0.101968
-0.107534
-0.110249
-0.115724
-0.120136
-0.124774
-0.128597
-0.129072
-0.13552
-0.140769
-0.144932
-0.14948
-0.14948
-0.149593
-0.149774
-0.149819
-0.149729
-0.149593
-0.154412
-0.154253
-0.144072
-0.138869
-0.138643
-0.138462
-0.133326
-0.128167
-0.132986
-0.137738
-0.132421
-0.127127
-0.126855
-0.126606
-0.13138
-0.136131
-0.12586
-0.125588
-0.125339
-0.120091
-0.114819
-0.114548
-0.114276
-0.124005
-0.133756
-0.123507
-0.113213
-0.107873
-0.102511
-0.107149
-0.111765
-0.11138
-0.111018
-0.110679
-0.110317
-0.104932
-0.0995475
-0.104163
-0.108756
-0.108326
-0.107851
-0.102353
-0.0968779
-0.0965159
-0.0960408
-0.100611
-0.105226
-0.104864
-0.0895249
-0.0592082
-0.0388462
-0.0184389
-0.0181222
-0.0278507
-0.00264708
0.0324887
0.0175792
0.0376244
-0.0273982
-0.0424435
-0.0574435
-0.0723982
-0.067353
-0.0623303
-0.0522851
-0.0422398
-0.0521493
-0.0620362
-0.0719005
-0.0817647
-0.086629
-0.0914706
-0.0913575
-0.0911765
-0.0909955
-0.0908145
-0.0856561
-0.0804978
-0.0803168
-0.0751358
-0.0599321
-0.0497059
-0.0495023
-0.189321
-0.424163
-0.709027
-1.02389
-0.938778
-0.683688
0.00642532
0.841561
1.7417
2.65683
2.98695
3.20704
3.1271
3.00215
2.40724
1.78238
0.937511
0.107647
-0.117217
-0.322081
-0.246968
-0.176878
-0.176787
-0.181697
-0.216606
-0.246516
-0.256403
-0.266267
-0.261154
-0.256041
-0.255905
-0.255769
-0.250634
-0.245498
-0.245339
-0.245158
-0.24
-0.234887
-0.229774
-0.224638
-0.219502
-0.214367
-0.209253
-0.204163
-0.199027
-0.188914
-0.178824
-0.173688
-0.168507
-0.163326
-0.163145
-0.153009
-0.137919
-0.132783
-0.127602
-0.117421
-0.10724
-0.102081
-0.0919457
-0.08181
-0.0716742
-0.0615611
-0.0514706
-0.0363575
-0.0212217
-0.0111086
-0.0010181
0.0090724
0.0241629
0.044276
0.0594118
0.0695475
0.0846833
0.104842
0.119955
0.130045
0.140136
0.150294
0.160475
0.175679
0.180814
0.180837
0.175905
0.166063
0.156222
0.146561
0.126697
0.101833
0.0719231
0.0419683
0.0170814
-0.0127376
-0.0325339
-0.0523077
-0.0671493
-0.0820362
-0.0919231
-0.101833
-0.111742
-0.106652
-0.126538
-0.126403
-0.126267
-0.126131
-0.130973
-0.135792
-0.130634
-0.125498
-0.125339
-0.125181
-0.125068
-0.12543
-0.131652
-0.137805
-0.136719
-0.132014
-0.125747
-0.117941
-0.123258
-0.129095
-0.125181
-0.122715
-0.116697
-0.111312
-0.116538
-0.123688
-0.121832
-0.119321
-0.126765
-0.132737
-0.133099
-0.133258
-0.13319
-0.13319
-0.133213
-0.133235
-0.13828
-0.14328
-0.14328
-0.143258
-0.138213
-0.133167
-0.133122
-0.133032
-0.132896
-0.132783
-0.132715
-0.12767
-0.122624
-0.122557
-0.122466
-0.122376
-0.122308
-0.122262
-0.122217
-0.117172
-0.112127
-0.117059
-0.121991
-0.121923
-0.121878
-0.121878
-0.121878
-0.121855
-0.12181
-0.116742
-0.111652
-0.111538
-0.111448
-0.111357
-0.111267
-0.106176
-0.101086
-0.100995
-0.10086
-0.100701
-0.100566
-0.100475
-0.10043
-0.100385
-0.100317
-0.100249
-0.100181
-0.11009
-0.105
-0.0999095
-0.0848416
-0.0697964
-0.0547737
-0.0397285
-0.024638
-0.00957011
0.00545252
0.0204073
0.00527154
-0.0149321
-0.0351583
-0.050362
-0.0555429
-0.0607692
-0.0710407
-0.0813348
-0.0766742
-0.0719909
-0.067285
-0.0675565
-0.0778054
-0.083009
-0.0881674
-0.0933484
-0.0984841
-0.103665
-0.103801
-0.103937
-0.104072
-0.104231
-0.0994117
-0.0895701
-0.0797058
-0.0698416
-0.0599547
-0.0950226
-0.14009
-0.440226
-0.145407
-0.860543
-0.950634
-0.600701
-0.180747
0.834163
1.80403
2.45387
2.99369
3.05355
3.06346
2.89335
2.48824
1.49819
0.65819
0.108167
-0.231923
-0.202014
-0.182104
-0.167195
-0.167285
-0.202376
-0.227489
-0.247647
-0.257828
-0.258009
-0.258145
-0.258213
-0.258258
-0.263303
-0.268371
-0.263462
-0.253552
-0.243643
-0.238733
-0.238824
-0.238914
-0.234005
-0.224095
-0.214186
-0.209299
-0.204434
-0.194525
-0.18957
-0.184661
-0.179796
-0.169932
-0.160068
-0.150226
-0.140407
-0.140566
-0.140701
-0.135837
-0.130973
-0.121109
-0.111244
-0.10138
-0.0915158
-0.081629
-0.0717647
-0.0669457
-0.0571041
-0.0422398
-0.0223982
-0.00257917
0.0122625
0.0271267
0.041991
0.0518552
0.0616968
0.0814706
0.0962444
0.111018
0.12586
0.140769
0.145792
0.150928
0.161086
0.171244
0.181425
0.191629
0.196697
0.191606
0.16638
0.136018
0.115543
0.095
0.0743891
0.0538235
0.0284389
0.00312217
-0.0171719
-0.0374434
-0.0577149
-0.0779864
-0.0832805
-0.0885973
-0.0989593
-0.109367
-0.109729
-0.110068
-0.110385
-0.110679
-0.110928
-0.111086
-0.111154
-0.116199
-0.126222
-0.126425
-0.116855
-0.113688
-0.119231
-0.128054
-0.13233
-0.135
-0.135385
-0.130204
-0.11448
-0.094457
-0.0818099
-0.0700679
-0.0560634
-0.0520362
-0.0587556
-0.0686652
-0.079095
-0.0825113
-0.0973529
-0.111629
-0.123213
-0.131267
-0.13595
-0.132421
-0.127986
-0.128167
-0.128529
-0.139163
-0.149819
-0.15043
-0.150905
-0.146516
-0.14181
-0.142014
-0.142195
-0.137353
-0.132466
-0.132557
-0.132715
-0.132919
-0.1331
-0.128258
-0.123394
-0.128507
-0.133552
-0.128575
-0.123643
-0.123756
-0.123891
-0.119027
-0.114118
-0.119163
-0.124208
-0.119276
-0.114367
-0.11448
-0.114615
-0.114751
-0.114842
-0.114887
-0.104887
-0.0948869
-0.0999548
-0.105091
-0.100272
-0.0954073
-0.100475
-0.105498
-0.105453
-0.105385
-0.100339
-0.0953168
-0.0902715
-0.0852036
-0.0850905
-0.0849548
-0.0947964
-0.104706
-0.0946833
-0.0797285
-0.0698417
-0.0599321
-0.045
-0.0301131
-0.0203167
-0.00561086
0.0139819
0.0234389
0.0277602
0.00701358
-0.0287783
-0.0395928
-0.0404299
-0.0462896
-0.0571493
-0.0630091
-0.0638688
-0.064638
-0.0602941
-0.0558597
-0.0664027
-0.0719231
-0.0773756
-0.0827376
-0.0880091
-0.0982127
-0.108394
-0.103575
-0.0987557
-0.0939367
-0.089095
-0.0792308
-0.0693665
-0.0595249
-0.0497059
-0.0548869
-0.140091
-0.355317
-0.610543
-0.910747
-0.950882
-0.690996
-0.0761086
0.853801
1.71869
2.53853
2.91833
3.0281
3.00294
2.90781
2.33267
1.56753
0.822398
0.0772624
-0.147851
-0.252941
-0.222964
-0.162964
-0.158009
-0.1681
-0.198213
-0.173348
-0.248484
-0.263575
-0.258597
-0.253597
-0.258552
-0.263507
-0.248529
-0.233575
-0.22862
-0.223665
-0.223665
-0.22362
-0.22862
-0.228665
-0.213688
-0.19862
-0.183529
-0.173484
-0.173462
-0.173416
-0.173394
-0.168416
-0.158439
-0.148416
-0.133371
-0.123303
-0.123213
-0.123145
-0.1231
-0.113009
-0.0928733
-0.0677602
-0.0426697
-0.0326018
-0.0275566
-0.0225113
-0.0224661
-0.0124208
0.00260181
0.0176018
0.0325792
0.0425339
0.0474661
0.057353
0.0671946
0.0869457
0.106561
0.131109
0.155724
0.160452
0.165317
0.180339
0.195475
0.190701
0.186018
0.196425
0.2069
0.202421
0.192873
0.17319
0.153507
0.138869
0.119208
0.0995023
0.0797964
0.0551131
0.0254525
-0.00416288
-0.018733
-0.0233258
-0.0380317
-0.0578054
-0.077647
-0.0925565
-0.0975565
-0.0975339
-0.10224
-0.110928
-0.112828
-0.103801
-0.0945475
-0.091923
-0.0922398
-0.096742
-0.101176
-0.108733
-0.124027
-0.140543
-0.167828
-0.193733
-0.211629
-0.222896
-0.220656
-0.212692
-0.19457
-0.174819
-0.164819
-0.15509
-0.140973
-0.129321
-0.120995
-0.115995
-0.114321
-0.11362
-0.128348
-0.132964
-0.13233
-0.131719
-0.126199
-0.120814
-0.115317
-0.120181
-0.135136
-0.14009
-0.145045
-0.140045
-0.12509
-0.12009
-0.120045
-0.12
-0.124955
-0.129932
-0.124955
-0.120045
-0.120158
-0.135226
-0.140249
-0.130226
-0.120204
-0.120226
-0.120271
-0.115339
-0.11043
-0.11552
-0.120588
-0.125611
-0.130656
-0.125769
-0.120928
-0.121063
-0.121312
-0.121538
-0.121697
-0.111787
-0.101878
-0.106991
-0.112149
-0.112376
-0.107624
-0.0978733
-0.0880769
-0.0782353
-0.0683937
-0.0585747
-0.0487556
-0.0389366
-0.0190045
0.00604073
0.00624436
-0.00837102
-0.0278959
-0.0473303
-0.0566289
-0.0657692
-0.0698416
-0.0688461
-0.0727149
-0.0764253
-0.0800452
-0.0836425
-0.092285
-0.100928
-0.0995475
-0.0982126
-0.101923
-0.105701
-0.109593
-0.11362
-0.11776
-0.121946
-0.101176
-0.0904751
-0.0798416
-0.0692986
-0.0588235
-0.0734163
-0.128054
-0.347715
-0.737421
-0.937127
-0.976787
-0.606403
0.0540046
0.989389
2.07475
2.68014
3.07054
3.08595
2.95636
2.61174
2.2071
1.35744
0.40776
0.00807695
-0.311584
-0.291176
-0.235724
-0.200294
-0.159887
-0.18948
-0.219095
-0.228756
-0.238439
-0.2481
-0.257738
-0.252443
-0.247172
-0.2369
-0.226629
-0.226357
-0.226086
-0.220769
-0.215452
-0.210204
-0.204977
-0.199774
-0.19457
-0.189321
-0.18405
-0.178778
-0.173484
-0.16819
-0.157919
-0.147624
-0.14233
-0.137059
-0.131833
-0.126606
-0.116357
-0.106086
-0.100815
-0.095543
-0.0852715
-0.075
-0.0697285
-0.0644797
-0.0493213
-0.0342308
-0.0241177
-0.0290498
0.00590495
0.0207918
0.0306335
0.0404525
0.0502941
0.0601584
0.0750226
0.0899547
0.104977
0.120045
0.125181
0.130407
0.140724
0.151109
0.161538
0.171991
0.167511
0.163122
0.153846
0.139615
0.125362
0.111063
0.0967194
0.0772851
0.0577602
0.0382127
0.0186651
-0.00590498
-0.0304978
-0.0451584
-0.0549095
-0.0747738
-0.0945475
-0.103846
-0.112172
-0.113937
-0.110045
-0.106357
-0.109389
-0.115317
-0.115339
-0.125113
-0.142579
-0.156606
-0.170928
-0.174932
-0.177353
-0.187896
-0.195475
-0.205385
-0.214434
-0.222398
-0.228801
-0.222557
-0.212104
-0.201719
-0.188439
-0.173258
-0.157941
-0.148145
-0.139887
-0.128439
-0.120882
-0.11767
-0.121267
-0.131312
-0.13629
-0.136041
-0.135656
-0.135113
-0.129751
-0.11957
-0.114434
-0.119344
-0.124321
-0.124367
-0.124412
-0.12448
-0.124547
-0.119593
-0.114661
-0.119751
-0.124819
-0.124887
-0.124977
-0.125068
-0.120158
-0.115272
-0.115407
-0.115543
-0.120679
-0.12586
-0.126086
-0.126335
-0.121606
-0.1169
-0.122217
-0.127557
-0.122941
-0.118371
-0.118846
-0.119367
-0.114932
-0.110498
-0.116063
-0.116674
-0.10233
-0.0929864
-0.0936426
-0.0793213
-0.0550905
-0.040724
-0.0313122
-0.0268778
-0.0224208
-0.0179186
-0.0233711
-0.0437104
-0.0638914
-0.0688914
-0.0736878
-0.0833258
-0.0928281
-0.0971493
-0.0963575
-0.0904525
-0.0944118
-0.0933032
-0.0921267
-0.100928
-0.109774
-0.118665
-0.127602
-0.116606
-0.105701
-0.104864
-0.104095
-0.103416
-0.102851
-0.0923982
-0.0770362
-0.0617421
-0.0915159
-0.196358
-0.411244
-0.761177
-0.911154
-0.871154
-0.496154
0.138823
1.0388
2.10882
2.71387
3.06891
3.14394
3.08394
2.71898
2.24907
1.37416
0.394253
0.00434387
-0.275566
-0.250498
-0.175453
-0.170407
-0.175362
-0.210317
-0.240272
-0.255204
-0.270113
-0.275068
-0.280068
-0.270068
-0.260068
-0.260068
-0.260091
-0.255158
-0.250249
-0.245339
-0.24043
-0.230543
-0.220656
-0.220724
-0.220747
-0.215769
-0.210815
-0.20586
-0.195928
-0.186018
-0.181109
-0.176177
-0.171222
-0.17129
-0.16638
-0.156471
-0.151584
-0.14672
-0.13681
-0.126855
-0.121923
-0.117014
-0.102127
-0.0872625
-0.0723983
-0.057534
-0.0476697
-0.0378055
-0.0279412
-0.013077
0.0067873
0.0266516
0.0414932
0.0563122
0.0661539
0.0760181
0.0908824
0.105769
0.120701
0.135656
0.150588
0.165588
0.170747
0.175995
0.18129
0.186538
0.186742
0.186878
0.1769
0.156787
0.131538
0.101199
0.0707692
0.0453167
0.0148643
-0.000520356
-0.0158371
-0.036086
-0.0562896
-0.0764253
-0.0915158
-0.0966968
-0.101968
-0.107308
-0.107692
-0.107964
-0.113122
-0.118235
-0.118326
-0.118416
-0.118507
-0.113575
-0.108597
-0.113552
-0.118643
-0.119208
-0.120747
-0.118891
-0.117805
-0.121629
-0.123665
-0.127692
-0.126403
-0.118891
-0.107964
-0.0860407
-0.0640271
-0.0489593
-0.0401584
-0.0379412
-0.0426923
-0.0595023
-0.0782806
-0.0934163
-0.107919
-0.115633
-0.118982
-0.123462
-0.125407
-0.130679
-0.136041
-0.131516
-0.127104
-0.127715
-0.128122
-0.128371
-0.128552
-0.128688
-0.128778
-0.128824
-0.128846
-0.123846
-0.118824
-0.118778
-0.123733
-0.12871
-0.12871
-0.12871
-0.123688
-0.118643
-0.118597
-0.118552
-0.118507
-0.118462
-0.118416
-0.118371
-0.113326
-0.108281
-0.113213
-0.118122
-0.113009
-0.107919
-0.107851
-0.10776
-0.107647
-0.107489
-0.102285
-0.0970814
-0.101878
-0.106652
-0.10138
-0.0961086
-0.0907919
-0.0854525
-0.0850905
-0.0847285
-0.0893891
-0.0940498
-0.0887104
-0.083371
-0.0780317
-0.0776697
-0.0872851
-0.0919457
-0.0916516
-0.0764253
-0.0612217
-0.0410633
-0.0209728
-0.0109954
-0.00113119
0.0135973
0.0281448
0.0225113
0.0117421
-0.00914026
-0.025
-0.0358371
-0.0516968
-0.0675565
-0.0783937
-0.0691855
-0.0599095
-0.0555656
-0.0561538
-0.0716516
-0.0871041
-0.0975339
-0.102941
-0.103303
-0.103643
-0.0989593
-0.0942307
-0.094457
-0.0946832
-0.0949095
-0.0951357
-0.090362
-0.0705656
-0.0507466
-0.0709049
-0.101041
-0.376222
-0.681448
-0.831674
-0.696923
-0.642195
-0.272466
0.747285
1.73206
2.39686
2.97667
3.02147
3.04124
2.92602
2.60581
1.64568
0.785588
0.19052
-0.209525
-0.204593
-0.194751
-0.17491
-0.175023
-0.210113
-0.235204
-0.250294
-0.260385
-0.265475
-0.270611
-0.270792
-0.27095
-0.266063
-0.261131
-0.261176
-0.256267
-0.246403
-0.241561
-0.241742
-0.236878
-0.226968
-0.222059
-0.217149
-0.21224
-0.212353
-0.207511
-0.197692
-0.192828
-0.192919
-0.188032
-0.183167
-0.173281
-0.163371
-0.153462
-0.143552
-0.138643
-0.133733
-0.123824
-0.113914
-0.10905
-0.104231
-0.0843892
-0.0745249
-0.064638
-0.0547285
-0.044819
-0.0299095
-0.0150226
-0.000181001
0.0146606
0.0295475
0.0394796
0.0494118
0.0642986
0.0791403
0.0989593
0.108846
0.118801
0.133824
0.148914
0.154072
0.159299
0.16957
0.179887
0.185181
0.18043
0.160588
0.140679
0.125747
0.105769
0.0807014
0.0555656
0.0354525
0.015362
-0.0047059
-0.0247738
-0.0348869
-0.0450453
-0.0552489
-0.0654751
-0.0707014
-0.0759502
-0.0812217
-0.0865837
-0.0920815
-0.0975566
-0.0980091
-0.0985973
-0.0992987
-0.0999548
-0.105566
-0.111109
-0.106674
-0.103394
-0.111403
-0.115068
-0.1081
-0.105882
-0.111991
-0.113529
-0.110656
-0.104751
-0.0911991
-0.0773982
-0.0634615
-0.0550453
-0.0530769
-0.0504524
-0.0517194
-0.0556787
-0.0564479
-0.0421719
-0.037828
-0.0434162
-0.0490497
-0.0498868
-0.0508597
-0.051923
-0.0523981
-0.0420588
-0.0302941
-0.0319683
-0.0341629
-0.0371041
-0.0434842
-0.036448
-0.0407466
-0.0492082
-0.0586199
-0.0788914
-0.0987104
-0.112692
-0.123529
-0.131109
-0.130045
-0.121018
-0.116222
-0.120928
-0.125973
-0.12629
-0.126561
-0.126765
-0.126787
-0.126674
-0.126448
-0.126131
-0.125724
-0.120294
-0.114864
-0.109434
-0.104027
-0.10362
-0.103122
-0.102579
-0.102014
-0.101425
-0.100815
-0.100158
-0.0944344
-0.0886426
-0.0928055
-0.0969457
-0.096086
-0.0952263
-0.0893439
-0.083439
-0.0824887
-0.0814706
-0.0753621
-0.0692534
-0.0731449
-0.0770362
-0.0709276
-0.064819
-0.0637104
-0.0626018
-0.0615385
-0.0606335
-0.0648869
-0.069276
-0.0638236
-0.0585294
-0.0533937
-0.0483937
-0.0485294
-0.0487783
-0.0541403
-0.0595702
-0.0601132
-0.0607919
-0.0615611
-0.057353
-0.0481901
-0.0241177
0.0048642
-0.00122177
-0.00735299
0.0215158
0.0503619
0.0591628
0.0679411
0.0316968
0.00542984
-0.0157919
-0.0368778
-0.0428733
-0.0488235
-0.0496833
-0.0504299
-0.041086
-0.0316968
-0.0372625
-0.0427602
-0.0531674
-0.0635294
-0.0638462
-0.0641403
-0.0644344
-0.0647511
-0.0650905
-0.0653846
-0.0706109
-0.0757919
-0.0709729
-0.0611991
-0.0514706
-0.0467195
-0.0419457
-0.182172
-0.367398
-0.687579
-1.03271
-0.917873
-0.748032
0.0168326
-0.738326
1.77149
2.70131
2.91615
3.10604
3.01095
2.83588
2.14586
1.43084
0.630769
-0.024276
-0.189231
-0.28914
-0.209095
-0.149095
-0.154095
-0.164095
-0.194095
-0.214072
-0.229027
-0.238982
-0.253937
-0.253891
-0.243824
-0.233756
-0.223688
-0.218597
-0.218507
-0.218394
-0.213258
-0.208122
-0.202986
-0.197851
-0.197715
-0.197557
-0.192376
-0.18224
-0.172149
-0.162081
-0.152036
-0.141968
-0.131878
-0.13681
-0.146742
-0.131606
-0.116425
-0.111267
-0.106131
-0.0959955
-0.0858597
-0.080724
-0.0755882
-0.0604299
-0.0452715
-0.030181
-0.0151357
-0.00509049
0.00495476
0.0150226
0.0251584
0.0303394
0.0354977
0.0406109
0.0556787
0.075724
0.0857919
0.0858824
0.0910181
0.106222
0.121538
0.131968
0.137285
0.137489
0.142738
0.153054
0.158416
0.158756
0.158778
0.153597
0.128348
0.103122
0.0930543
0.0830769
0.0631448
0.0382579
0.0234615
0.00868779
-0.0111991
-0.0311538
-0.0411538
-0.0511538
-0.061086
-0.0709955
-0.0708824
-0.0707466
-0.0856109
-0.100475
-0.0953846
-0.0903394
-0.0852263
-0.0800905
-0.0849321
-0.0897511
-0.0895475
-0.0900453
-0.091448
-0.094276
-0.0984163
-0.105905
-0.116425
-0.112127
-0.100634
-0.0840724
-0.0704978
-0.0649095
-0.0674208
-0.0743439
-0.0847059
-0.0890498
-0.08681
-0.0975566
-0.119638
-0.13491
-0.137285
-0.135385
-0.136041
-0.135588
-0.135045
-0.14
-0.145158
-0.145385
-0.145566
-0.145679
-0.145747
-0.140747
-0.135679
-0.135543
-0.135362
-0.140181
-0.145
-0.144796
-0.144638
-0.14448
-0.144321
-0.144186
-0.144027
-0.138824
-0.13362
-0.128416
-0.123213
-0.123009
-0.122783
-0.117534
-0.11733
-0.127195
-0.132036
-0.131855
-0.131697
-0.126561
-0.121403
-0.121222
-0.121018
-0.125814
-0.125588
-0.115339
-0.11009
-0.104819
-0.0995023
-0.0991629
-0.108824
-0.118484
-0.113167
-0.107919
-0.102738
-0.0975113
-0.102217
-0.106946
-0.111742
-0.116561
-0.116357
-0.111131
-0.090905
-0.0707013
-0.0505203
-0.0353393
-0.0351357
-0.0199547
0.015181
0.0352715
0.0302942
0.00522627
-0.0349321
-0.0600678
-0.0701583
-0.0802489
-0.0903846
-0.0854977
-0.0656108
-0.055724
-0.0558145
-0.0658371
-0.0808145
-0.0857692
-0.090724
-0.0956787
-0.0956108
-0.0955656
-0.0905656
-0.0855203
-0.0954298
-0.0903167
-0.085181
-0.0850679
-0.0849774
-0.0698642
-0.0547285
-0.0595927
-0.114457
-0.364344
-0.629276
-0.929253
-1.06423
-0.779163
-0.294072
0.581018
1.45606
2.33604
2.92097
3.11086
3.15079
3.01081
2.65084
2.08581
1.34577
0.480747
0.000746623
-0.249253
-0.279231
-0.199186
-0.174163
-0.174163
-0.194186
-0.224231
-0.234299
-0.239389
-0.244434
-0.249434
-0.254434
-0.254434
-0.254457
-0.254525
-0.239638
-0.234751
-0.229819
-0.224864
-0.22991
-0.234955
-0.225
-0.215045
-0.205091
-0.195136
-0.190181
-0.185226
-0.180226
-0.175204
-0.165226
-0.155317
-0.145407
-0.135498
-0.130566
-0.125611
-0.125656
-0.120701
-0.110769
-0.10086
-0.0859276
-0.0759729
-0.0759955
-0.0709955
-0.0609955
-0.0510633
-0.0411991
-0.0213122
-0.0014027
0.00352942
0.00848417
0.0234163
0.0383258
0.0482127
0.0580769
0.0679412
0.0778281
0.0878054
0.0928281
0.0978733
0.102919
0.112896
0.122873
0.132941
0.143032
0.138032
0.132896
0.117602
0.0973077
0.0770814
0.0618326
0.0415611
0.0264027
0.00640271
-0.0185973
-0.0436425
-0.0637104
-0.0788235
-0.0889593
-0.0891176
-0.0942308
-0.104276
-0.109321
-0.114344
-0.119344
-0.119389
-0.119457
-0.119548
-0.119638
-0.124729
-0.129751
-0.129728
-0.129796
-0.125158
-0.121652
-0.123959
-0.1269
-0.129321
-0.12905
-0.126312
-0.115045
-0.102262
-0.0938914
-0.086991
-0.0935973
-0.102036
-0.102443
-0.104525
-0.108914
-0.114932
-0.122941
-0.128959
-0.136765
-0.143235
-0.142986
-0.142896
-0.138077
-0.133326
-0.128688
-0.123937
-0.12905
-0.134118
-0.13414
-0.134163
-0.134163
-0.129208
-0.119299
-0.119321
-0.129321
-0.134299
-0.134253
-0.134253
-0.129299
-0.124344
-0.119389
-0.114389
-0.114367
-0.114367
-0.119367
-0.124367
-0.124389
-0.114412
-0.114412
-0.114389
-0.114344
-0.114299
-0.114253
-0.114231
-0.114231
-0.109231
-0.104208
-0.10414
-0.104072
-0.10405
-0.104027
-0.0989593
-0.0939819
-0.0940498
-0.0940498
-0.0939819
-0.0939366
-0.093914
-0.0938688
-0.0938009
-0.0937783
-0.0938009
-0.0938461
-0.093914
-0.0840045
-0.0691402
-0.0542986
-0.0395022
-0.0247285
-0.00995472
0.00484165
0.0196607
0.024457
0.0192308
-0.00606333
-0.0314253
-0.0368326
-0.0422398
-0.062647
-0.0779864
-0.0682805
-0.0585973
-0.0639593
-0.0693439
-0.0697285
-0.0700679
-0.0853167
-0.100498
-0.100633
-0.100769
-0.100905
-0.101041
-0.0911991
-0.0813575
-0.0814932
-0.0816063
-0.0817195
-0.0768552
-0.0619909
-0.0521267
-0.0522398
-0.13733
-0.297421
-0.547489
-0.857534
-0.917602
-0.822692
-0.28276
0.467195
1.37717
2.34217
2.78715
3.0821
3.09204
3.03695
2.65686
2.23176
1.31167
0.351606
0.0265611
-0.273484
-0.213552
-0.153643
-0.158733
-0.163801
-0.198801
-0.233756
-0.248733
-0.263733
-0.268733
-0.273756
-0.263824
-0.253891
-0.253891
-0.253869
-0.253846
-0.253869
-0.248914
-0.243982
-0.23405
-0.224072
-0.22405
-0.219005
-0.208959
-0.203914
-0.198891
-0.188914
-0.178959
-0.173959
-0.168959
-0.163937
-0.158891
-0.153869
-0.148869
-0.138891
-0.128937
-0.123959
-0.118959
-0.108959
-0.0989593
-0.0939593
-0.0939593
-0.0639367
-0.0438914
-0.0388235
-0.033733
-0.0236425
-0.013552
-0.00346153
0.00660634
0.026629
0.046629
0.0616516
0.0766968
0.0917195
0.106765
0.116878
0.132059
0.147308
0.157647
0.163077
0.168552
0.169072
0.169638
0.170204
0.165656
0.155995
0.14129
0.121516
0.0915385
0.0614027
0.041267
0.0261086
0.0108597
-0.004457
-0.0247964
-0.0451357
-0.0654299
-0.085724
-0.0909502
-0.0961086
-0.101222
-0.0963122
-0.0963801
-0.101425
-0.106471
-0.111516
-0.111538
-0.111471
-0.111267
-0.110995
-0.110701
-0.110769
-0.116561
-0.123484
-0.121833
-0.120475
-0.12371
-0.124525
-0.126946
-0.125317
-0.119389
-0.111403
-0.0919231
-0.0714027
-0.0551131
-0.0393665
-0.0248642
-0.0206108
-0.0276923
-0.0357239
-0.0392081
-0.0457466
-0.0543438
-0.0685972
-0.0931674
-0.112602
-0.12543
-0.134728
-0.140633
-0.138213
-0.129005
-0.124185
-0.129231
-0.134502
-0.144796
-0.139977
-0.135045
-0.129977
-0.124819
-0.12957
-0.134253
-0.133959
-0.133665
-0.133348
-0.133032
-0.127692
-0.122308
-0.1219
-0.121493
-0.126018
-0.130566
-0.125136
-0.119706
-0.114276
-0.108846
-0.108416
-0.107964
-0.107489
-0.106991
-0.106471
-0.105973
-0.10552
-0.104955
-0.109321
-0.113665
-0.112986
-0.112285
-0.111561
-0.105837
-0.0951131
-0.0893665
-0.0935747
-0.0977602
-0.0919231
-0.0860633
-0.0851584
-0.0842308
-0.0833032
-0.0873982
-0.0915384
-0.085724
-0.0799321
-0.0841855
-0.0885068
-0.0878959
-0.0873529
-0.0819004
-0.0715837
-0.0464253
-0.0264706
-0.0166063
-0.00201355
0.0124661
0.0218552
0.0261539
0.0253394
-0.000588216
-0.0165837
-0.032647
-0.0486878
-0.0596832
-0.0655882
-0.0613574
-0.0570135
-0.0576018
-0.05819
-0.0637556
-0.0791855
-0.0945022
-0.0997059
-0.104819
-0.109864
-0.109864
-0.109909
-0.105
-0.100045
-0.0950226
-0.0899547
-0.0898643
-0.0747964
-0.0597511
-0.0697285
-0.104729
-0.324729
-0.549729
-0.809729
-0.959706
-0.719638
-0.27957
0.71043
1.61538
2.35038
2.86545
3.00557
3.07068
3.00575
2.61575
1.8207
1.05568
0.315679
-0.0842534
-0.209095
-0.228937
-0.178824
-0.173733
-0.198688
-0.22362
-0.248529
-0.263394
-0.273213
-0.278054
-0.272941
-0.267896
-0.262896
-0.257896
-0.257851
-0.257692
-0.252489
-0.24733
-0.257195
-0.247081
-0.236991
-0.2319
-0.22681
-0.216697
-0.206561
-0.206425
-0.20629
-0.201131
-0.19595
-0.185792
-0.175656
-0.17052
-0.165385
-0.165317
-0.165272
-0.160226
-0.155136
-0.145
-0.134842
-0.119638
-0.10948
-0.0994118
-0.0893213
-0.0791629
-0.0740045
-0.0688688
-0.0537104
-0.0335294
-0.0134163
0.00162896
0.0116968
0.0217873
0.0368326
0.0518552
0.061991
0.0721493
0.0872851
0.102421
0.117602
0.107783
0.147919
0.158077
0.163281
0.168394
0.173371
0.178326
0.173213
0.168145
0.158122
0.1431
0.1181
0.0931448
0.0682805
0.0483937
0.0435747
0.0335973
0.00361991
-0.0213801
-0.0464027
-0.0664027
-0.0813801
-0.0913575
-0.0863122
-0.0812896
-0.086267
-0.0962217
-0.106154
-0.111063
-0.110973
-0.110837
-0.110679
-0.110634
-0.105792
-0.1019
-0.103416
-0.109887
-0.120769
-0.124299
-0.116063
-0.104751
-0.102398
-0.105815
-0.105814
-0.103982
-0.103439
-0.0938688
-0.085724
-0.0954977
-0.105995
-0.121606
-0.13552
-0.131471
-0.126584
-0.12586
-0.125407
-0.12543
-0.125543
-0.130724
-0.135882
-0.135995
-0.131063
-0.116041
-0.106041
-0.106063
-0.116041
-0.135995
-0.140973
-0.13095
-0.125928
-0.125973
-0.126018
-0.121063
-0.116086
-0.116086
-0.116063
-0.116018
-0.116018
-0.121086
-0.126176
-0.12129
-0.116403
-0.116471
-0.116471
-0.106448
-0.106516
-0.106629
-0.116765
-0.1269
-0.127014
-0.127104
-0.112149
-0.0972172
-0.107308
-0.117398
-0.112489
-0.107602
-0.112738
-0.117851
-0.107941
-0.0979864
-0.098009
-0.0980769
-0.09319
-0.0932805
-0.118348
-0.123394
-0.113416
-0.103439
-0.0884615
-0.0684389
-0.0484842
-0.0383484
-0.0331674
-0.00298642
0.0321946
0.0373982
0.0276244
0.00287329
-0.02181
-0.0364254
-0.0510181
-0.0656561
-0.0803168
-0.07
-0.0847059
-0.0493665
-0.0539819
-0.0636426
-0.0733258
-0.0830543
-0.0928507
-0.0976923
-0.102557
-0.0974208
-0.0922398
-0.0920136
-0.09181
-0.0916516
-0.0915158
-0.0863801
-0.0763122
-0.061267
-0.0511991
-0.061086
-0.195928
-0.465747
-0.745611
-1.02554
-0.975543
-0.665566
0.00947966
0.914548
1.77959
2.61964
2.96966
3.11966
3.04473
2.89486
2.28998
1.57507
0.800136
0.020181
-0.184774
-0.319728
-0.254661
-0.17457
-0.17948
-0.189389
-0.209321
-0.229276
-0.244231
-0.259163
-0.24905
-0.238914
-0.243756
-0.24862
-0.243575
-0.238552
-0.233507
-0.228462
-0.218439
-0.208416
-0.208348
-0.208235
-0.2031
-0.197986
-0.187896
-0.172828
-0.162805
-0.152783
-0.142715
-0.142624
-0.152534
-0.152466
-0.132376
-0.122285
-0.112195
-0.107149
-0.102149
-0.0971493
-0.0921493
-0.0770588
-0.0619005
-0.0518326
-0.0418326
-0.0317873
-0.0216968
-0.0116063
0.00346154
0.0135294
0.0235747
0.043552
0.0634615
0.0733258
0.0831674
0.0878733
0.0924434
0.106946
0.121516
0.126222
0.131131
0.131244
0.131425
0.136674
0.142081
0.14267
0.143235
0.13371
0.114095
0.0893891
0.0696606
0.0549095
0.0351131
0.0152715
0.000475116
-0.0143891
-0.0340724
-0.0537557
-0.0734842
-0.0882579
-0.0930995
-0.098009
-0.102964
-0.0979864
-0.103054
-0.118077
-0.122964
-0.121991
-0.119638
-0.116312
-0.0972851
-0.0890498
-0.0923982
-0.0995023
-0.11129
-0.127149
-0.13733
-0.14957
-0.158371
-0.166493
-0.192647
-0.211946
-0.218032
-0.217127
-0.205294
-0.185814
-0.17552
-0.165769
-0.1519
-0.140633
-0.137466
-0.137715
-0.131403
-0.125995
-0.131176
-0.136041
-0.13552
-0.135045
-0.134638
-0.134344
-0.134163
-0.134072
-0.129072
-0.12405
-0.129004
-0.133982
-0.133982
-0.133982
-0.129027
-0.12414
-0.119276
-0.119389
-0.12448
-0.12957
-0.134661
-0.129751
-0.124864
-0.119977
-0.115045
-0.12009
-0.125113
-0.125113
-0.125158
-0.120294
-0.115498
-0.115679
-0.11586
-0.116018
-0.116199
-0.116403
-0.116652
-0.121946
-0.122262
-0.112602
-0.107941
-0.113281
-0.118665
-0.124095
-0.124547
-0.115
-0.100452
-0.085905
-0.0713122
-0.0566742
-0.0520136
-0.0473303
-0.0226697
0.00196834
-0.00332578
-0.0185068
-0.0435746
-0.0685294
-0.0733936
-0.0831448
-0.0877602
-0.0922398
-0.0816063
-0.0708597
-0.0750678
-0.0792986
-0.0885746
-0.0978959
-0.10224
-0.106652
-0.106131
-0.105656
-0.110226
-0.114864
-0.114593
-0.114412
-0.109299
-0.104208
-0.0991403
-0.089095
-0.0740271
-0.0789819
-0.109005
-0.299027
-0.604027
-0.81905
-0.969095
-0.78405
-0.418959
0.421109
1.44615
2.21115
2.89611
3.07109
3.13609
3.03613
2.91122
2.07127
1.16127
0.481267
1.11627
-0.22371
-0.253665
-0.208643
-0.163643
-0.193643
-0.223643
-0.243665
-0.26371
-0.268756
-0.273801
-0.278846
-0.283891
-0.278937
-0.273982
-0.269027
-0.264095
-0.259185
-0.254276
-0.249344
-0.244367
-0.244389
-0.244434
-0.23948
-0.22457
-0.204683
-0.194751
-0.189774
-0.184774
-0.184774
-0.184819
-0.179909
-0.169977
-0.160023
-0.155068
-0.150113
-0.145181
-0.140271
-0.130385
-0.12052
-0.105633
-0.090724
-0.0808145
-0.075905
-0.0659955
-0.056086
-0.0411538
-0.0262217
-0.00635746
0.0134842
0.0233937
0.0333484
0.0532806
0.0731901
0.0880543
0.102896
0.112783
0.122738
0.13276
0.142896
0.148145
0.153394
0.163643
0.173937
0.174276
0.164525
0.144638
0.124593
0.104367
0.0790272
0.0535747
0.0280769
0.0025792
-0.0227375
-0.0429185
-0.0580769
-0.0732127
-0.0833484
-0.0934842
-0.0986652
-0.103891
-0.109118
-0.114321
-0.119502
-0.119683
-0.119864
-0.120045
-0.120204
-0.120339
-0.12043
-0.120453
-0.120407
-0.120385
-0.125498
-0.131471
-0.128846
-0.127262
-0.136425
-0.144751
-0.146357
-0.143213
-0.129457
-0.111018
-0.0934615
-0.0761312
-0.0600452
-0.0486425
-0.0419457
-0.042828
-0.0558144
-0.0724887
-0.081629
-0.096448
-0.109887
-0.119412
-0.125158
-0.12767
-0.128235
-0.128484
-0.123733
-0.119253
-0.124864
-0.130339
-0.130701
-0.130905
-0.131018
-0.126063
-0.121063
-0.121041
-0.120995
-0.125928
-0.130837
-0.130769
-0.130747
-0.120747
-0.110701
-0.115566
-0.120385
-0.125204
-0.130045
-0.124864
-0.119796
-0.119728
-0.119638
-0.114525
-0.109389
-0.109231
-0.109095
-0.103982
-0.0988688
-0.0987556
-0.0985746
-0.0983258
-0.0980543
-0.0978054
-0.0975792
-0.102353
-0.102081
-0.0917647
-0.0864027
-0.0909954
-0.0955656
-0.0951357
-0.0946832
-0.0892081
-0.083733
-0.0832579
-0.0828054
-0.0823755
-0.0919457
-0.101538
-0.0961991
-0.090905
-0.0756108
-0.0603167
-0.0450679
-0.0299095
-0.0198869
-0.00499998
0.0147512
0.0293665
0.0338462
0.0282353
-0.00244341
-0.0231222
-0.0337783
-0.0444117
-0.0550226
-0.0656108
-0.0611764
-0.0566289
-0.0570135
-0.0623303
-0.0725792
-0.0778054
-0.0779864
-0.0781674
-0.0783258
-0.0784163
-0.0834615
-0.0884841
-0.0884841
-0.0884841
-0.0884841
-0.0885294
-0.0836199
-0.0686651
-0.0536651
-0.0537104
-0.0688009
-0.278891
-0.493982
-0.764072
-0.98914
-0.764163
-0.424163
0.510837
1.42584
2.26086
2.92091
3.05593
3.13093
3.04593
2.71093
1.89093
1.10093
0.355928
-0.104095
-0.19414
-0.214163
-0.15914
-0.144095
-0.179072
-0.20905
-0.239005
-0.253982
-0.263982
-0.268914
-0.268778
-0.268643
-0.268507
-0.268416
-0.263371
-0.253348
-0.243348
-0.238303
-0.238213
-0.238145
-0.2331
-0.2231
-0.228145
-0.203167
-0.198167
-0.193145
-0.1881
-0.188054
-0.188009
-0.177964
-0.167919
-0.157873
-0.147828
-0.14776
-0.14767
-0.142579
-0.132489
-0.117398
-0.10733
-0.102308
-0.0972851
-0.0872172
-0.0771267
-0.0720588
-0.061991
-0.0469005
-0.0318552
-0.0168326
-0.00176472
0.0133258
0.0284163
0.0385068
0.0535294
0.0734615
0.0883258
0.0981222
0.107896
0.11767
0.127579
0.137489
0.14724
0.156968
0.161833
0.166855
0.162014
0.15224
0.127421
0.102557
0.082647
0.0626923
0.0476697
0.0326018
0.00260179
-0.0173303
-0.0372172
-0.0570815
-0.0669457
-0.0768326
-0.0767647
-0.0816742
-0.0965385
-0.106425
-0.111357
-0.116312
-0.116267
-0.116312
-0.111448
-0.106538
-0.11138
-0.115249
-0.107986
-0.0992534
-0.0949095
-0.0927602
-0.0889367
-0.0957466
-0.117692
-0.13733
-0.152579
-0.163869
-0.175995
-0.183937
-0.181493
-0.174367
-0.163416
-0.149796
-0.136493
-0.126742
-0.120679
-0.113258
-0.107941
-0.112918
-0.117873
-0.117489
-0.117014
-0.121697
-0.126516
-0.121493
-0.116561
-0.126674
-0.13681
-0.136946
-0.137081
-0.132217
-0.127398
-0.122602
-0.117828
-0.118077
-0.118258
-0.118394
-0.118552
-0.11371
-0.108891
-0.109163
-0.109344
-0.114525
-0.119706
-0.114909
-0.110204
-0.110566
-0.110905
-0.106222
-0.101516
-0.10681
-0.112149
-0.112534
-0.112941
-0.113348
-0.108733
-0.104095
-0.104434
-0.104796
-0.105226
-0.105679
-0.111176
-0.116697
-0.107217
-0.097715
-0.10319
-0.108665
-0.10914
-0.10957
-0.104955
-0.0953846
-0.0757919
-0.0561312
-0.0364253
-0.0216742
-0.0368778
-0.0220588
0.0227828
0.0427149
0.0327602
0.0129412
-0.0117421
-0.0313575
-0.0509502
-0.0606335
-0.060362
-0.0600453
-0.0547059
-0.0543665
-0.0640498
-0.0738009
-0.0836199
-0.0935068
-0.103439
-0.103348
-0.0932579
-0.0981448
-0.108032
-0.102964
-0.0979412
-0.0979864
-0.098077
-0.0781901
-0.0583258
-0.0684389
-0.118529
-0.31862
-0.55371
-0.878778
-1.02882
-0.753846
-0.233824
0.741244
1.65127
2.4712
2.94611
3.00602
3.00091
2.91075
2.38063
1.48059
0.710543
0.0354978
-0.229525
-0.264525
-0.239525
-0.179525
-0.174525
-0.199525
-0.224548
-0.244593
-0.249661
-0.249751
-0.249887
-0.245045
-0.240136
-0.240181
-0.240249
-0.240362
-0.24052
-0.240701
-0.230882
-0.221063
-0.206222
-0.191357
-0.201493
-0.211629
-0.206787
-0.201968
-0.187127
-0.17224
-0.167308
-0.162353
-0.157421
-0.147534
-0.127647
-0.11276
-0.107896
-0.103032
-0.0981448
-0.0882579
-0.0784163
-0.068552
-0.0586425
-0.0487557
-0.0388914
-0.0339819
-0.0340271
-0.0241176
0.000724003
0.0154751
0.0301358
0.0446833
0.0591177
0.0684842
0.0778507
0.092172
0.106493
0.110905
0.110385
0.134932
0.149593
0.149412
0.149344
0.149389
0.14948
0.154434
0.159502
0.149864
0.135362
0.11086
0.0862896
0.066629
0.0519005
0.0470815
0.0321946
0.00223983
-0.0227149
-0.0376471
-0.0475792
-0.0625565
-0.0676697
-0.0729185
-0.0831448
-0.098009
-0.106425
-0.108462
-0.109548
-0.110701
-0.108914
-0.100181
-0.101199
-0.106199
-0.114027
-0.128281
-0.142466
-0.161403
-0.18043
-0.192579
-0.201584
-0.213032
-0.22586
-0.230611
-0.216109
-0.197715
-0.185882
-0.1719
-0.152534
-0.133077
-0.133937
-0.137149
-0.129389
-0.12509
-0.128869
-0.133914
-0.134186
-0.134344
-0.129208
-0.124072
-0.124072
-0.124231
-0.119525
-0.114864
-0.110226
-0.110611
-0.120995
-0.12638
-0.131787
-0.13224
-0.122738
-0.118281
-0.113869
-0.109389
-0.109864
-0.110339
-0.110792
-0.111335
-0.106968
-0.102602
-0.103235
-0.108824
-0.119389
-0.125
-0.125656
-0.12138
-0.117104
-0.112783
-0.108439
-0.109118
-0.109819
-0.105543
-0.101267
-0.111991
-0.12276
-0.118575
-0.114367
-0.120136
-0.12595
-0.116855
-0.102738
-0.0835294
-0.064276
-0.0449774
-0.0256109
-0.00117646
0.00834842
0.0129638
0.00769232
-0.0124434
-0.0274434
-0.0373303
-0.0520136
-0.0665385
-0.0709502
-0.0752489
-0.0694796
-0.0536651
-0.0627828
-0.0818099
-0.0908145
-0.099819
-0.103891
-0.108054
-0.112308
-0.111629
-0.105973
-0.0903846
-0.0899321
-0.0895927
-0.0893212
-0.089095
-0.0689366
-0.0488235
-0.0637783
-0.153801
-0.473869
-0.768959
-0.984072
-0.979208
-0.519367
0.16052
1.21045
2.09041
2.73538
3.07038
3.04538
2.94036
2.76029
2.1102
1.09011
0.375045
-0.150023
-0.310136
-0.275271
-0.225385
-0.165475
-0.165566
-0.190656
-0.215724
-0.235769
-0.24586
-0.255995
-0.261131
-0.256267
-0.241448
-0.226674
-0.226878
-0.232059
-0.227217
-0.222353
-0.212489
-0.202624
-0.19776
-0.192896
-0.188009
-0.183122
-0.178258
-0.173394
-0.163552
-0.15371
-0.143846
-0.133982
-0.139095
-0.139186
-0.124276
-0.114367
-0.104457
-0.0945475
-0.0896154
-0.0846606
-0.0797059
-0.0697738
-0.0548869
-0.0400679
-0.0202941
-0.0105882
-0.000927599
0.00868778
0.0182805
0.0278281
0.0373303
0.04681
0.056267
0.0757014
0.0951584
0.0997285
0.104412
0.119163
0.138937
0.143733
0.148575
0.153484
0.158462
0.158552
0.158801
0.149231
0.139729
0.130272
0.115814
0.0912444
0.0665837
0.0468778
0.0271041
0.00230771
-0.0225339
-0.0374208
-0.0473303
-0.0572172
-0.0721719
-0.0871719
-0.101652
-0.11043
-0.11267
-0.108869
-0.105566
-0.10362
-0.105023
-0.110158
-0.119887
-0.132896
-0.147127
-0.1619
-0.171222
-0.173891
-0.178846
-0.190701
-0.199864
-0.203167
-0.206629
-0.209932
-0.221448
-0.219909
-0.213484
-0.202964
-0.189412
-0.174299
-0.154299
-0.134774
-0.121063
-0.110294
-0.10914
-0.111222
-0.110679
-0.110882
-0.105905
-0.100814
-0.100475
-0.100158
-0.0999774
-0.0999321
-0.105
-0.110136
-0.110339
-0.110611
-0.105905
-0.101131
-0.10629
-0.111493
-0.111765
-0.112059
-0.112376
-0.11267
-0.107941
-0.103213
-0.103484
-0.103801
-0.10914
-0.114502
-0.114887
-0.115294
-0.110724
-0.106154
-0.106584
-0.107081
-0.107647
-0.108213
-0.108801
-0.109412
-0.110068
-0.110792
-0.111561
-0.112376
-0.113213
-0.10405
-0.0948869
-0.0757014
-0.0615158
-0.0473077
-0.0380995
-0.0288914
-0.019638
-0.0103394
-0.000904979
-0.00633484
-0.0215385
-0.0415385
-0.0613801
-0.0810633
-0.0905656
-0.0848869
-0.079095
-0.0732127
-0.0672172
-0.0711312
-0.085
-0.0988235
-0.10267
-0.106538
-0.11043
-0.104367
-0.0983937
-0.0975113
-0.0967195
-0.106018
-0.100452
-0.0950226
-0.0846606
-0.0743439
-0.0690498
-0.0788009
-0.20362
-0.368507
-0.713439
-0.948394
-0.843371
-0.543371
0.201652
1.0417
2.05674
2.78179
3.05183
3.17188
3.09192
2.74699
2.1321
1.35729
0.442489
-0.0423529
-0.222217
-0.252081
-0.186946
-0.181833
-0.211697
-0.236584
-0.261493
-0.271403
-0.271312
-0.271199
-0.271063
-0.270928
-0.270792
-0.270679
-0.270588
-0.265498
-0.270407
-0.245317
-0.240226
-0.235113
-0.229977
-0.224842
-0.219706
-0.214593
-0.209502
-0.199434
-0.189389
-0.189299
-0.189163
-0.179072
-0.169027
-0.158982
-0.148937
-0.143891
-0.138869
-0.133846
-0.128778
-0.113688
-0.103597
-0.0935294
-0.0834842
-0.0684389
-0.0534163
-0.0433937
-0.0333484
-0.0233032
-0.00825791
0.00678733
0.02181
0.03681
0.05681
0.07681
0.0918326
0.106855
0.121833
0.136787
0.151787
0.166833
0.176991
0.18224
0.192557
0.202919
0.203326
0.203778
0.184276
0.164729
0.135
0.110158
0.080181
0.0500905
0.0249095
0.00452488
-0.0160181
-0.0314253
-0.0516742
-0.0667647
-0.0767421
-0.0867647
-0.0918326
-0.0969457
-0.102104
-0.107285
-0.112443
-0.117511
-0.117511
-0.117466
-0.112421
-0.107353
-0.107262
-0.107127
-0.111946
-0.116742
-0.116584
-0.116991
-0.118167
-0.12095
-0.119842
-0.118303
-0.125385
-0.129004
-0.123054
-0.11138
-0.0954299
-0.0773303
-0.059457
-0.0433258
-0.0325566
-0.0390498
-0.0524887
-0.0583258
-0.0670362
-0.0818778
-0.0965384
-0.115475
-0.130498
-0.131652
-0.129842
-0.130249
-0.130588
-0.130814
-0.131176
-0.131674
-0.132014
-0.132217
-0.132308
-0.132308
-0.132262
-0.127217
-0.122059
-0.126878
-0.131652
-0.13138
-0.131131
-0.130905
-0.130679
-0.125452
-0.120204
-0.124932
-0.129683
-0.124457
-0.119208
-0.118959
-0.11871
-0.118439
-0.113167
-0.107896
-0.112602
-0.117308
-0.116991
-0.116652
-0.11629
-0.115905
-0.110475
-0.105045
-0.104638
-0.104208
-0.103733
-0.103303
-0.0978733
-0.0923981
-0.0918778
-0.0913122
-0.0957013
-0.0950904
-0.0844796
-0.0788461
-0.07819
-0.0775339
-0.0819004
-0.0863122
-0.0857918
-0.0852941
-0.0847963
-0.0843438
-0.0839592
-0.063733
-0.0286425
-0.0187104
-0.00893661
-0.00434386
-0.00490947
0.0294118
0.0686652
0.042896
0.0121267
-0.0186878
-0.0495022
-0.0552715
-0.0609728
-0.0565837
-0.0520814
-0.0524886
-0.0528054
-0.0680316
-0.0832579
-0.0934615
-0.103642
-0.103778
-0.103846
-0.103891
-0.103937
-0.104004
-0.104072
-0.104118
-0.0991855
-0.089276
-0.0793212
-0.0692986
-0.0742534
-0.0942307
-0.264253
-0.514299
-0.734344
-0.939389
-0.769412
-0.464412
0.375588
1.36559
2.12554
2.84545
2.99538
3.06534
2.99532
2.90032
2.04032
1.15532
0.475339
-0.164615
-0.189593
-0.214593
-0.184615
-0.154615
-0.189548
-0.219457
-0.244367
-0.264276
-0.269186
-0.274118
-0.274072
-0.274027
-0.279005
-0.284005
-0.274005
-0.264005
-0.259005
-0.254005
-0.248982
-0.243937
-0.238914
-0.233914
-0.228891
-0.218846
-0.208801
-0.203733
-0.198643
-0.193552
-0.193462
-0.188394
-0.178348
-0.173348
-0.168394
-0.163439
-0.158484
-0.143484
-0.128439
-0.123416
-0.123439
-0.0985294
-0.0836651
-0.0787557
-0.0737783
-0.0637557
-0.0537104
-0.0387104
-0.023733
-0.0137104
-0.00366515
0.0114027
0.0314932
0.0515611
0.0716064
0.0866516
0.096629
0.106584
0.121561
0.136561
0.146629
0.151833
0.162081
0.172376
0.17767
0.177941
0.173348
0.158914
0.144412
0.134819
0.120136
0.100339
0.0754525
0.0504299
0.0202715
-0.00495474
-0.0301584
-0.0553846
-0.0607692
-0.0662896
-0.0719231
-0.0775792
-0.0880995
-0.0935068
-0.0938235
-0.094095
-0.0993665
-0.104661
-0.1
-0.0953394
-0.105611
-0.115792
-0.115882
-0.11595
-0.111063
-0.106923
-0.108914
-0.1119
-0.120814
-0.128959
-0.130724
-0.12871
-0.12224
-0.112398
-0.0993665
-0.0856787
-0.0765611
-0.0671267
-0.057172
-0.0493665
-0.0395927
-0.0336651
-0.0273529
-0.0245927
-0.0257013
-0.0409276
-0.068914
-0.0882579
-0.103032
-0.11724
-0.130271
-0.136606
-0.134796
-0.133869
-0.135566
-0.135905
-0.136018
-0.13638
-0.13681
-0.137262
-0.137624
-0.137828
-0.137941
-0.137986
-0.137986
-0.137986
-0.137964
-0.142896
-0.147805
-0.142692
-0.137579
-0.137489
-0.137376
-0.127217
-0.117081
-0.116968
-0.116855
-0.121742
-0.126561
-0.121312
-0.111086
-0.095905
-0.0856787
-0.0904525
-0.100204
-0.109955
-0.114729
-0.109502
-0.104231
-0.103914
-0.103575
-0.108213
-0.112805
-0.112353
-0.111855
-0.111312
-0.0957692
-0.0902489
-0.0947285
-0.0991855
-0.0936199
-0.0880769
-0.0875792
-0.0870814
-0.0815837
-0.0761086
-0.0706787
-0.065362
-0.0752036
-0.0851358
-0.0951131
-0.100204
-0.0853846
-0.0607692
-0.0263575
-0.00708146
-0.0129186
-0.00891403
0.00993212
0.0238235
0.0377602
0.0316968
0.000656104
-0.0253394
-0.046267
-0.0571267
-0.0579186
-0.0536425
-0.0442986
-0.0398416
-0.0452489
-0.055543
-0.0658145
-0.076086
-0.0863348
-0.0914932
-0.0915611
-0.0915837
-0.0916063
-0.0916968
-0.0918326
-0.0869683
-0.0821041
-0.0672172
-0.0523077
-0.0473756
-0.0724208
-0.212489
-0.422579
-0.807715
-1.0229
-0.8531
-0.473281
0.286606
1.11649
2.05638
2.69624
2.96104
3.02584
2.87566
2.5955
2.21536
1.51523
0.605113
0.0800452
-0.225
-0.280045
-0.215091
-0.190136
-0.180181
-0.195226
-0.225272
-0.240317
-0.250362
-0.255407
-0.250453
-0.245498
-0.245543
-0.245588
-0.245634
-0.240679
-0.235724
-0.235769
-0.235814
-0.225837
-0.215837
-0.210815
-0.205769
-0.205769
-0.205814
-0.19586
-0.18586
-0.170747
-0.155566
-0.155407
-0.150317
-0.135294
-0.125317
-0.120339
-0.115317
-0.110272
-0.105226
-0.100204
-0.0902262
-0.0802715
-0.0703394
-0.0554299
-0.0404299
-0.0303846
-0.020362
-0.010362
0.00463801
0.019638
0.0296154
0.0395701
0.0496154
0.0597059
0.079819
0.0999548
0.105023
0.105045
0.115068
0.115068
0.135091
0.155158
0.155317
0.155475
0.16552
0.175566
0.160679
0.145769
0.140837
0.130973
0.111109
0.0911765
0.0761312
0.0611765
0.041267
0.0213801
0.00153847
-0.0233032
-0.05819
-0.0730995
-0.0730317
-0.0779864
-0.0929638
-0.107919
-0.117828
-0.11776
-0.107715
-0.10267
-0.102624
-0.102579
-0.107534
-0.112443
-0.117308
-0.122217
-0.122262
-0.122941
-0.119118
-0.116222
-0.113032
-0.117489
-0.125158
-0.115136
-0.103914
-0.0967873
-0.0910407
-0.0936652
-0.098009
-0.104367
-0.111765
-0.110317
-0.109661
-0.120543
-0.129706
-0.131041
-0.131629
-0.130995
-0.130588
-0.130475
-0.130407
-0.130452
-0.130475
-0.130452
-0.130407
-0.130294
-0.130158
-0.135023
-0.139887
-0.134751
-0.129615
-0.12948
-0.129367
-0.124276
-0.11914
-0.123959
-0.128778
-0.12362
-0.118507
-0.113416
-0.113281
-0.1231
-0.127873
-0.127624
-0.122421
-0.11724
-0.112036
-0.10681
-0.111584
-0.116357
-0.116109
-0.115882
-0.110701
-0.10552
-0.100339
-0.0951357
-0.0998869
-0.104615
-0.104367
-0.10414
-0.0989366
-0.0937104
-0.0884615
-0.0832127
-0.0979638
-0.102738
-0.102534
-0.10233
-0.0971267
-0.0969457
-0.10681
-0.106674
-0.0965837
-0.0814253
-0.0662217
-0.046086
-0.0259955
-0.0208823
-0.0157466
0.00432127
0.0243213
0.00432128
-0.0256561
-0.0356335
-0.0305882
-0.0604977
-0.070362
-0.0702036
-0.0700226
-0.064819
-0.0596154
-0.0644796
-0.0693665
-0.0742081
-0.0790045
-0.0888009
-0.0986425
-0.0935068
-0.0883484
-0.0881448
-0.0879185
-0.0826923
-0.0774435
-0.0721946
-0.066991
-0.0518326
-0.0467195
-0.046629
-0.146516
-0.326357
-0.606199
-0.956041
-0.970905
-0.805815
-0.240701
0.499434
1.44457
2.45471
2.89982
3.19491
3.145
3.02009
2.4952
1.92534
1.02043
0.0904751
-0.129457
-0.334367
-0.259253
-0.184118
-0.189005
-0.193914
-0.213824
-0.233733
-0.243643
-0.253552
-0.253439
-0.253303
-0.25319
-0.2531
-0.248009
-0.242896
-0.23776
-0.232624
-0.232466
-0.232308
-0.227195
-0.217127
-0.207059
-0.201946
-0.201787
-0.201629
-0.196516
-0.186425
-0.176335
-0.166222
-0.156086
-0.150928
-0.145747
-0.140611
-0.14052
-0.13043
-0.115339
-0.105249
-0.0951584
-0.0900453
-0.0849095
-0.0747738
-0.059638
-0.0445023
-0.0293665
-0.0192308
-0.00909503
0.00106335
0.0112443
0.0263575
0.041448
0.0615158
0.0815611
0.091629
0.101697
0.111719
0.121742
0.12681
0.136946
0.152149
0.162466
0.167896
0.173371
0.173891
0.174434
0.17
0.155385
0.135543
0.110656
0.0857692
0.0606335
0.035362
0.0100679
-0.0152036
-0.0403394
-0.0603846
-0.0704073
-0.0803846
-0.0953167
-0.110226
-0.115204
-0.120249
-0.125294
-0.125339
-0.125362
-0.125317
-0.130181
-0.135
-0.129774
-0.124502
-0.119163
-0.113824
-0.118529
-0.12371
-0.119683
-0.1169
-0.120724
-0.124661
-0.127828
-0.128529
-0.125837
-0.117828
-0.104208
-0.0873756
-0.0733484
-0.0607013
-0.0454072
-0.0369683
-0.0303846
-0.03138
-0.0492534
-0.0686199
-0.0891629
-0.109004
-0.116946
-0.12138
-0.12733
-0.129887
-0.130452
-0.130633
-0.135747
-0.141086
-0.141493
-0.141765
-0.136923
-0.136946
-0.141878
-0.141742
-0.141561
-0.13638
-0.131199
-0.125996
-0.120747
-0.125475
-0.130204
-0.129955
-0.129729
-0.129502
-0.129276
-0.12905
-0.128801
-0.128507
-0.128213
-0.122919
-0.117647
-0.117421
-0.117172
-0.111878
-0.106538
-0.106154
-0.105792
-0.110452
-0.115113
-0.114751
-0.114367
-0.108959
-0.103529
-0.103077
-0.102602
-0.102104
-0.101584
-0.0960633
-0.0905204
-0.0899321
-0.0893213
-0.0887104
-0.0880995
-0.0874887
-0.0869457
-0.0864253
-0.0909276
-0.0954977
-0.100136
-0.104796
-0.0895022
-0.074276
-0.0541403
-0.0341403
-0.0342986
-0.0295928
-0.00502263
0.0144118
0.0186878
0.0128507
-0.0130995
-0.0291177
-0.040181
-0.0561765
-0.0721041
-0.0829412
-0.078733
-0.074457
-0.0700905
-0.0656335
-0.0710634
-0.0864027
-0.101674
-0.106923
-0.112149
-0.11733
-0.117466
-0.112579
-0.10267
-0.0977149
-0.10276
-0.107805
-0.102851
-0.0928959
-0.0979412
-0.0779864
-0.0880316
-0.318077
-0.548122
-0.813145
-1.00314
-0.748167
-0.353213
0.636719
1.58163
2.35156
2.94156
3.05161
3.10665
3.02667
2.68161
1.90154
1.12649
0.356448
-0.103529
-0.198439
-0.223371
-0.173348
-0.158371
-0.188416
-0.213439
-0.238416
-0.253394
-0.263394
-0.268394
-0.268394
-0.268394
-0.268394
-0.268348
-0.263258
-0.258213
-0.253213
-0.248213
-0.243213
-0.233235
-0.223281
-0.218303
-0.218303
-0.213303
-0.208303
-0.198303
-0.188303
-0.183326
-0.178371
-0.178371
-0.178326
-0.168281
-0.158235
-0.14819
-0.138167
-0.12819
-0.118258
-0.113326
-0.108326
-0.103281
-0.0982579
-0.0882579
-0.0732579
-0.0582353
-0.0481674
-0.0430769
-0.033009
-0.0229638
-0.0129412
0.00705884
0.0220362
0.041991
0.0669684
0.0869683
0.0969231
0.106833
0.121787
0.136787
0.1519
0.167127
0.17233
0.177534
0.182851
0.193258
0.193688
0.194095
0.184389
0.174615
0.149819
0.124977
0.0900453
0.0650453
0.0450679
0.0200905
-0.00490948
-0.0299095
-0.0499321
-0.065
-0.0750678
-0.0851583
-0.0902715
-0.0954072
-0.095543
-0.0957466
-0.110995
-0.116312
-0.111742
-0.107217
-0.107715
-0.108258
-0.108869
-0.109276
-0.109615
-0.110928
-0.118235
-0.126697
-0.130973
-0.134118
-0.130498
-0.122421
-0.115068
-0.114185
-0.115588
-0.106448
-0.0920362
-0.0629864
-0.0454977
-0.0365158
-0.031018
-0.0440271
-0.0591402
-0.0547058
-0.0504072
-0.0459049
-0.0413574
-0.0469457
-0.0527149
-0.0536878
-0.0544796
-0.0555882
-0.0545023
-0.0468326
-0.0389367
-0.0410407
-0.0456335
-0.0430543
-0.0453394
-0.0569683
-0.0706788
-0.080905
-0.0907014
-0.109932
-0.128303
-0.139615
-0.146312
-0.144344
-0.140249
-0.134955
-0.129819
-0.134796
-0.139887
-0.139977
-0.139932
-0.144751
-0.144434
-0.134005
-0.123484
-0.117896
-0.127308
-0.136719
-0.131131
-0.125566
-0.125
-0.124389
-0.128688
-0.132919
-0.127149
-0.12138
-0.115611
-0.109842
-0.104027
-0.0981674
-0.107217
-0.116176
-0.110068
-0.103959
-0.0978507
-0.0916968
-0.0954978
-0.0992534
-0.0929638
-0.0866742
-0.0853846
-0.0841177
-0.0828733
-0.0817195
-0.0806335
-0.0796154
-0.0836652
-0.0878733
-0.0822398
-0.0768099
-0.0765837
-0.0715385
-0.0616742
-0.0569683
-0.0573982
-0.0629412
-0.0786425
-0.0795023
-0.0804977
-0.0815837
-0.0827376
-0.0639367
-0.0451584
-0.0264706
-0.00785069
-0.00425339
0.00429863
0.0227828
0.0312443
0.0047285
-0.0217421
-0.0381448
-0.0495023
-0.0608371
-0.0720815
-0.0682127
-0.0642308
-0.0601131
-0.0608598
-0.0714932
-0.0820815
-0.0926471
-0.0981901
-0.0986878
-0.0990724
-0.104367
-0.109593
-0.104774
-0.100023
-0.0953394
-0.0906787
-0.0860407
-0.0813122
-0.0815159
-0.0666968
-0.0469005
-0.102149
-0.0424208
-0.532692
-0.882941
-0.933122
-0.933258
-0.383394
0.246471
1.32633
2.2912
2.75604
3.09588
3.01079
2.89575
2.71068
2.25559
1.2405
0.435385
-0.0247738
-0.279864
-0.239887
-0.209864
-0.184842
-0.184887
-0.204977
-0.225045
-0.245113
-0.260158
-0.270136
-0.275068
-0.269977
-0.264955
-0.26
-0.250045
-0.240091
-0.235113
-0.240113
-0.245136
-0.240181
-0.230204
-0.220204
-0.210181
-0.200136
-0.195068
-0.194977
-0.189932
-0.184977
-0.175068
-0.165158
-0.160204
-0.155204
-0.150204
-0.145204
-0.140158
-0.135068
-0.125
-0.109955
-0.0898869
-0.0748416
-0.0698417
-0.0648417
-0.0548643
-0.0449095
-0.0349322
-0.0149095
0.00513572
0.020181
0.0302489
0.035362
0.0404977
0.060543
0.0854525
0.105385
0.120339
0.130317
0.140317
0.145407
0.150588
0.160814
0.171086
0.18638
0.201719
0.207172
0.202692
0.1931
0.178394
0.168643
0.158869
0.134027
0.10905
0.0839819
0.0588914
0.0338009
0.00868778
-0.0114932
-0.0318326
-0.0423303
-0.0527828
-0.0631222
-0.0783937
-0.0935973
-0.103756
-0.103824
-0.103937
-0.094095
-0.0842308
-0.0993439
-0.109412
-0.119457
-0.119412
-0.109253
-0.104299
-0.104027
-0.110995
-0.12457
-0.133371
-0.142172
-0.148507
-0.142014
-0.130656
-0.114955
-0.102172
-0.0978733
-0.0889819
-0.0752715
-0.0617421
-0.0489592
-0.0340497
-0.0125113
-0.0184841
-0.0279411
-0.0352714
-0.046742
-0.0477601
-0.0510859
-0.0712669
-0.0912896
-0.110837
-0.129412
-0.141946
-0.150136
-0.157602
-0.154231
-0.148937
-0.143801
-0.148823
-0.153937
-0.154186
-0.154367
-0.154434
-0.154412
-0.154299
-0.154118
-0.153869
-0.153597
-0.153326
-0.143054
-0.127783
-0.122489
-0.127172
-0.131833
-0.136471
-0.141086
-0.145701
-0.150339
-0.145
-0.139661
-0.144276
-0.138801
-0.128258
-0.127715
-0.127195
-0.126674
-0.126176
-0.130701
-0.135158
-0.129525
-0.123824
-0.1281
-0.132398
-0.116719
-0.100995
-0.105204
-0.109367
-0.113484
-0.117602
-0.116719
-0.11586
-0.105023
-0.0942082
-0.0934163
-0.0926018
-0.0967647
-0.100973
-0.100271
-0.0996606
-0.104186
-0.108846
-0.10362
-0.0835294
-0.0585747
-0.0487557
-0.0440724
-0.0395249
-0.0351357
-0.0108824
0.0132579
-0.00262443
-0.0285068
-0.0443665
-0.0652036
-0.0810181
-0.0967647
-0.0823982
-0.0679186
-0.0682805
-0.0684842
-0.0736652
-0.0788235
-0.0839593
-0.0890724
-0.0991177
-0.109072
-0.103959
-0.0988236
-0.0986652
-0.0985521
-0.0934842
-0.0884389
-0.0833711
-0.0782579
-0.0730996
-0.0679412
-0.0628281
-0.137738
-0.282647
-0.572579
-0.952534
-1.01244
-0.917263
-0.402127
0.272964
1.21803
2.24808
2.75815
3.14824
3.09333
2.96842
2.73848
2.49853
1.5336
2.48369
0.0937783
-0.326131
-0.281018
-0.23586
-0.210679
-0.185498
-0.205317
-0.225136
-0.234977
-0.244842
-0.249683
-0.254502
-0.254321
-0.25414
-0.248959
-0.243778
-0.238529
-0.233235
-0.232941
-0.232647
-0.232353
-0.227127
-0.216968
-0.206833
-0.196674
-0.191471
-0.191267
-0.191063
-0.185837
-0.175611
-0.165385
-0.150158
-0.134932
-0.129729
-0.129548
-0.129321
-0.12405
-0.113824
-0.103643
-0.0934163
-0.0831448
-0.0728733
-0.0676018
-0.0573529
-0.0471267
-0.0369231
-0.0267421
-0.0115158
0.00375565
0.0140045
0.0242308
0.039457
0.0546833
0.0649095
0.0801131
0.100249
0.115385
0.120588
0.125928
0.131425
0.136946
0.142466
0.152896
0.163235
0.16862
0.16405
0.15448
0.139819
0.11991
0.0997737
0.0745701
0.0493439
0.0243213
-0.000520371
-0.0252941
-0.0450226
-0.0597285
-0.0744344
-0.0792082
-0.0840272
-0.0988914
-0.113778
-0.123575
-0.138303
-0.133009
-0.127692
-0.127353
-0.126991
-0.131606
-0.136199
-0.135769
-0.135317
-0.134864
-0.134796
-0.13043
-0.127421
-0.136176
-0.145136
-0.148529
-0.14828
-0.14371
-0.134027
-0.114118
-0.0936652
-0.083733
-0.0791629
-0.0747964
-0.0741855
-0.0816968
-0.0935972
-0.0910181
-0.0985068
-0.11086
-0.123484
-0.137149
-0.143167
-0.14267
-0.142376
-0.137285
-0.132398
-0.137534
-0.142511
-0.142376
-0.142149
-0.141878
-0.131561
-0.131199
-0.135792
-0.140339
-0.144887
-0.14948
-0.13914
-0.128801
-0.128439
-0.128054
-0.132624
-0.137172
-0.131742
-0.126357
-0.125928
-0.125543
-0.125113
-0.124661
-0.124186
-0.123688
-0.12819
-0.132738
-0.127308
-0.121878
-0.116448
-0.110995
-0.11552
-0.120023
-0.119525
-0.119027
-0.113529
-0.108032
-0.107534
-0.107014
-0.101471
-0.0959502
-0.10043
-0.10491
-0.104389
-0.0988914
-0.0883937
-0.0928733
-0.102376
-0.111923
-0.121516
-0.116176
-0.110905
-0.0856787
-0.0604751
-0.0452941
-0.0301357
-0.0450452
-0.0500226
-0.0100905
0.0197285
0.0194344
0.00909502
-0.021267
-0.0466516
-0.0620588
-0.0724661
-0.0828507
-0.0882127
-0.0785294
-0.073733
-0.0738235
-0.0788688
-0.0938914
-0.103914
-0.108959
-0.113937
-0.113846
-0.113733
-0.113597
-0.113462
-0.113326
-0.113213
-0.108122
-0.0980317
-0.0879412
-0.077828
-0.0676923
-0.0825792
-0.112489
-0.402398
-0.682308
-0.86724
-0.992172
-0.602036
-0.0968552
1.0333
2.05844
2.65857
3.10871
3.1138
3.07385
2.90894
2.45907
1.45925
0.629389
0.069457
-0.240498
-0.215452
-0.190407
-0.155339
-0.160226
-0.200113
-0.230023
-0.249932
-0.259864
-0.264819
-0.269706
-0.27457
-0.279457
-0.279367
-0.269321
-0.254321
-0.249299
-0.244253
-0.239186
-0.239095
-0.239005
-0.233914
-0.223824
-0.228733
-0.208643
-0.208552
-0.198484
-0.188439
-0.188371
-0.188281
-0.178235
-0.168235
-0.158235
-0.148235
-0.14319
-0.1381
-0.133032
-0.127986
-0.117941
-0.107964
-0.0979864
-0.0879638
-0.0779185
-0.0678507
-0.0527375
-0.042647
-0.0276244
-0.0126244
0.00237557
0.0173982
0.0324661
0.0525113
0.0675113
0.0824661
0.102376
0.12233
0.13733
0.152398
0.167534
0.177738
0.188009
0.19319
0.198326
0.203665
0.209186
0.194751
0.175294
0.155701
0.135928
0.110973
0.0858597
0.0655882
0.0402715
0.0100453
-0.0202489
-0.0456787
-0.0661538
-0.0766742
-0.0871267
-0.0974887
-0.107783
-0.113009
-0.11819
-0.123326
-0.128507
-0.123733
-0.118959
-0.119163
-0.119276
-0.119299
-0.119253
-0.11914
-0.119072
-0.119118
-0.120498
-0.118167
-0.121674
-0.135747
-0.143077
-0.143145
-0.138122
-0.128507
-0.116244
-0.0968552
-0.0771945
-0.0666968
-0.0553846
-0.0503619
-0.0345701
-0.023733
-0.0223529
-0.0264027
-0.0351357
-0.0468552
-0.0660407
-0.0856561
-0.100385
-0.114434
-0.122647
-0.126471
-0.135588
-0.142534
-0.142421
-0.142602
-0.138054
-0.133507
-0.128937
-0.124208
-0.129321
-0.134344
-0.139299
-0.144231
-0.139118
-0.133959
-0.133824
-0.13362
-0.128439
-0.123235
-0.128009
-0.132805
-0.127624
-0.122376
-0.117059
-0.111765
-0.116471
-0.121222
-0.120995
-0.120747
-0.120475
-0.105181
-0.0998642
-0.104525
-0.109186
-0.113846
-0.118507
-0.108145
-0.0978054
-0.097466
-0.0970814
-0.0966289
-0.0961086
-0.095543
-0.0949321
-0.0942308
-0.0936199
-0.0979864
-0.10233
-0.0916742
-0.0809728
-0.0802262
-0.0795249
-0.0738914
-0.068371
-0.0729411
-0.0825339
-0.0921493
-0.0969004
-0.0968325
-0.081923
-0.0571493
-0.0325113
-0.00803161
-0.00371035
-0.0145475
0.00447969
0.0333711
0.0371268
0.0307693
0.00438918
-0.0219457
-0.0432126
-0.0594117
-0.0705203
-0.0815384
-0.072466
-0.0633032
-0.0640271
-0.0646154
-0.0750905
-0.0854977
-0.0908371
-0.0961086
-0.101312
-0.106493
-0.101652
-0.0967873
-0.0969004
-0.0970136
-0.0921719
-0.0873303
-0.082466
-0.0726018
-0.0577375
-0.0778959
-0.133054
-0.358167
-0.703281
-0.868371
-0.933462
-0.668529
-0.243575
0.646403
1.70638
2.39127
2.97109
3.06093
3.04579
2.86568
2.66059
1.68052
0.635475
0.15043
-0.309615
-0.249661
-0.189729
-0.179819
-0.16991
-0.199955
-0.229955
-0.244977
-0.260023
-0.26509
-0.270204
-0.270339
-0.270452
-0.26552
-0.260566
-0.255543
-0.250543
-0.245611
-0.240701
-0.245769
-0.250792
-0.235769
-0.225747
-0.210769
-0.200814
-0.20086
-0.200928
-0.196018
-0.191018
-0.185973
-0.175973
-0.166018
-0.156063
-0.146109
-0.131109
-0.116063
-0.111018
-0.110973
-0.110905
-0.105814
-0.0957466
-0.100724
-0.0657466
-0.0507918
-0.0358371
-0.0208823
-0.0158823
-0.0108371
0.00918552
0.0341855
0.0642081
0.0892534
0.0992987
0.109321
0.124276
0.144186
0.159095
0.169095
0.174231
0.184502
0.19991
0.210294
0.210588
0.21086
0.216154
0.221425
0.216629
0.196652
0.171493
0.146199
0.120814
0.0954525
0.0701131
0.0449095
0.024819
-0.000226256
-0.0252263
-0.0402489
-0.0553167
-0.0704525
-0.0856335
-0.0908145
-0.0959729
-0.101063
-0.101109
-0.101154
-0.101199
-0.106222
-0.111222
-0.111176
-0.111086
-0.105973
-0.100973
-0.106244
-0.112624
-0.125656
-0.139321
-0.143122
-0.144231
-0.146923
-0.139683
-0.106946
-0.0779864
-0.073552
-0.0728054
-0.0711312
-0.0737103
-0.075
-0.0811312
-0.0971493
-0.114842
-0.128258
-0.133213
-0.129593
-0.127398
-0.13276
-0.137534
-0.137195
-0.13733
-0.137738
-0.133167
-0.123552
-0.123801
-0.133937
-0.138959
-0.148914
-0.138869
-0.128846
-0.128846
-0.128846
-0.133869
-0.138914
-0.133891
-0.128846
-0.128778
-0.12871
-0.123688
-0.118688
-0.123665
-0.12862
-0.123507
-0.118416
-0.123348
-0.128281
-0.128213
-0.128122
-0.128009
-0.127896
-0.132805
-0.137738
-0.13267
-0.122624
-0.11267
-0.107602
-0.112511
-0.117353
-0.117149
-0.116991
-0.111878
-0.106742
-0.106538
-0.106267
-0.110928
-0.115588
-0.110249
-0.104909
-0.10457
-0.109253
-0.113937
-0.118597
-0.123235
-0.112851
-0.102511
-0.0772624
-0.0520362
-0.0418099
-0.0315837
-0.0163801
-0.00126696
0.00873305
0.0136426
-0.00158369
-0.0167647
-0.0369909
-0.0522398
-0.0624887
-0.0727375
-0.0779864
-0.0782127
-0.0684163
-0.0635973
-0.0687556
-0.0788235
-0.0888461
-0.0938235
-0.093733
-0.0936425
-0.093552
-0.0934615
-0.098371
-0.0982805
-0.08819
-0.0830769
-0.0779411
-0.0578507
-0.0378054
-0.0627828
-0.0977828
-0.427805
-0.757851
-0.957896
-1.11292
-0.697873
-0.222783
0.682263
1.56726
2.32726
2.94226
3.03226
3.06726
2.95222
2.65213
1.94706
1.21706
0.437127
-0.0927602
-0.252647
-0.307557
-0.217466
-0.172398
-0.172353
-0.187285
-0.217172
-0.242036
-0.261923
-0.271833
-0.266787
-0.256697
-0.246561
-0.241425
-0.24129
-0.241154
-0.241018
-0.23586
-0.225701
-0.215588
-0.205498
-0.200362
-0.200181
-0.200023
-0.209887
-0.194751
-0.179615
-0.169525
-0.15948
-0.149412
-0.139321
-0.134231
-0.12914
-0.124072
-0.119027
-0.103959
-0.0888462
-0.0786878
-0.0685068
-0.0683484
-0.0632353
-0.0481448
-0.0330543
-0.0179412
-0.00780544
0.00733031
0.0174661
0.0275792
0.0376697
0.0527828
0.0728959
0.0929864
0.103054
0.1031
0.108167
0.118258
0.138416
0.158643
0.163937
0.169276
0.174548
0.174796
0.175068
0.175339
0.170566
0.175747
0.140815
0.125882
0.106018
0.0861765
0.0613349
0.0365159
0.0167421
-0.00305427
-0.0228733
-0.0426923
-0.0675339
-0.0824208
-0.0973303
-0.112195
-0.112104
-0.1119
-0.116719
-0.121538
-0.12138
-0.121222
-0.121018
-0.120814
-0.115611
-0.110362
-0.115068
-0.119909
-0.114932
-0.111425
-0.119118
-0.1269
-0.124344
-0.118529
-0.115113
-0.108439
-0.105045
-0.102149
-0.0954525
-0.0923982
-0.0864706
-0.0820136
-0.0890498
-0.103869
-0.114887
-0.126471
-0.13681
-0.138937
-0.139774
-0.134457
-0.128982
-0.128801
-0.128665
-0.133575
-0.138484
-0.138371
-0.138258
-0.138077
-0.137828
-0.137534
-0.137217
-0.1419
-0.146606
-0.146335
-0.141086
-0.130837
-0.125566
-0.130272
-0.134955
-0.134638
-0.134344
-0.129118
-0.123869
-0.118597
-0.113303
-0.117987
-0.122647
-0.122285
-0.121923
-0.121584
-0.121267
-0.120973
-0.120656
-0.120294
-0.11991
-0.119525
-0.114186
-0.108869
-0.108529
-0.108167
-0.107783
-0.107398
-0.106991
-0.106629
-0.106312
-0.106018
-0.100724
-0.0954073
-0.0950679
-0.0947285
-0.104457
-0.114276
-0.119163
-0.124027
-0.113869
-0.0987104
-0.0735521
-0.0584163
-0.0483258
-0.0332806
-0.0132806
0.0016968
0.0116968
-0.00341631
-0.0385068
-0.0585521
-0.0685521
-0.0835294
-0.0984842
-0.0934163
-0.0783258
-0.0732127
-0.0730996
-0.0730317
-0.0779638
-0.092896
-0.0828507
-0.107783
-0.10267
-0.102534
-0.102398
-0.102262
-0.102127
-0.096991
-0.0918552
-0.0817195
-0.0715837
-0.066448
-0.0613122
-0.0661538
-0.130973
-0.310814
-0.540701
-0.845588
-0.94543
-0.760249
-0.255091
0.615023
1.49514
2.39027
2.89541
3.10557
3.13575
3.04591
2.58102
1.92611
1.12118
0.251222
-0.088733
-0.253688
-0.24362
-0.178529
-0.183439
-0.203348
-0.228281
-0.253235
-0.26319
-0.273145
-0.2781
-0.278054
-0.278009
-0.277964
-0.272941
-0.267941
-0.257964
-0.247986
-0.242941
-0.237851
-0.237783
-0.237738
-0.232715
-0.227715
-0.217692
-0.207647
-0.202579
-0.197489
-0.192421
-0.187376
-0.18233
-0.17233
-0.162376
-0.152398
-0.142398
-0.137376
-0.13233
-0.122308
-0.112308
-0.102308
-0.0923077
-0.0823077
-0.0723077
-0.0623077
-0.0523077
-0.0323303
-0.0123755
0.00257921
0.017534
0.0325113
0.0475113
0.0575339
0.0725792
0.0975792
0.122534
0.137443
0.152308
0.15724
0.162262
0.172421
0.18267
0.192964
0.203281
0.20362
0.203914
0.19414
0.174276
0.144208
0.113959
0.0835747
0.0530995
0.0275339
0.00208145
-0.0232127
-0.0434163
-0.058552
-0.0736199
-0.0886425
-0.0987556
-0.103846
-0.114072
-0.124299
-0.12948
-0.129615
-0.129706
-0.129751
-0.129796
-0.124842
-0.119842
-0.124796
-0.129728
-0.129638
-0.129593
-0.129864
-0.12595
-0.1231
-0.131674
-0.140724
-0.138937
-0.13414
-0.134434
-0.129615
-0.114593
-0.0978959
-0.0811765
-0.0685068
-0.0607919
-0.0587557
-0.0563349
-0.0649548
-0.0780317
-0.0921946
-0.106312
-0.116222
-0.121833
-0.12448
-0.124751
-0.125
-0.125272
-0.125747
-0.12638
-0.126901
-0.127285
-0.127557
-0.127738
-0.127873
-0.122964
-0.117986
-0.122941
-0.127896
-0.127851
-0.127805
-0.12276
-0.117715
-0.117692
-0.11767
-0.117624
-0.117579
-0.117534
-0.117489
-0.117443
-0.107398
-0.0973303
-0.10224
-0.107149
-0.112059
-0.116991
-0.111946
-0.1069
-0.101855
-0.0967873
-0.0966742
-0.0965385
-0.0963801
-0.0962217
-0.0910634
-0.0858824
-0.0856787
-0.0854299
-0.0851358
-0.084819
-0.0894797
-0.0941629
-0.0938462
-0.0935068
-0.0880996
-0.0826697
-0.0872398
-0.0918552
-0.0965158
-0.101222
-0.100995
-0.0908371
-0.0757466
-0.0507466
-0.0257919
-0.0208824
-0.011086
0.00852941
0.0279638
0.0322172
0.0363348
0.0153846
-0.00565612
-0.0217873
-0.0379185
-0.0540271
-0.0700679
-0.0660407
-0.0619457
-0.0577602
-0.0535294
-0.0642308
-0.0748869
-0.0854751
-0.0960181
-0.0915158
-0.0869457
-0.087285
-0.0875565
-0.0878054
-0.0880543
-0.0832805
-0.0785746
-0.0789366
-0.074276
-0.0645927
-0.0599321
-0.0602941
-0.220611
-0.435882
-0.686176
-0.941493
-0.80681
-0.602104
0.322647
1.32742
2.11717
1.37688
3.01154
3.1262
3.02591
2.85063
1.93038
1.04516
0.384955
-0.160226
-0.19043
-0.210656
-0.175882
-0.151109
-0.181335
-0.211561
-0.236787
-0.257036
-0.262308
-0.267579
-0.272828
-0.278054
-0.273303
-0.268597
-0.268914
-0.269253
-0.264593
-0.254842
-0.245023
-0.240204
-0.235385
-0.230566
-0.225747
-0.220973
-0.216244
-0.211516
-0.206787
-0.197014
-0.18724
-0.177489
-0.16776
-0.158009
-0.148258
-0.143529
-0.143756
-0.138914
-0.134072
-0.124276
-0.114502
-0.0997285
-0.0849547
-0.080181
-0.0754072
-0.0656335
-0.0558597
-0.0411086
-0.0263801
-0.00667418
0.0030317
0.0127828
0.0275792
0.0423756
0.0571041
0.0767647
0.101357
0.125905
0.150498
0.170158
0.18
0.180023
0.185068
0.195136
0.205204
0.215294
0.215362
0.205407
0.200339
0.195113
0.174683
0.154095
0.123416
0.0927149
0.067172
0.0417421
0.0213801
-0.00391402
-0.0191629
-0.0344796
-0.0449095
-0.0554072
-0.0708824
-0.0863122
-0.0966969
-0.107059
-0.112398
-0.117715
-0.103009
-0.0882805
-0.0885294
-0.088733
-0.0888462
-0.0889819
-0.0941629
-0.100091
-0.102014
-0.105113
-0.109412
-0.118032
-0.130452
-0.13267
-0.119231
-0.0958371
-0.0751357
-0.0582127
-0.0528507
-0.0467195
-0.0452489
-0.0519457
-0.0653167
-0.0826244
-0.0925792
-0.101991
-0.114932
-0.125362
-0.132376
-0.135543
-0.136674
-0.131855
-0.127014
-0.127557
-0.128235
-0.128959
-0.129661
-0.125204
-0.120656
-0.116041
-0.111403
-0.126742
-0.142014
-0.142195
-0.14233
-0.142443
-0.142624
-0.132828
-0.123032
-0.113235
-0.103416
-0.118575
-0.12371
-0.123824
-0.123914
-0.123982
-0.119027
-0.10905
-0.114095
-0.129186
-0.129299
-0.119434
-0.11457
-0.109706
-0.104796
-0.104842
-0.104887
-0.104955
-0.105023
-0.10509
-0.105158
-0.100226
-0.100249
-0.105272
-0.110294
-0.115317
-0.105339
-0.095362
-0.085362
-0.0752715
-0.0750905
-0.0748416
-0.0895475
-0.104321
-0.104208
-0.0991176
-0.0790271
-0.0639366
-0.0538235
-0.043733
-0.0387104
-0.0237556
0.00613124
0.025905
0.0305656
0.0201584
-0.0103167
-0.0308371
-0.0414027
-0.0519909
-0.0726018
-0.0681674
-0.0536878
-0.0491403
-0.0495022
-0.054819
-0.0651131
-0.0703846
-0.0756561
-0.0809276
-0.0811991
-0.0813801
-0.086448
-0.091448
-0.101403
-0.0913801
-0.0813801
-0.0764027
-0.071448
-0.0614932
-0.0515385
-0.0665837
-0.126652
-0.351787
-0.596968
-0.902104
-1.04717
-0.787172
-0.327149
0.507828
1.36276
2.24765
2.83751
3.04735
3.08722
2.93715
2.5921
2.07206
1.34199
0.4619
-0.0182127
-0.253348
-0.278416
-0.198416
-0.173394
-0.168348
-0.178348
-0.208394
-0.223416
-0.238416
-0.243371
-0.243281
-0.248235
-0.258235
-0.263258
-0.263303
-0.243371
-0.233462
-0.228507
-0.223507
-0.223462
-0.223348
-0.218258
-0.21319
-0.208167
-0.203145
-0.198077
-0.192964
-0.182828
-0.172738
-0.162715
-0.15276
-0.142783
-0.13276
-0.127692
-0.122602
-0.117511
-0.107443
-0.0973982
-0.0873529
-0.0723077
-0.0572851
-0.0472624
-0.0372172
-0.0271719
-0.0121719
0.00278282
0.0178054
0.0328959
0.0380543
0.0432806
0.0534389
0.0635294
0.0884616
0.113258
0.122986
0.132647
0.142308
0.146991
0.151742
0.156606
0.166561
0.176652
0.181946
0.187398
0.172941
0.158462
0.143824
0.129072
0.114253
0.0943665
0.0694118
0.0445475
0.0197964
-0.00990949
-0.0345927
-0.0542986
-0.0690498
-0.0788461
-0.0836878
-0.0885294
-0.0933484
-0.10319
-0.118077
-0.128032
-0.123077
-0.1181
-0.117851
-0.116855
-0.114796
-0.111154
-0.106946
-0.103529
-0.0976244
-0.0965384
-0.110588
-0.130204
-0.15276
-0.175113
-0.190475
-0.196629
-0.196652
-0.194593
-0.186244
-0.183145
-0.178507
-0.163891
-0.15095
-0.135656
-0.123688
-0.115656
-0.109661
-0.119593
-0.12957
-0.134095
-0.138529
-0.127964
-0.117443
-0.117059
-0.116765
-0.121561
-0.12638
-0.131199
-0.136063
-0.130995
-0.125995
-0.121041
-0.116018
-0.115973
-0.115928
-0.115882
-0.120882
-0.130928
-0.130973
-0.121018
-0.121063
-0.131109
-0.136154
-0.131222
-0.12629
-0.126357
-0.111425
-0.106471
-0.111471
-0.116448
-0.116448
-0.116471
-0.111516
-0.106584
-0.106674
-0.106765
-0.101833
-0.0968778
-0.101923
-0.106991
-0.101968
-0.0971041
-0.102262
-0.107421
-0.112579
-0.117783
-0.103032
-0.0882805
-0.0685294
-0.053733
-0.0388914
-0.0190045
0.000927612
0.010905
0.005905
-0.00907238
-0.0240045
-0.0388235
-0.0534841
-0.0679638
-0.082285
-0.0865611
-0.0807918
-0.075
-0.0691855
-0.0633032
-0.0674434
-0.0816289
-0.0908597
-0.0951584
-0.0995701
-0.0990724
-0.0986425
-0.0932805
-0.0879638
-0.092647
-0.0973303
-0.0920362
-0.0867873
-0.0766063
-0.0664706
-0.0613122
-0.111131
-0.27095
-0.500769
-0.840588
-0.955407
-0.795226
-0.300045
0.540158
1.43038
2.35559
2.86077
3.07593
3.09606
3.0012
2.50133
1.82147
1.02163
0.18181
-0.118032
-0.262896
-0.23776
-0.172624
-0.167489
-0.177353
-0.207172
-0.236946
-0.251765
-0.271629
-0.266538
-0.261493
-0.26138
-0.261199
-0.256018
-0.250837
-0.250679
-0.250543
-0.245452
-0.240407
-0.230362
-0.220294
-0.215158
-0.209977
-0.204842
-0.199706
-0.18957
-0.17948
-0.174457
-0.169434
-0.164367
-0.159299
-0.154276
-0.144276
-0.134253
-0.124208
-0.114163
-0.109072
-0.108982
-0.103914
-0.0938688
-0.0838235
-0.0737783
-0.0587104
-0.0436199
-0.033552
-0.0235068
-0.0134389
-0.00334842
0.0117421
0.00183257
0.0519683
0.0721267
0.0872172
0.102217
0.117127
0.131946
0.141765
0.151584
0.166425
0.18129
0.181176
0.181154
0.181267
0.181516
0.181674
0.176968
0.162217
0.137443
0.102647
0.0727602
0.0477828
0.0228054
0.0028733
-0.016991
-0.0467873
-0.0615385
-0.0762896
-0.091086
-0.100905
-0.105747
-0.110611
-0.115498
-0.115407
-0.115294
-0.120158
-0.125068
-0.125045
-0.125045
-0.124955
-0.124638
-0.123348
-0.120656
-0.117353
-0.114231
-0.113326
-0.11586
-0.122941
-0.13405
-0.145973
-0.156697
-0.163914
-0.167059
-0.167353
-0.165996
-0.160339
-0.145679
-0.130701
-0.126312
-0.125588
-0.12871
-0.133326
-0.133733
-0.133891
-0.12862
-0.12319
-0.127715
-0.132353
-0.132104
-0.131946
-0.1269
-0.121832
-0.126742
-0.131674
-0.131629
-0.131584
-0.131538
-0.131493
-0.126471
-0.121471
-0.116471
-0.116425
-0.126335
-0.131244
-0.121176
-0.121131
-0.121131
-0.116154
-0.111154
-0.111131
-0.111086
-0.111018
-0.11095
-0.110905
-0.11086
-0.110814
-0.110769
-0.105724
-0.100679
-0.100679
-0.100701
-0.100724
-0.100769
-0.100837
-0.100882
-0.095905
-0.0909729
-0.091086
-0.0912217
-0.0963801
-0.101538
-0.10681
-0.106923
-0.0970362
-0.082172
-0.0673303
-0.0524887
-0.0376244
-0.0227602
-0.00789593
0.00196833
0.0118778
0.01181
0.00176471
-0.0182579
-0.00323528
-0.0481448
-0.0529412
-0.0626696
-0.0724208
-0.0672172
-0.0620588
-0.0669231
-0.0718099
-0.0816968
-0.0915837
-0.0965158
-0.101493
-0.106516
-0.111561
-0.111674
-0.111719
-0.106787
-0.10181
-0.101765
-0.101742
-0.0967647
-0.0868326
-0.0769231
-0.0920362
-0.132172
-0.337285
-0.642376
-0.827444
-0.947489
-0.687534
-0.267579
0.622376
1.67233
2.34731
2.92231
3.03731
3.06231
2.93731
2.78731
1.85731
0.877308
0.307353
-0.242557
-0.232489
-0.222466
-0.192511
-0.162602
-0.192692
-0.222783
-0.252828
-0.272828
-0.277851
-0.282896
-0.277941
-0.272986
-0.273009
-0.272986
-0.267964
-0.263009
-0.2581
-0.25319
-0.253281
-0.248394
-0.238507
-0.233575
-0.233597
-0.23362
-0.228688
-0.218801
-0.208891
-0.193982
-0.179072
-0.17414
-0.174186
-0.174231
-0.174276
-0.169344
-0.159434
-0.149525
-0.139615
-0.129706
-0.119796
-0.114864
-0.10491
-0.0949774
-0.0850679
-0.070181
-0.0553167
-0.0454525
-0.035543
-0.015543
0.00447964
0.019457
0.0344118
0.0493439
0.0642534
0.0791403
0.0990272
0.118914
0.138869
0.153891
0.163959
0.174072
0.184253
0.199502
0.204796
0.200136
0.195452
0.190701
0.180905
0.166222
0.13638
0.106561
0.0866968
0.0617421
0.0416742
0.0214932
0.00117647
-0.0192081
-0.0395701
-0.06
-0.0656109
-0.0713122
-0.081991
-0.0776244
-0.0981674
-0.0986199
-0.113959
-0.129231
-0.12448
-0.119706
-0.114932
-0.110204
-0.10552
-0.10086
-0.10629
-0.112579
-0.120181
-0.128597
-0.132557
-0.135362
-0.13629
-0.133145
-0.130204
-0.124253
-0.110747
-0.0967873
-0.0827828
-0.0694118
-0.0567873
-0.0483031
-0.0488235
-0.0505429
-0.0484615
-0.0402262
-0.0268778
-0.0201131
-0.021199
-0.0271719
-0.042285
-0.0606787
-0.0757013
-0.0907239
-0.105362
-0.119276
-0.130271
-0.141968
-0.150475
-0.14138
-0.131493
-0.131629
-0.131923
-0.127443
-0.122919
-0.12819
-0.133348
-0.133416
-0.133462
-0.128462
-0.123394
-0.123281
-0.123122
-0.122919
-0.122715
-0.122534
-0.122376
-0.11724
-0.112104
-0.111946
-0.111765
-0.111561
-0.111335
-0.111086
-0.110837
-0.105566
-0.100272
-0.0949548
-0.0895928
-0.0891855
-0.0987783
-0.113371
-0.112896
-0.102376
-0.0968552
-0.0963122
-0.095724
-0.0951131
-0.0944797
-0.0837783
-0.083009
-0.0821946
-0.0763575
-0.070543
-0.0697511
-0.0689593
-0.0681448
-0.0673756
-0.0616968
-0.056086
-0.065543
-0.0751131
-0.084819
-0.0947059
-0.0947964
-0.085
-0.0553394
-0.0258145
-0.00142534
0.00785067
-0.00798643
-0.00391403
0.0300679
0.0440045
0.0328959
0.0167647
-0.00432127
-0.0254299
-0.046448
-0.0574208
-0.0633484
-0.0691855
-0.0649321
-0.0455656
-0.026086
-0.0364706
-0.0567647
-0.0720362
-0.0872851
-0.0924887
-0.0926697
-0.087828
-0.0829638
-0.0930769
-0.103167
-0.0932805
-0.0834163
-0.068552
-0.0536878
-0.0388235
-0.0239593
-0.039095
-0.134231
-0.439367
-0.724502
-0.969638
-0.984819
-0.604977
0.0548869
1.10475
1.98966
2.68459
3.0245
3.01941
2.9293
2.77416
2.13405
1.18396
0.478869
-0.0912217
-0.261244
-0.251199
-0.211176
-0.161176
-0.166154
-0.201109
-0.221086
-0.241086
-0.246086
-0.251086
-0.256063
-0.256018
-0.25095
-0.24586
-0.240769
-0.235679
-0.230611
-0.225566
-0.220498
-0.215407
-0.210294
-0.205158
-0.200023
-0.194887
-0.189751
-0.184638
-0.179548
-0.174434
-0.169276
-0.164072
-0.153846
-0.143665
-0.138552
-0.128484
-0.113416
-0.103303
-0.0981674
-0.0880543
-0.0779638
-0.0728733
-0.0677375
-0.0575792
-0.0473982
-0.0322172
-0.0170362
-0.00685521
0.00332579
0.0185068
0.0336878
0.0438914
0.0541177
0.0692987
0.0844344
0.0945023
0.109502
0.114502
0.119548
0.129729
0.140045
0.145452
0.150882
0.151267
0.151697
0.157285
0.162941
0.158575
0.154163
0.139683
0.120045
0.095181
0.0702036
0.0551358
0.0400226
0.0199095
-0.000203602
-0.0253167
-0.0404072
-0.0505203
-0.0606335
-0.0757466
-0.0858145
-0.0908145
-0.0957919
-0.100747
-0.105747
-0.105792
-0.105814
-0.105792
-0.105633
-0.105362
-0.105
-0.104548
-0.104163
-0.109208
-0.115633
-0.118348
-0.107172
-0.106063
-0.108258
-0.107489
-0.111968
-0.112489
-0.0999321
-0.085724
-0.0663574
-0.0461764
-0.035294
-0.0266062
-0.0216062
-0.0216741
-0.0223981
-0.0325791
-0.0373528
-0.0445927
-0.0590044
-0.0734841
-0.0880542
-0.101923
-0.114389
-0.122443
-0.126561
-0.128258
-0.13319
-0.13819
-0.13828
-0.138484
-0.13371
-0.128778
-0.128688
-0.128439
-0.133077
-0.137624
-0.137149
-0.136697
-0.136244
-0.130769
-0.120271
-0.119774
-0.124276
-0.128756
-0.133213
-0.132647
-0.132081
-0.121538
-0.110973
-0.115339
-0.119661
-0.113982
-0.108303
-0.107624
-0.106946
-0.111267
-0.115588
-0.109887
-0.10414
-0.103348
-0.102557
-0.101765
-0.100928
-0.100045
-0.0991402
-0.0982126
-0.0972398
-0.0912217
-0.0852036
-0.0841855
-0.0832353
-0.0823303
-0.0814253
-0.075543
-0.0697059
-0.073914
-0.07819
-0.0775339
-0.0769004
-0.0812896
-0.0857692
-0.0903394
-0.0750452
-0.0449095
-0.0299321
-0.0151357
-0.0104751
-0.00590495
0.0135521
0.032896
0.0171493
0.00138011
-0.0143891
-0.0301357
-0.0458823
-0.0615384
-0.0620814
-0.0625339
-0.0628733
-0.0631221
-0.0582579
-0.0583484
-0.0733936
-0.083371
-0.0882805
-0.0931448
-0.0929638
-0.0927602
-0.0925566
-0.0923982
-0.0922624
-0.0920362
-0.0867647
-0.0814932
-0.0812217
-0.0709955
-0.0558145
-0.0806335
-0.120453
-0.390226
-0.699955
-0.854706
-0.98948
-0.574276
-0.999095
0.921041
1.94613
2.53124
3.06138
3.07154
3.05672
2.8819
2.55208
1.57224
0.697376
0.157534
-0.232285
-0.212127
-0.186991
-0.156855
-0.146697
-0.176538
-0.206357
-0.236176
-0.255996
-0.270837
-0.270679
-0.260498
-0.255317
-0.255136
-0.254932
-0.249683
-0.244434
-0.244208
-0.244005
-0.238824
-0.228665
-0.218529
-0.213348
-0.213122
-0.212919
-0.207738
-0.197534
-0.187308
-0.182081
-0.176855
-0.166652
-0.161471
-0.156267
-0.151041
-0.140814
-0.130588
-0.125385
-0.120204
-0.115023
-0.109842
-0.104638
-0.0994118
-0.0891855
-0.0739593
-0.0537557
-0.0385747
-0.0283937
-0.0132127
0.00199094
0.0172172
0.0324208
0.0475792
0.0577149
0.0678507
0.0829638
0.0980317
0.113054
0.128167
0.138439
0.153756
0.169118
0.174525
0.179977
0.18552
0.181154
0.171697
0.162149
0.147511
0.132783
0.102986
0.0731448
0.048371
0.0186425
-0.00610861
-0.030905
-0.040724
-0.0506335
-0.0657014
-0.0808371
-0.0909955
-0.101267
-0.106652
-0.112081
-0.107557
-0.102964
-0.108258
-0.113462
-0.113529
-0.113529
-0.113484
-0.113439
-0.113371
-0.113439
-0.11871
-0.125136
-0.127896
-0.131312
-0.135294
-0.137398
-0.136425
-0.126742
-0.117398
-0.105407
-0.0960181
-0.0866064
-0.0722851
-0.058801
-0.0418779
-0.029457
-0.0309729
-0.0347964
-0.0345023
-0.032715
-0.0299096
-0.0314028
-0.0238915
-0.0233485
-0.0268779
-0.0352716
-0.0468326
-0.0660634
-0.0859277
-0.100928
-0.115158
-0.128462
-0.137376
-0.141516
-0.143507
-0.147398
-0.147557
-0.142896
-0.138145
-0.138303
-0.138326
-0.138235
-0.1381
-0.137896
-0.137624
-0.137285
-0.136923
-0.136539
-0.136131
-0.135724
-0.135317
-0.13491
-0.134457
-0.128959
-0.123462
-0.122964
-0.122466
-0.126991
-0.131539
-0.126109
-0.120679
-0.115204
-0.109638
-0.109027
-0.108416
-0.107783
-0.107127
-0.106425
-0.100656
-0.0948191
-0.0939367
-0.0930317
-0.0871041
-0.0811313
-0.0851132
-0.0890498
-0.0829638
-0.0769005
-0.0808372
-0.0847965
-0.0837784
-0.0828055
-0.0769231
-0.0711313
-0.0654299
-0.0598417
-0.0593666
-0.0641177
-0.0790951
-0.0892534
-0.0846154
-0.0751358
-0.0658146
-0.0465838
-0.0274661
-0.0234842
-0.0246154
-0.00583714
0.017828
0.0264253
0.0349774
0.0185746
-0.0077602
-0.0290498
-0.0552941
-0.066448
-0.0775339
-0.068552
-0.059457
-0.0552262
-0.0508824
-0.0664706
-0.0820136
-0.0924887
-0.102919
-0.103303
-0.10362
-0.108846
-0.114027
-0.114208
-0.114412
-0.109661
-0.10491
-0.0951357
-0.080362
-0.0655656
-0.0707466
-0.10095
-0.296154
-0.606335
-0.806539
-0.931765
-0.701991
-0.297172
0.57267
1.61753
2.29738
2.87219
3.01199
3.05176
2.88661
2.68147
1.71131
0.661154
0.191041
0.610928
-0.214231
-0.169412
-0.179547
-0.189638
-0.214706
-0.239751
-0.249819
-0.259909
-0.265
-0.27009
-0.270204
-0.270339
-0.265452
-0.260543
-0.255633
-0.250769
-0.250905
-0.251041
-0.246154
-0.241244
-0.236335
-0.226448
-0.216606
-0.206787
-0.196946
-0.192081
-0.192195
-0.187262
-0.177308
-0.167376
-0.157466
-0.152557
-0.152647
-0.152692
-0.152692
-0.147715
-0.137783
-0.132873
-0.127964
-0.1231
-0.118281
-0.0984163
-0.0835068
-0.0735973
-0.0636878
-0.0487783
-0.0338688
-0.0239593
-0.0140498
-0.00411765
0.00583711
0.0258145
0.0457919
0.0606787
0.0754525
0.085181
0.0949548
0.104796
0.119774
0.134887
0.145023
0.155158
0.170339
0.180588
0.185882
0.181222
0.171493
0.156652
0.141697
0.121606
0.106471
0.0912896
0.0661765
0.0361312
0.0111312
-0.00882352
-0.0238688
-0.0390045
-0.0492081
-0.059457
-0.074638
-0.0897738
-0.0949548
-0.0952262
-0.0905882
-0.0860634
-0.0916289
-0.0971946
-0.0976697
-0.0981674
-0.0987556
-0.0994117
-0.105204
-0.111787
-0.109661
-0.108348
-0.117511
-0.125588
-0.131765
-0.134027
-0.121584
-0.106109
-0.0930769
-0.0793665
-0.0804298
-0.0721719
-0.0547737
-0.0468099
-0.0536425
-0.0526018
-0.0396606
-0.0354072
-0.040905
-0.0464706
-0.0521267
-0.0579638
-0.0539819
-0.0501357
-0.0512669
-0.0521267
-0.0469231
-0.0399547
-0.0421493
-0.0441402
-0.0426017
-0.0335972
-0.0386651
-0.0485972
-0.0614027
-0.0762669
-0.0911991
-0.100588
-0.109321
-0.122376
-0.131561
-0.136357
-0.138575
-0.143416
-0.148213
-0.142873
-0.137941
-0.13819
-0.138303
-0.143303
-0.14819
-0.142964
-0.13267
-0.122285
-0.116878
-0.111448
-0.106041
-0.110656
-0.115181
-0.119638
-0.124072
-0.123484
-0.122851
-0.117172
-0.111448
-0.110679
-0.109932
-0.114163
-0.118326
-0.112421
-0.0964706
-0.0804977
-0.0795249
-0.0835294
-0.0925113
-0.101471
-0.100407
-0.0993213
-0.0882127
-0.0770814
-0.0759502
-0.074819
-0.073733
-0.0727149
-0.0667873
-0.0609955
-0.060362
-0.0599095
-0.0646154
-0.069457
-0.074457
-0.0795927
-0.0748416
-0.0702489
-0.0658145
-0.0664706
-0.0822172
-0.0930543
-0.0889819
-0.075
-0.056086
-0.0321946
-0.00832579
-0.00447964
-0.0156561
0.0031448
0.0369231
0.0456561
0.0443665
0.0230996
-0.00314478
-0.0243213
-0.0454298
-0.0565158
-0.0725565
-0.0685294
-0.0644344
-0.0552262
-0.0458823
-0.0564479
-0.0669231
-0.0823756
-0.0978054
-0.0881674
-0.0784842
-0.0788009
-0.079095
-0.0893213
-0.0995023
-0.0946606
-0.0848416
-0.0700452
-0.0552941
-0.035543
-0.0507466
-0.115928
-0.356109
-0.746267
-0.931403
-0.971561
-0.641742
-0.0769231
0.827964
1.90287
2.53778
2.99769
3.0176
2.90251
2.76742
2.62733
1.78226
0.822217
0.257195
-0.267805
-0.272851
-0.292941
-0.193009
-0.143032
-0.168009
-0.192964
-0.217941
-0.242941
-0.252919
-0.262851
-0.262738
-0.262602
-0.252443
-0.242262
-0.242127
-0.242036
-0.236968
-0.231946
-0.226946
-0.221923
-0.221855
-0.221765
-0.206674
-0.201584
-0.196516
-0.191493
-0.186471
-0.176357
-0.166154
-0.16095
-0.155769
-0.145656
-0.135611
-0.130566
-0.12552
-0.11543
-0.105294
-0.100136
-0.0949548
-0.0897964
-0.0846607
-0.0695023
-0.0543213
-0.0291403
-0.00895929
-0.00377829
0.0014027
0.00653844
0.011629
0.0317194
0.0518099
0.0619231
0.0720362
0.0771041
0.0821493
0.0971946
0.112285
0.122443
0.132692
0.133054
0.133439
0.138778
0.144208
0.154796
0.160475
0.151199
0.14181
0.132285
0.122602
0.112738
0.097715
0.077534
0.0573982
0.0372851
0.0121041
-0.00809953
-0.0282579
-0.048371
-0.0584841
-0.0686199
-0.0786878
-0.0886651
-0.0935746
-0.0984615
-0.103461
-0.113552
-0.11362
-0.113597
-0.108439
-0.10319
-0.107828
-0.112511
-0.112489
-0.113552
-0.11638
-0.120045
-0.123914
-0.126312
-0.131131
-0.131833
-0.122715
-0.110814
-0.0969231
-0.0827602
-0.0637783
-0.0438236
-0.0330769
-0.0255882
-0.0223076
-0.0233483
-0.0192307
-0.0197511
-0.0295022
-0.0468325
-0.0709954
-0.0904298
-0.104955
-0.119231
-0.131516
-0.139548
-0.143982
-0.145453
-0.145498
-0.145385
-0.140272
-0.135362
-0.135475
-0.130453
-0.125294
-0.13
-0.134638
-0.134253
-0.133846
-0.133371
-0.132873
-0.127353
-0.12181
-0.126267
-0.130701
-0.130113
-0.129525
-0.123914
-0.118348
-0.117783
-0.117195
-0.116584
-0.11595
-0.120294
-0.124638
-0.118982
-0.113348
-0.112738
-0.112081
-0.11138
-0.110588
-0.114729
-0.118869
-0.113009
-0.107172
-0.101357
-0.0954751
-0.0945249
-0.0935973
-0.0976697
-0.101765
-0.0958824
-0.09
-0.084095
-0.0781674
-0.0772172
-0.0762896
-0.0754299
-0.074638
-0.0739141
-0.0832127
-0.092534
-0.0869457
-0.081448
-0.0660408
-0.0457466
-0.0205656
-0.000520401
-0.00563352
-0.00585975
0.0188235
0.033371
0.0128054
-0.0078507
-0.0235973
-0.0343213
-0.0400226
-0.0506788
-0.0662896
-0.0718326
-0.0572851
-0.0476471
-0.0479638
-0.0581901
-0.0733484
-0.0783711
-0.0832806
-0.0881674
-0.0880317
-0.0878733
-0.0876923
-0.0875113
-0.0823303
-0.0771267
-0.0819005
-0.0866742
-0.076448
-0.0562217
-0.0359955
-0.0757918
-0.150611
-0.500385
-0.815113
-0.939864
-0.969638
-0.579434
-0.0342534
0.98595
1.90118
2.5714
3.02661
3.06181
3.05697
2.9771
2.51224
1.56238
0.757534
0.102715
-0.212081
-0.236855
-0.226629
-0.18138
-0.176131
-0.200905
-0.225633
-0.250317
-0.260023
-0.264751
-0.26948
-0.269208
-0.268959
-0.268733
-0.268484
-0.263213
-0.257941
-0.25267
-0.247398
-0.247127
-0.226855
-0.216584
-0.216312
-0.216041
-0.210747
-0.205452
-0.200226
-0.195045
-0.184842
-0.174615
-0.169389
-0.164163
-0.158914
-0.153643
-0.148394
-0.14319
-0.132986
-0.12276
-0.117511
-0.112217
-0.0969004
-0.0866063
-0.0763575
-0.0661538
-0.0509502
-0.040724
-0.0354751
-0.0302036
-0.0249321
-0.00966062
0.0106109
0.0308597
0.046086
0.056267
0.0664027
0.0765611
0.0867421
0.101991
0.11733
0.132783
0.148326
0.153846
0.154366
0.160023
0.165769
0.166403
0.166855
0.152149
0.137376
0.117557
0.0976244
0.0775565
0.0523755
0.0271719
0.00699094
-0.0131674
-0.0282127
-0.0531901
-0.0731448
-0.0830769
-0.0930091
-0.0979186
-0.102873
-0.102873
-0.102851
-0.107783
-0.112624
-0.117421
-0.12224
-0.122014
-0.121697
-0.11629
-0.111063
-0.116177
-0.122873
-0.125996
-0.129729
-0.133665
-0.135882
-0.135656
-0.130792
-0.121222
-0.107692
-0.10095
-0.0777376
-0.0547059
-0.0378733
-0.0264479
-0.028552
-0.0383032
-0.0549774
-0.0743665
-0.0895927
-0.104638
-0.114186
-0.121063
-0.135204
-0.145475
-0.146878
-0.147489
-0.14733
-0.147511
-0.142964
-0.138371
-0.138733
-0.138982
-0.144095
-0.149118
-0.14905
-0.148937
-0.143801
-0.138552
-0.138235
-0.137941
-0.14267
-0.142398
-0.132127
-0.126855
-0.126584
-0.12629
-0.125973
-0.125656
-0.130362
-0.135091
-0.134819
-0.129548
-0.124276
-0.123982
-0.123665
-0.128326
-0.132964
-0.127557
-0.122149
-0.116742
-0.111335
-0.110905
-0.110475
-0.110068
-0.109661
-0.109231
-0.108846
-0.103439
-0.0979865
-0.0975114
-0.0970136
-0.0964933
-0.0959729
-0.0954525
-0.0949322
-0.0944118
-0.0939367
-0.0934616
-0.0930091
-0.0976245
-0.102308
-0.0970589
-0.0768779
-0.0567421
-0.0517195
-0.04681
-0.0320136
-0.017353
0.00214926
0.0214932
0.0257013
0.0197963
-0.0161765
-0.047172
-0.0582354
-0.0692987
-0.0752942
-0.0812444
-0.0721494
-0.0629865
-0.0687331
-0.0743666
-0.0899096
-0.10543
-0.105928
-0.106403
-0.106833
-0.107172
-0.107421
-0.107602
-0.10776
-0.107941
-0.0981222
-0.0833258
-0.0735521
-0.0687783
-0.0740045
-0.199231
-0.404457
-0.659683
-0.949955
-0.915226
-0.730498
-0.000746652
0.934027
1.81882
2.69364
2.97844
3.13821
3.10799
3.04276
2.45753
1.82731
0.947059
0.0667873
-0.118507
-0.293824
-0.22414
-0.164457
-0.174728
-0.184955
-0.210158
-0.235339
-0.250543
-0.265769
-0.270995
-0.276222
-0.281448
-0.286674
-0.281855
-0.277059
-0.272308
-0.267557
-0.26276
-0.257986
-0.253258
-0.248507
-0.243733
-0.233959
-0.224208
-0.21948
-0.214751
-0.210023
-0.205294
-0.20052
-0.200701
-0.20095
-0.196267
-0.186584
-0.1769
-0.167195
-0.157466
-0.147738
-0.138009
-0.133281
-0.133552
-0.108846
-0.0941403
-0.0843665
-0.0745475
-0.0697511
-0.0649774
-0.0552036
-0.0454298
-0.0306787
-0.0159502
0.0087783
0.0234842
0.0331448
0.0478055
0.0674208
0.0870815
0.101742
0.111493
0.121335
0.131199
0.136086
0.146018
0.160995
0.171063
0.176222
0.18138
0.176493
0.166448
0.156267
0.136041
0.110769
0.0904525
0.0750679
0.0546606
0.0342308
0.00866517
-0.0170136
-0.0278733
-0.0388688
-0.0498416
-0.0607466
-0.0815611
-0.0972851
-0.107941
-0.118552
-0.119118
-0.119661
-0.115181
-0.110656
-0.111086
-0.111493
-0.1119
-0.112851
-0.114706
-0.117692
-0.117014
-0.116154
-0.124412
-0.129321
-0.134955
-0.136606
-0.124321
-0.110814
-0.0966516
-0.0826018
-0.0638235
-0.0477602
-0.0395701
-0.0351357
-0.0290724
-0.0223982
-0.0203167
-0.0171267
-0.0188235
-0.0221267
-0.0282806
-0.0388009
-0.0483484
-0.0615158
-0.0765158
-0.0918326
-0.102081
-0.111968
-0.134367
-0.138032
-0.13819
-0.139932
-0.140543
-0.13086
-0.121267
-0.126878
-0.132466
-0.132964
-0.133348
-0.13362
-0.133846
-0.129027
-0.124163
-0.134231
-0.144321
-0.134457
-0.124638
-0.119842
-0.115
-0.115113
-0.115158
-0.115136
-0.115113
-0.115091
-0.115091
-0.110136
-0.110091
-0.12
-0.124864
-0.119706
-0.114593
-0.114525
-0.11448
-0.109434
-0.104321
-0.10414
-0.0988235
-0.0884389
-0.0880543
-0.0826471
-0.0972172
-0.0917873
-0.0913801
-0.0909955
-0.0906109
-0.0902036
-0.0847964
-0.0793891
-0.0789593
-0.078552
-0.07319
-0.0678733
-0.0676471
-0.0675113
-0.0673982
-0.0675339
-0.0628507
-0.0533032
-0.0388688
-0.0245475
-0.00033937
0.0186878
0.0425339
0.0563348
0.0500905
0.0338461
0.0126018
-0.0087104
-0.0250453
-0.0363575
-0.0476471
-0.0538462
-0.0499547
-0.0459502
-0.0468326
-0.047647
-0.0533484
-0.058914
-0.0643891
-0.069819
-0.0652036
-0.0705204
-0.0807918
-0.091086
-0.101403
-0.0967421
-0.0921041
-0.0774661
-0.0628281
-0.06819
-0.0735294
-0.0588009
-0.0540272
-0.104276
-0.23957
-0.559887
-0.825181
-1.00045
-0.965679
-0.620882
-0.00115385
0.938507
1.80317
2.58785
2.9776
3.04242
3.02222
2.93701
2.38179
1.56147
0.791199
0.0409728
-0.204231
-0.264412
-0.239548
-0.189638
-0.189751
-0.204887
-0.220045
-0.235226
-0.240385
-0.24552
-0.250634
-0.260724
-0.25086
-0.241041
-0.231199
-0.221335
-0.221448
-0.221538
-0.226606
-0.231652
-0.221719
-0.21181
-0.201923
-0.192059
-0.187149
-0.182217
-0.18233
-0.177466
-0.162579
-0.14767
-0.13276
-0.122828
-0.122851
-0.122828
-0.127783
-0.127783
-0.117805
-0.107851
-0.0928959
-0.0730317
-0.0531674
-0.0382579
-0.0283032
-0.023371
-0.0184615
-0.0085068
0.00147058
0.0163801
0.0312217
0.0460407
0.0608371
0.0705882
0.0652941
0.0999321
0.11448
0.123982
0.133529
0.13819
0.142986
0.157964
0.173054
0.173281
0.17362
0.163982
0.154299
0.149502
0.139593
0.124615
0.109661
0.0896832
0.0697285
0.0498416
0.0300226
0.0152489
-0.0095249
-0.0393213
-0.0591629
-0.0690498
-0.0789593
-0.0888462
-0.0937557
-0.093733
-0.0938462
-0.0990046
-0.103891
-0.102964
-0.100362
-0.0965159
-0.096991
-0.103235
-0.106538
-0.103439
-0.100317
-0.101425
-0.116878
-0.139525
-0.167941
-0.195747
-0.201358
-0.200792
-0.206697
-0.205588
-0.208122
-0.208394
-0.188303
-0.168507
-0.144389
-0.122738
-0.119706
-0.120045
-0.123688
-0.128416
-0.128394
-0.128235
-0.127828
-0.127443
-0.122149
-0.116923
-0.121765
-0.126652
-0.126584
-0.126584
-0.126674
-0.126742
-0.121787
-0.11681
-0.11681
-0.116833
-0.121878
-0.126991
-0.122172
-0.11733
-0.112489
-0.107647
-0.112783
-0.117919
-0.118077
-0.118281
-0.118507
-0.11871
-0.118869
-0.123982
-0.129072
-0.134163
-0.139321
-0.124593
-0.109932
-0.105294
-0.100634
-0.0959276
-0.0911539
-0.101335
-0.111516
-0.106719
-0.101991
-0.10733
-0.10767
-0.0930091
-0.0783258
-0.0686199
-0.0588462
-0.0490045
-0.0391855
-0.024457
-0.00459278
0.0103167
0.0103167
0.000407234
-0.014457
-0.0292534
-0.033914
-0.0384163
-0.0478054
-0.0570588
-0.0612217
-0.0553394
-0.0494118
-0.0484615
-0.0625113
-0.0665385
-0.0755882
-0.0846833
-0.0938235
-0.103032
-0.102285
-0.101629
-0.0961086
-0.0906787
-0.0902941
-0.0899548
-0.089638
-0.0843213
-0.0640045
-0.0637104
-0.118462
-0.293235
-0.648009
-0.90776
-1.06249
-0.897285
-0.427172
0.372941
1.4231
2.22333
2.86362
3.08391
3.07919
2.97941
2.83959
2.0948
1.15002
0.465249
-0.154525
-0.264367
-0.279276
-0.234163
-0.169027
-0.178846
-0.19862
-0.223416
-0.243235
-0.2481
-0.253009
-0.257896
-0.26276
-0.257624
-0.252489
-0.25233
-0.252149
-0.246991
-0.241855
-0.231719
-0.221584
-0.216448
-0.211312
-0.206154
-0.200973
-0.195792
-0.190611
-0.180452
-0.170339
-0.165226
-0.15509
-0.144932
-0.139751
-0.134593
-0.124457
-0.114321
-0.104208
-0.0941176
-0.0889819
-0.0838009
-0.0786652
-0.0785973
-0.0636199
-0.043733
-0.0288235
-0.013914
-0.00909502
-0.00432126
0.000497743
0.0103394
0.0250453
0.0397285
0.0595249
0.0794118
0.0893213
0.099276
0.109344
0.119502
0.119729
0.120023
0.135339
0.150701
0.156176
0.161787
0.152534
0.143303
0.13905
0.129751
0.115407
0.0960181
0.0715837
0.0421041
0.0125792
-0.00699092
-0.021561
-0.0361764
-0.0508597
-0.0705656
-0.0848642
-0.093009
-0.10009
-0.101199
-0.102308
-0.104683
-0.104864
-0.109412
-0.117851
-0.129774
-0.148484
-0.167737
-0.181991
-0.190814
-0.197127
-0.205113
-0.210317
-0.218552
-0.226765
-0.220204
-0.213009
-0.219005
-0.221335
-0.218801
-0.212489
-0.198122
-0.182738
-0.167376
-0.152466
-0.13319
-0.117285
-0.115656
-0.117127
-0.116403
-0.116199
-0.116086
-0.115815
-0.115294
-0.114819
-0.114434
-0.114186
-0.10905
-0.103982
-0.108982
-0.11405
-0.114186
-0.114299
-0.114389
-0.114502
-0.114661
-0.114842
-0.115045
-0.115249
-0.11543
-0.115611
-0.115814
-0.116041
-0.11629
-0.116561
-0.116855
-0.112149
-0.107443
-0.10776
-0.108077
-0.108394
-0.108756
-0.109163
-0.109593
-0.105045
-0.100543
-0.111063
-0.121629
-0.11724
-0.107896
-0.0936199
-0.0793665
-0.0701131
-0.0558371
-0.0315385
-0.0172172
-0.0228733
-0.0235747
-0.00429863
-0.00993212
-0.0304525
-0.0457918
-0.0559276
-0.065905
-0.0757466
-0.0804525
-0.085
-0.0894344
-0.0837556
-0.0829185
-0.0919004
-0.100747
-0.114502
-0.118258
-0.122036
-0.125837
-0.129661
-0.123507
-0.117421
-0.116448
-0.115611
-0.109932
-0.104367
-0.0888914
-0.0734842
-0.0830995
-0.177783
-0.442489
-0.687262
-0.912104
-0.921991
-0.641923
-0.0218552
0.948235
1.81333
2.58342
2.97851
3.09857
3.10362
3.02867
2.47376
1.68389
0.894027
0.104163
-0.160724
-0.265633
-0.24052
-0.170385
-0.180272
-0.205181
-0.240091
-0.275
-0.279932
-0.279887
-0.279842
-0.279796
-0.279706
-0.27957
-0.279457
-0.279367
-0.274299
-0.269253
-0.259231
-0.249231
-0.249208
-0.249163
-0.244118
-0.239072
-0.229005
-0.218937
-0.208914
-0.198914
-0.198914
-0.198891
-0.193846
-0.183824
-0.173824
-0.163846
-0.153891
-0.148914
-0.143914
-0.133914
-0.123914
-0.113937
-0.103982
-0.0940498
-0.0841403
-0.0741855
-0.0641855
-0.0541855
-0.0441855
-0.0291855
-0.0141855
0.000814475
0.0158145
0.0358371
0.0508597
0.0657919
0.0806109
0.0953846
0.110136
0.129887
0.149615
0.159299
0.169005
0.168778
0.168643
0.183552
0.198552
0.193733
0.184005
0.164276
0.139457
0.11457
0.094638
0.0746606
0.0496832
0.0247059
-0.000248894
-0.0201358
-0.045
-0.0698869
-0.084819
-0.094819
-0.0998643
-0.0999548
-0.105045
-0.115136
-0.120204
-0.120271
-0.120407
-0.115588
-0.110747
-0.105498
-0.104434
-0.112149
-0.113507
-0.120113
-0.113484
-0.110566
-0.112217
-0.118077
-0.137081
-0.155158
-0.165045
-0.170973
-0.173077
-0.17129
-0.166606
-0.157851
-0.150226
-0.143846
-0.134864
-0.129796
-0.128642
-0.128642
-0.124072
-0.119185
-0.118823
-0.118416
-0.123032
-0.127805
-0.122738
-0.117738
-0.117783
-0.117851
-0.122941
-0.128032
-0.128122
-0.128213
-0.123303
-0.118416
-0.113552
-0.108643
-0.113688
-0.118756
-0.118869
-0.119005
-0.119163
-0.114321
-0.109457
-0.109548
-0.109593
-0.114661
-0.119774
-0.114909
-0.110068
-0.105249
-0.100407
-0.10552
-0.110656
-0.110837
-0.111041
-0.106154
-0.10138
-0.0965837
-0.0918099
-0.0970588
-0.102308
-0.102557
-0.102828
-0.103122
-0.103416
-0.10371
-0.104005
-0.104299
-0.0995475
-0.0897964
-0.0750452
-0.0602941
-0.0455656
-0.0308371
-0.0110407
0.00882356
0.0186652
0.0285521
0.0234842
0.00846156
-0.0114479
-0.0312217
-0.0559276
-0.0755656
-0.070181
-0.064819
-0.0645023
-0.0641855
-0.0688688
-0.0735973
-0.083371
-0.0932127
-0.0980995
-0.103054
-0.103077
-0.103145
-0.0982579
-0.0933484
-0.0983936
-0.103462
-0.103575
-0.098733
-0.083914
-0.074095
-0.0742534
-0.159366
-0.324434
-0.579502
-0.889615
-0.929751
-0.804932
-0.23009
0.554774
1.47468
2.44964
2.86457
3.12948
3.11943
3.04443
2.57941
2.05937
1.16432
0.234299
-0.0457013
-0.305724
-0.230792
-0.155882
-0.165973
-0.176063
-0.221109
-0.256109
-0.276109
-0.296131
-0.296222
-0.296357
-0.286448
-0.276493
-0.271538
-0.266584
-0.266697
-0.266833
-0.266968
-0.267127
-0.257285
-0.247376
-0.247398
-0.247398
-0.242421
-0.232489
-0.222579
-0.212715
-0.202896
-0.198009
-0.198054
-0.1981
-0.193145
-0.183213
-0.173303
-0.158394
-0.143484
-0.138529
-0.138529
-0.128575
-0.113665
-0.0987783
-0.108914
-0.0740272
-0.0691177
-0.0541629
-0.0391629
-0.0291855
-0.019276
-0.00443438
0.0103846
0.0252036
0.0400226
0.0548643
0.0697285
0.0795928
0.0944797
0.109412
0.124412
0.14448
0.159638
0.164887
0.170113
0.185317
0.185475
0.175588
0.165679
0.155679
0.14043
0.119955
0.0944344
0.068914
0.0485068
0.0332127
0.0130091
-0.00712669
-0.0222851
-0.037466
-0.0476923
-0.0579412
-0.0681674
-0.078371
-0.0835294
-0.0836652
-0.0937557
-0.103801
-0.103891
-0.104027
-0.0991629
-0.094276
-0.0943213
-0.0943213
-0.0992987
-0.104683
-0.105882
-0.108258
-0.112036
-0.115339
-0.117353
-0.115
-0.112376
-0.106357
-0.0919457
-0.0791855
-0.078914
-0.0832353
-0.0768778
-0.0737556
-0.0787556
-0.0920814
-0.113416
-0.123529
-0.121855
-0.120905
-0.121719
-0.121538
-0.125905
-0.130814
-0.131109
-0.126561
-0.117081
-0.112466
-0.11776
-0.122941
-0.123032
-0.123122
-0.113213
-0.113326
-0.113461
-0.108575
-0.103665
-0.113688
-0.123688
-0.123756
-0.123846
-0.118937
-0.114027
-0.104118
-0.0941855
-0.104231
-0.114276
-0.114321
-0.114434
-0.114593
-0.114729
-0.109842
-0.104909
-0.109932
-0.114932
-0.109932
-0.104977
-0.100045
-0.0950679
-0.095181
-0.0952262
-0.100317
-0.105385
-0.10543
-0.0954299
-0.0804072
-0.0754072
-0.0754072
-0.0754072
-0.080362
-0.0852715
-0.0851584
-0.0850452
-0.0849321
-0.0848416
-0.0847285
-0.0895475
-0.0943439
-0.0691629
-0.0439819
-0.0237104
-0.00346153
-0.00332578
0.00174209
0.0367647
0.0667195
0.0516063
0.031448
0.0111312
-0.00909501
-0.0293439
-0.0445701
-0.0447737
-0.0449321
-0.0450452
-0.0501131
-0.0601357
-0.0701584
-0.080181
-0.085181
-0.0901357
-0.0950905
-0.0900452
-0.0849547
-0.084819
-0.0846832
-0.0845475
-0.0843891
-0.0892081
-0.0840498
-0.068914
-0.0638009
-0.0637104
-0.208597
-0.368462
-0.758326
-1.13819
-0.9681
-0.743054
0.0370136
0.852104
1.85715
2.73717
2.98726
3.1574
2.99753
2.73265
2.18271
1.52778
0.657896
0.0180317
-0.211833
-0.321697
-0.246584
-0.196493
-0.181403
-0.186267
-0.216063
-0.235837
-0.250634
-0.260453
-0.255272
-0.250068
-0.244796
-0.239548
-0.244321
-0.249095
-0.253869
-0.248665
-0.233484
-0.228303
-0.223122
-0.212941
-0.20276
-0.197534
-0.192262
-0.187036
-0.186855
-0.171674
-0.156493
-0.151312
-0.146131
-0.140928
-0.135701
-0.13552
-0.135385
-0.115204
-0.095
-0.089819
-0.079638
-0.0594344
-0.0442082
-0.0339593
-0.0237783
-0.0236425
-0.0184842
0.00171945
0.0169909
0.0323077
0.0376244
0.0429186
0.0531448
0.0633032
0.0783484
0.0983032
0.108281
0.113235
0.123032
0.132715
0.137489
0.132376
0.137443
0.152692
0.158054
0.158507
0.159163
0.154955
0.140633
0.151176
0.111584
0.101946
0.0773303
0.0527149
0.0281448
0.00359729
-0.0159502
-0.0355204
-0.0451584
-0.0548643
-0.0646154
-0.0743891
-0.0841629
-0.0939367
-0.103688
-0.113529
-0.108484
-0.103213
-0.107579
-0.110294
-0.106561
-0.102376
-0.0932353
-0.0865158
-0.0928054
-0.104525
-0.116086
-0.1319
-0.146018
-0.159095
-0.180588
-0.197511
-0.203213
-0.204751
-0.203846
-0.194661
-0.178756
-0.163846
-0.150294
-0.139367
-0.13138
-0.127195
-0.125792
-0.125339
-0.125339
-0.125
-0.124434
-0.128824
-0.133258
-0.132851
-0.132557
-0.13233
-0.132149
-0.136968
-0.14181
-0.136674
-0.131561
-0.126493
-0.121448
-0.126425
-0.131403
-0.131335
-0.13129
-0.126267
-0.121222
-0.121154
-0.121086
-0.121018
-0.120973
-0.120973
-0.120928
-0.120837
-0.120769
-0.120724
-0.120701
-0.115701
-0.110724
-0.115792
-0.115837
-0.10586
-0.100905
-0.10595
-0.11095
-0.120928
-0.11095
-0.100995
-0.0961086
-0.091267
-0.101403
-0.111516
-0.111606
-0.111742
-0.101923
-0.0870814
-0.0621945
-0.0422624
-0.0472851
-0.0422851
-0.0122624
0.00782807
0.0129864
0.0131901
-0.00660633
-0.026267
-0.0507466
-0.0650905
-0.0743213
-0.0734615
-0.0625339
-0.0516063
-0.040543
-0.0495701
-0.073552
-0.0875792
-0.0966742
-0.10086
-0.100136
-0.0995023
-0.0939593
-0.0884615
-0.088009
-0.0876018
-0.0922398
-0.0969231
-0.0966516
-0.0714253
-0.0462443
-0.0960407
-0.175814
-0.540611
-0.86543
-0.960249
-0.935068
-0.394887
0.270294
1.32548
2.23566
2.78586
3.13609
3.07633
2.95158
2.72179
2.16199
1.14222
0.377421
-0.0974208
-0.307262
-0.247081
-0.211923
-0.181787
-0.186629
-0.216448
-0.241267
-0.261086
-0.270928
-0.270792
-0.270656
-0.26552
-0.260407
-0.255317
-0.250226
-0.250136
-0.250045
-0.244955
-0.23491
-0.224909
-0.214887
-0.209842
-0.209774
-0.209683
-0.204593
-0.199502
-0.189412
-0.179321
-0.174231
-0.16914
-0.16405
-0.158959
-0.148869
-0.138778
-0.13371
-0.128665
-0.11862
-0.108552
-0.0984615
-0.0883936
-0.0833258
-0.0732353
-0.0581674
-0.0430995
-0.0329864
-0.0228507
-0.0127375
-0.00264703
0.0173982
0.0324661
0.0475566
0.0626697
0.0778055
0.0878959
0.0979412
0.112986
0.128032
0.133122
0.133281
0.138575
0.148914
0.154118
0.154253
0.149434
0.144661
0.139932
0.135113
0.110045
0.0848642
0.0596154
0.0344117
0.014276
-0.00581449
-0.0208145
-0.0407466
-0.0606109
-0.0804978
-0.095543
-0.105634
-0.110747
-0.115837
-0.115882
-0.115882
-0.115814
-0.115701
-0.115566
-0.115452
-0.115385
-0.115339
-0.115294
-0.115158
-0.114932
-0.114955
-0.115385
-0.117534
-0.121018
-0.124502
-0.121855
-0.115136
-0.114751
-0.109819
-0.102828
-0.0967195
-0.08819
-0.0795475
-0.0738688
-0.0805883
-0.0899774
-0.0986426
-0.109231
-0.125068
-0.138009
-0.136358
-0.132647
-0.137308
-0.142104
-0.14233
-0.142692
-0.138145
-0.133484
-0.13371
-0.133824
-0.133801
-0.133733
-0.13362
-0.133507
-0.133416
-0.133348
-0.128281
-0.12319
-0.123077
-0.122941
-0.122805
-0.122692
-0.127602
-0.132534
-0.132489
-0.132398
-0.127262
-0.122127
-0.122014
-0.121923
-0.121833
-0.121719
-0.116584
-0.111448
-0.111335
-0.116222
-0.121109
-0.115995
-0.110882
-0.110792
-0.110679
-0.11052
-0.110339
-0.110158
-0.109977
-0.109796
-0.109638
-0.104457
-0.099276
-0.0990724
-0.0988462
-0.0985973
-0.0983711
-0.0981674
-0.0980091
-0.097896
-0.0978055
-0.10276
-0.0927376
-0.067715
-0.0477376
-0.0278281
-0.0180317
-0.0233032
-0.00361995
0.0310181
0.035543
0.0249547
-0.000701375
-0.0264027
-0.0371267
-0.0478507
-0.0535294
-0.0591855
-0.0648417
-0.0554978
-0.0611313
-0.0667195
-0.0772399
-0.0876923
-0.098077
-0.108416
-0.11371
-0.118982
-0.114253
-0.109525
-0.109796
-0.110068
-0.105317
-0.100543
-0.0957692
-0.0859955
-0.0712217
-0.101448
-0.196674
-0.4219
-0.782104
-0.927262
-0.877421
-0.422602
0.322195
1.24197
2.26174
2.79156
3.09143
3.12127
3.04609
2.70591
2.28572
1.43552
0.480294
0.0600905
-0.27009
-0.245271
-0.180452
-0.175656
-0.175882
-0.211086
-0.236267
-0.261448
-0.286629
-0.291787
-0.296923
-0.292059
-0.287195
-0.282353
-0.277534
-0.27267
-0.26776
-0.262828
-0.257873
-0.252919
-0.248032
-0.23819
-0.228371
-0.228552
-0.228733
-0.223891
-0.214027
-0.204163
-0.199321
-0.194502
-0.189661
-0.184774
-0.174864
-0.164955
-0.155068
-0.145204
-0.135339
-0.125475
-0.120611
-0.115747
-0.10586
-0.0959728
-0.0861312
-0.0763122
-0.0614932
-0.0466742
-0.0318326
-0.0219683
-0.0121267
-0.0023077
0.0125113
0.0273303
0.0521493
0.0769683
0.0867647
0.0965385
0.106312
0.116154
0.131086
0.146086
0.166176
0.176312
0.181425
0.186629
0.186991
0.187353
0.177647
0.162805
0.147828
0.127805
0.102738
0.0776697
0.0576018
0.037534
0.0175339
-0.00248867
-0.0225565
-0.0427375
-0.0580543
-0.0685973
-0.079276
-0.0849547
-0.0856787
-0.0864932
-0.0873303
-0.0881222
-0.0938461
-0.099457
-0.0999773
-0.100385
-0.100724
-0.101018
-0.101493
-0.102443
-0.104389
-0.112896
-0.122014
-0.12586
-0.127624
-0.125995
-0.120181
-0.114751
-0.106923
-0.0926923
-0.078371
-0.0644343
-0.0520588
-0.0416064
-0.0350227
-0.0327829
-0.0324661
-0.0385747
-0.0441177
-0.0385973
-0.0313349
-0.0279638
-0.0251358
-0.0238236
-0.0259729
-0.036991
-0.0524208
-0.0659728
-0.0809502
-0.0914253
-0.101403
-0.120091
-0.136833
-0.150362
-0.159751
-0.161674
-0.147127
-0.142285
-0.142715
-0.143213
-0.14371
-0.144118
-0.144366
-0.144502
-0.139547
-0.134548
-0.139502
-0.144412
-0.144299
-0.14414
-0.143937
-0.143756
-0.138597
-0.133416
-0.133213
-0.132986
-0.137738
-0.137443
-0.127104
-0.121765
-0.121425
-0.121018
-0.120543
-0.120068
-0.114638
-0.109231
-0.108824
-0.108371
-0.107873
-0.107262
-0.101538
-0.0957692
-0.0999774
-0.104208
-0.0984615
-0.0927149
-0.0919683
-0.0911765
-0.0903846
-0.0896154
-0.0888914
-0.0832353
-0.077647
-0.0721719
-0.0667873
-0.0664706
-0.0662896
-0.0712896
-0.0764932
-0.0818778
-0.0874208
-0.0881222
-0.0839593
-0.0699095
-0.0509728
-0.0121267
0.00660636
0.000226267
0.00382355
0.0274208
0.0360407
0.0246833
0.00839368
-0.0128507
-0.029095
-0.0502941
-0.0563801
-0.0523303
-0.0431221
-0.0337783
-0.0393665
-0.0549095
-0.0654525
-0.0759728
-0.081448
-0.0868552
-0.0921719
-0.0924434
-0.0927149
-0.102986
-0.0932579
-0.0835294
-0.0788009
-0.0740498
-0.0692534
-0.0644344
-0.0595927
-0.0747285
-0.174887
-0.34509
-0.725317
-0.970543
-0.885747
-0.575928
0.163891
0.993756
1.96364
2.64851
2.96837
3.08324
2.97812
2.69803
2.27292
1.56778
0.657624
0.117466
-0.20267
-0.262715
-0.192738
-0.167828
-0.167964
-0.188077
-0.218145
-0.233145
-0.2431
-0.2481
-0.2531
-0.258122
-0.258167
-0.258235
-0.258326
-0.243416
-0.228507
-0.223597
-0.218665
-0.218688
-0.218688
-0.21871
-0.218756
-0.208801
-0.198824
-0.198801
-0.198756
-0.18371
-0.163688
-0.14862
-0.138597
-0.133552
-0.128507
-0.128462
-0.128416
-0.128348
-0.123258
-0.10819
-0.0931674
-0.0781448
-0.0630996
-0.0530543
-0.0429864
-0.0329186
-0.0179186
-0.00296381
0.0120362
0.0270814
0.0321719
0.0323077
0.0424434
0.0575792
0.0776923
0.0977828
0.112828
0.127828
0.137805
0.142783
0.147828
0.152964
0.168303
0.183756
0.184208
0.184706
0.180294
0.175814
0.161176
0.146448
0.141606
0.131584
0.106357
0.0760181
0.0406335
0.0104525
-0.00452487
-0.0144796
-0.019457
-0.0294344
-0.0394117
-0.0544344
-0.0745023
-0.0845928
-0.0896833
-0.0947059
-0.0947059
-0.0946833
-0.0946154
-0.099457
-0.109231
-0.113959
-0.118643
-0.123326
-0.123122
-0.118416
-0.109502
-0.107308
-0.116267
-0.124932
-0.127059
-0.135543
-0.139027
-0.126448
-0.109977
-0.0916063
-0.074638
-0.0607692
-0.0526244
-0.0512443
-0.0557014
-0.0716064
-0.0898417
-0.109186
-0.122919
-0.120385
-0.118439
-0.12733
-0.138914
-0.153507
-0.163213
-0.148032
-0.1431
-0.143371
-0.143529
-0.138575
-0.133575
-0.133529
-0.133371
-0.1281
-0.127805
-0.137489
-0.142172
-0.141855
-0.136584
-0.126357
-0.126086
-0.135769
-0.140475
-0.140226
-0.134955
-0.139615
-0.124231
-0.128824
-0.128416
-0.128009
-0.127624
-0.127285
-0.126991
-0.126719
-0.121425
-0.116086
-0.115679
-0.115226
-0.119774
-0.119321
-0.103801
-0.0933484
-0.0978733
-0.10233
-0.106719
-0.111176
-0.110724
-0.110249
-0.109728
-0.109186
-0.10362
-0.0980317
-0.0924208
-0.0868099
-0.0862217
-0.0856561
-0.0901358
-0.0946154
-0.0990724
-0.103552
-0.0980543
-0.0725792
-0.0471493
-0.0418326
-0.036629
-0.0115158
0.0135068
0.0334163
0.0482353
0.0129638
-0.0223756
-0.0327149
-0.0430317
-0.0533032
-0.0635068
-0.0586425
-0.053733
-0.0538009
-0.0538235
-0.0687783
-0.083733
-0.0786878
-0.0785747
-0.0933937
-0.10319
-0.107986
-0.112783
-0.107579
-0.0974434
-0.0873529
-0.0822172
-0.0820135
-0.0717647
-0.0515158
-0.0812895
-0.146063
-0.420928
-0.790882
-0.965814
-1.06572
-0.640634
-0.060543
0.924548
1.99464
2.57973
3.09482
3.06991
2.995
2.80007
2.59014
1.64027
0.720453
0.190611
-0.279276
-0.269231
-0.254231
-0.20414
-0.164005
-0.193869
-0.218733
-0.228575
-0.238394
-0.24819
-0.257964
-0.257715
-0.257489
-0.25733
-0.257195
-0.247059
-0.2369
-0.236697
-0.236471
-0.231267
-0.221109
-0.210973
-0.205837
-0.200747
-0.195566
-0.190385
-0.185181
-0.179955
-0.169774
-0.159638
-0.149502
-0.139367
-0.134186
-0.133959
-0.128733
-0.118507
-0.108326
-0.113167
-0.0829412
-0.0726697
-0.0724434
-0.0722624
-0.0521041
-0.0319683
-0.0268326
-0.0216968
-0.00658371
0.00850679
0.0186199
0.0287783
0.0390045
0.049276
0.0595475
0.0746833
0.0897059
0.0996606
0.104548
0.109367
0.109163
0.113982
0.123824
0.133688
0.148597
0.158733
0.159072
0.149548
0.135136
0.120611
0.105973
0.0912444
0.0764254
0.0515611
0.0266742
0.00187784
-0.0228507
-0.0425792
-0.0622851
-0.0670136
-0.0667873
-0.0815385
-0.0962896
-0.106109
-0.115973
-0.120882
-0.12586
-0.11586
-0.10586
-0.11086
-0.115701
-0.120339
-0.123665
-0.120498
-0.116787
-0.102715
-0.0917873
-0.0995927
-0.112986
-0.126471
-0.140769
-0.154842
-0.164457
-0.169095
-0.170204
-0.172262
-0.169796
-0.158643
-0.146086
-0.132964
-0.124367
-0.120091
-0.118303
-0.118665
-0.118801
-0.123756
-0.128394
-0.127783
-0.127308
-0.126946
-0.126606
-0.13129
-0.136041
-0.13586
-0.130701
-0.125566
-0.125453
-0.125385
-0.125317
-0.125226
-0.130158
-0.135113
-0.130068
-0.125
-0.11991
-0.114819
-0.119729
-0.124638
-0.12957
-0.134525
-0.124502
-0.11448
-0.114457
-0.114412
-0.119344
-0.124276
-0.124231
-0.124208
-0.119186
-0.114163
-0.114208
-0.114186
-0.109186
-0.104208
-0.104276
-0.104344
-0.104412
-0.104525
-0.0996833
-0.0948869
-0.0950905
-0.100317
-0.110566
-0.115837
-0.116131
-0.0864254
-0.0666742
-0.0568778
-0.0470815
-0.0373077
-0.0275566
-0.00785071
0.0118552
0.0116289
0.00649318
-0.0185294
-0.0383484
-0.0480091
-0.0576244
-0.0673756
-0.0769231
-0.066448
-0.055905
-0.0552941
-0.0597285
-0.0742082
-0.083733
-0.0833032
-0.0879638
-0.0977149
-0.102466
-0.102195
-0.101991
-0.101855
-0.101765
-0.0967195
-0.0867195
-0.0767647
-0.0667195
-0.0565837
-0.0864932
-0.131448
-0.411425
-0.721425
-0.871425
-1.01643
-0.59638
-0.14129
0.918778
1.94382
2.54887
3.07891
3.07896
3.049
2.85405
2.4741
1.44914
0.559186
0.0542308
-0.280724
-0.230679
-0.195633
-0.175588
-0.170543
-0.210498
-0.235452
-0.25543
-0.27043
-0.27043
-0.27043
-0.27543
-0.28043
-0.275452
-0.270498
-0.265543
-0.260588
-0.255633
-0.245679
-0.235724
-0.230747
-0.225747
-0.220792
-0.215882
-0.210973
-0.206063
-0.201109
-0.196109
-0.191154
-0.181244
-0.171335
-0.161425
-0.151493
-0.141538
-0.136584
-0.131629
-0.126697
-0.121787
-0.111878
-0.101968
-0.0920362
-0.0820814
-0.0671493
-0.0522398
-0.0473077
-0.0373529
-0.0173982
0.00257921
0.0175792
0.0325113
0.0573982
0.0722625
0.0870815
0.10181
0.116403
0.130882
0.140294
0.144819
0.149434
0.159163
0.168982
0.178891
0.188914
0.194095
0.189412
0.179729
0.170023
0.135226
0.100362
0.0804752
0.0955883
0.0357014
0.0157919
-0.0140497
-0.0438235
-0.0585746
-0.0733257
-0.0881674
-0.1031
-0.103077
-0.103077
-0.108077
-0.1131
-0.113167
-0.113281
-0.113371
-0.113167
-0.107489
-0.100226
-0.106493
-0.112805
-0.10457
-0.0994118
-0.102715
-0.111946
-0.126516
-0.143371
-0.161991
-0.178529
-0.192443
-0.200249
-0.200882
-0.194253
-0.181855
-0.167692
-0.152805
-0.139005
-0.132036
-0.129706
-0.126335
-0.125113
-0.125294
-0.125158
-0.124819
-0.124367
-0.123869
-0.123575
-0.123416
-0.123371
-0.123416
-0.123462
-0.123507
-0.123597
-0.123756
-0.123937
-0.12414
-0.119367
-0.114615
-0.114864
-0.115068
-0.120226
-0.125385
-0.120543
-0.115724
-0.110928
-0.106131
-0.111335
-0.116516
-0.111674
-0.106855
-0.112036
-0.117262
-0.112489
-0.107692
-0.107896
-0.108145
-0.108416
-0.10871
-0.10905
-0.109412
-0.109774
-0.110113
-0.105452
-0.100792
-0.101176
-0.101652
-0.102172
-0.107692
-0.11319
-0.0986652
-0.0841403
-0.0745701
-0.0649774
-0.050362
-0.0307466
-0.0111312
0.00352941
0.00821267
0.00789592
-0.00739819
-0.0175792
-0.0276471
-0.0425792
-0.0573756
-0.0670588
-0.0666742
-0.0661765
-0.0705883
-0.0750453
-0.0795701
-0.0891403
-0.0985973
-0.103258
-0.107941
-0.112738
-0.117647
-0.122579
-0.117534
-0.107557
-0.0976471
-0.0977376
-0.107828
-0.107941
-0.0980769
-0.08819
-0.0932805
-0.158394
-0.258529
-0.59862
-0.913665
-0.893756
-0.783891
-0.133982
0.585973
1.61591
2.48581
2.84075
3.0857
3.04566
2.92061
2.63057
2.07052
1.07048
0.325453
-0.0645475
-0.254525
-0.20948
-0.184502
-0.184615
-0.199729
-0.229819
-0.254887
-0.274932
-0.285
-0.290091
-0.295181
-0.290271
-0.285362
-0.280452
-0.275543
-0.275633
-0.275701
-0.270747
-0.260814
-0.250928
-0.241086
-0.231267
-0.221425
-0.216561
-0.216697
-0.216833
-0.211991
-0.207172
-0.19733
-0.187443
-0.182489
-0.177489
-0.177534
-0.177624
-0.167715
-0.157805
-0.137941
-0.128122
-0.123281
-0.113416
-0.098552
-0.0886878
-0.0788235
-0.0639366
-0.0490271
-0.0391629
-0.0343439
-0.0245023
-0.00961538
0.0153168
0.0402715
0.060181
0.0800453
0.0948643
0.104638
0.119525
0.134525
0.144548
0.154548
0.169525
0.184548
0.189638
0.194751
0.199819
0.199751
0.184457
0.16905
0.148597
0.128145
0.107738
0.0874208
0.0522172
0.0220362
-0.00314478
-0.0233484
-0.0336199
-0.0439819
-0.0594344
-0.0748642
-0.0802036
-0.0854977
-0.0957466
-0.106018
-0.106267
-0.106448
-0.106561
-0.106674
-0.106833
-0.107014
-0.112172
-0.117285
-0.112421
-0.107919
-0.113914
-0.12138
-0.124729
-0.126697
-0.131923
-0.133054
-0.121041
-0.10586
-0.0997285
-0.0962443
-0.0904977
-0.0884842
-0.0886878
-0.0907466
-0.0951584
-0.108529
-0.122828
-0.135701
-0.145973
-0.132534
-0.117783
-0.122398
-0.12724
-0.132534
-0.137964
-0.133439
-0.128824
-0.129344
-0.129615
-0.129864
-0.130113
-0.130362
-0.130611
-0.135882
-0.141154
-0.136403
-0.126629
-0.116833
-0.112014
-0.112172
-0.11233
-0.112511
-0.112692
-0.112873
-0.113077
-0.113303
-0.118507
-0.128688
-0.133914
-0.129163
-0.124457
-0.119774
-0.115068
-0.110339
-0.105543
-0.105747
-0.105973
-0.106222
-0.106493
-0.106765
-0.111991
-0.117149
-0.107262
-0.0974208
-0.102647
-0.107873
-0.113077
-0.118213
-0.108281
-0.098371
-0.0934615
-0.0885294
