ekg
0
-0.0266667
-0.034
-0.0307143
-0.0305556
-0.0168182
-0.00576924
-0.012
0.00470588
0.0557895
0.0783333
0.00260872
-0.1834
-0.384074
-0.554483
-0.687097
-0.802576
-0.965572
-1.01473
-0.897051
-0.537439
0.0945349
0.884444
1.82223
2.47316
2.89755
2.94557
2.74673
2.02658
1.02992
0.457213
0.0581746
-0.136769
-0.267313
-0.308478
-0.325423
-0.323288
-0.322067
-0.321883
-0.317722
-0.314136
-0.311506
-0.314647
-0.318908
-0.318652
-0.319286
-0.320323
-0.321684
-0.322784
-0.323586
-0.32896
-0.333738
-0.322952
-0.311495
-0.31
-0.308559
-0.297168
-0.285696
-0.284402
-0.283445
-0.272521
-0.261423
-0.25556
-0.249724
-0.248915
-0.248626
-0.248835
-0.249222
-0.245292
-0.241763
-0.237553
-0.227727
-0.217103
-0.206088
-0.194564
-0.177086
-0.158987
-0.140968
-0.123185
-0.115566
-0.108012
-0.0856442
-0.0633333
-0.047006
-0.0238462
0.00245614
0.0106069
-0.0154
-0.0433333
-0.0347765
-0.0115746
-0.00308744
0.00662161
0.0213636
0.0360846
0.030733
0.0253627
0.0248461
0.0242132
0.0184171
0.00756219
-0.00349753
-0.0146585
-0.0259662
-0.0373684
-0.0589337
-0.0655634
-0.0622791
-0.0591244
-0.0560959
-0.0533258
-0.0522398
-0.0516968
-0.0563348
-0.0609955
-0.055724
-0.0454977
-0.0352715
-0.0300679
-0.0299095
-0.0347964
-0.0447285
-0.0446606
-0.0346154
-0.0295928
-0.0297285
-0.0354073
-0.04181
-0.0291856
-0.0170136
0.000429809
0.0193438
0.0259954
0.0361086
0.055362
0.0874887
0.146493
0.185679
0.163937
0.148982
0.149367
0.132376
0.0935747
0.063914
0.0486878
0.0332127
0.0176018
-0.00303167
-0.0286878
-0.0693891
-0.115113
-0.140837
-0.151561
-0.15233
-0.143145
-0.138982
-0.134842
-0.130656
-0.131425
-0.132217
-0.133032
-0.128869
-0.119751
-0.120633
-0.131516
-0.352466
-0.583507
-0.624593
-0.650679
-0.276742
0.137195
1.05613
1.93491
2.51846
3.01204
3.0707
2.91946
2.0033
1.16229
0.531425
0.0457013
-0.129887
-0.255294
-0.300543
-0.325679
-0.325701
-0.325498
-0.330068
-0.334502
-0.333801
-0.333077
-0.33733
-0.341516
-0.335634
-0.329661
-0.328597
-0.327579
-0.321539
-0.315498
-0.319457
-0.318281
-0.306493
-0.298597
-0.295068
-0.291403
-0.283756
-0.278213
-0.281086
-0.288213
-0.288258
-0.300475
-0.313484
-0.326652
-0.336968
-0.338303
-0.336765
-0.337715
-0.337624
-0.321742
-0.30552
-0.304005
-0.302421
-0.290769
-0.279163
-0.272692
-0.256312
-0.229977
-0.213552
-0.207036
-0.195498
-0.178959
-0.162421
-0.150905
-0.129434
-0.0979412
-0.0762896
-0.0595249
-0.0378281
-0.0212444
-0.00475116
0.0216968
0.02819
0.0297737
0.0315158
0.033371
0.0302941
0.022285
0.0143665
0.00647056
-0.0166516
0.00509047
-0.0531448
-0.061448
-0.0749322
-0.0885973
-0.0824435
-0.0763801
-0.0753846
-0.0744797
-0.0686878
-0.0631222
-0.0628281
-0.0626923
-0.0576471
-0.052715
-0.0476471
-0.0428733
-0.0531674
-0.0634615
-0.0587783
-0.0542082
-0.0547511
-0.0503168
-0.040905
-0.0316516
-0.0175792
0.000429869
0.0173529
0.0242081
0.0159955
0.0143213
0.0244118
0.0736878
0.137014
0.1481
0.141538
0.135407
0.128643
0.10767
0.0828733
0.0602941
0.0355882
0.00513574
-0.0208824
-0.0371494
-0.0535521
-0.0899774
-0.126357
-0.142647
-0.158959
-0.160339
-0.161787
-0.158326
-0.154955
-0.166629
-0.173281
-0.139887
-0.12138
-0.11776
-0.114163
-0.120634
-0.232217
-0.473869
-0.610475
-0.632059
-0.398688
0.054638
0.797851
1.73091
2.36869
2.83638
2.99423
3.01222
2.36529
1.46848
0.81681
0.235249
-0.00622173
-0.182647
-0.25905
-0.325339
-0.341448
-0.357353
-0.347964
-0.323416
-0.308869
-0.294276
-0.30457
-0.314751
-0.314842
-0.31491
-0.319977
-0.325023
-0.315068
-0.310045
-0.339864
-0.364638
-0.354434
-0.333462
-0.296674
-0.269208
-0.256109
-0.254027
-0.283326
-0.306742
-0.319072
-0.324434
-0.312421
-0.30629
-0.304864
-0.309661
-0.325724
-0.333959
-0.334864
-0.324887
-0.299344
-0.293643
-0.292828
-0.292059
-0.291335
-0.28052
-0.264661
-0.253801
-0.242941
-0.217036
-0.236109
-0.165226
-0.144344
-0.138462
-0.132602
-0.106719
-0.0808145
-0.0698869
-0.0539366
-0.0179864
0.0129864
0.0290272
0.0401358
0.0162896
0.00746608
0.0436199
0.0697964
0.0659955
0.0523982
0.0290498
0.00565612
-0.0278733
-0.0364932
-0.0202036
-0.0140271
-0.0279638
-0.0421267
-0.0514706
-0.0509955
-0.0406787
-0.0354072
-0.030181
-0.0401357
-0.0653167
-0.0657013
-0.0512443
-0.0367873
-0.0223529
-0.00796379
0.00635748
0.00554299
-0.00538461
-0.0312443
-0.0521041
-0.0430317
-0.0340271
-0.0101357
0.0131674
0.00531675
-0.00316741
0.00328057
0.0157693
0.0452489
0.0830543
0.150045
0.189955
0.167059
0.15
0.143122
0.128303
0.109412
0.0926018
0.07319
0.0627602
0.0716063
0.0601131
0.0183258
-0.0285747
-0.0855883
-0.112602
-0.109548
-0.106425
-0.108213
-0.119977
-0.136787
-0.13371
-0.120701
-0.112692
-0.104661
-0.101538
-0.108394
-0.100452
-0.0827375
-0.23509
-0.402421
-0.539683
-0.656855
-0.428959
-0.126154
0.781358
1.64369
2.30593
2.87319
3.05561
2.97815
2.11577
1.30855
0.621425
0.0943891
-0.117511
-0.259321
-0.290973
-0.312421
-0.303688
-0.294819
-0.310814
-0.316765
-0.317647
-0.318575
-0.324548
-0.325385
-0.31129
-0.306833
-0.317285
-0.322873
-0.323552
-0.32414
-0.329276
-0.328552
-0.317104
-0.310023
-0.308145
-0.302262
-0.293733
-0.293688
-0.302036
-0.318529
-0.326878
-0.341539
-0.354276
-0.353824
-0.350158
-0.353303
-0.355045
-0.360701
-0.365882
-0.340792
-0.325656
-0.315475
-0.305272
-0.310023
-0.314751
-0.309502
-0.294231
-0.264005
-0.243801
-0.243552
-0.238281
-0.222986
-0.202647
-0.182262
-0.16181
-0.141335
-0.120973
-0.100724
-0.0804978
-0.0602715
-0.0398869
-0.0243439
-0.0188236
-0.0233258
-0.0178055
-0.00226248
0.008371
0.0191402
0.0151583
0.00126693
-0.0228507
-0.0421494
-0.0365159
-0.0309729
-0.0355657
-0.0402942
-0.0551584
-0.0700906
-0.0700001
-0.0700227
-0.0602942
-0.0508145
-0.041629
-0.0326019
-0.0335973
-0.0396154
-0.0556561
-0.0568552
-0.0332353
-0.0195249
-0.0257014
-0.0370136
-0.048439
-0.0499322
-0.0365385
-0.0131222
0.0103393
0.0229864
0.0397737
0.0409276
0.0315384
0.0482127
0.0812896
0.103484
0.124615
0.133824
0.135656
0.143348
0.150747
0.129321
0.104321
0.081267
0.0508823
0.039638
0.0277828
-0.0142308
-0.0563575
-0.0884389
-0.120498
-0.12267
-0.124887
-0.107127
-0.0893665
-0.0965837
-0.103778
-0.115928
-0.118077
-0.0852715
-0.0624208
-0.0595023
-0.136606
-0.318756
-0.46595
-0.573145
-0.500362
-0.267647
0.259955
1.00251
1.74018
2.46792
2.90059
3.18319
2.74059
2.00787
1.27016
0.527466
0.204864
-0.0226018
-0.124932
-0.202149
-0.22914
-0.25095
-0.257625
-0.259095
-0.260407
-0.251584
-0.267579
-0.283439
-0.27914
-0.274751
-0.265407
-0.256063
-0.251629
-0.247081
-0.262443
-0.27776
-0.278054
-0.273348
-0.258484
-0.248281
-0.257534
-0.265792
-0.263167
-0.260882
-0.254434
-0.246471
-0.241946
-0.24595
-0.252964
-0.256357
-0.255068
-0.256199
-0.269457
-0.279186
-0.276199
-0.2669
-0.256719
-0.251222
-0.245543
-0.229706
-0.213801
-0.202828
-0.191787
-0.180679
-0.169502
-0.158326
-0.152172
-0.126063
-0.0999321
-0.11371
-0.122443
-0.0811765
-0.0449321
-0.0237556
-0.00260179
0.00364254
0.0150226
0.0465159
0.0730769
0.0797285
0.0864027
0.0830543
0.0797964
0.0816969
0.0786652
0.0656787
0.0576697
0.0545928
0.0465385
0.0335068
0.0202715
0.0118326
0.00330311
-0.0153394
-0.0190724
-0.012896
-0.00694574
-0.00624438
-0.000769243
0.00950223
0.0147511
0.0199547
0.0202036
0.0105203
0.00579183
0.0109502
0.0159502
0.0158823
0.000927582
-0.0139819
-0.00893667
-0.00429867
0.00445698
0.0124661
0.0199095
0.0326245
0.0613349
0.0824435
0.0669683
0.0598643
0.081086
0.114367
0.17405
0.211765
0.231199
0.242376
0.225271
0.19681
0.162421
0.132624
0.107534
0.082285
0.0619004
0.0265611
-0.0137104
-0.0490045
-0.0842761
-0.0996154
-0.105023
-0.105385
-0.0957014
-0.0909955
-0.096267
-0.101516
-0.101742
-0.0920362
-0.0773982
-0.0577376
-0.0730317
-0.128258
-0.228439
-0.428665
-0.608937
-0.529208
-0.349548
0.425
1.19955
1.9891
2.66364
2.96324
3.01781
2.42233
1.76672
0.991244
0.39552
0.0999547
-0.100362
-0.18543
-0.24043
-0.275362
-0.290136
-0.294751
-0.299253
-0.303597
-0.307692
-0.306561
-0.305294
-0.308937
-0.312511
-0.306018
-0.29957
-0.303145
-0.306584
-0.29991
-0.293145
-0.29629
-0.299434
-0.297534
-0.295453
-0.292715
-0.289072
-0.284842
-0.280249
-0.276697
-0.269774
-0.266516
-0.267647
-0.271742
-0.293439
-0.315543
-0.312647
-0.306063
-0.315339
-0.322149
-0.311629
-0.300272
-0.288077
-0.270769
-0.248371
-0.230928
-0.223416
-0.210837
-0.19819
-0.190543
-0.182941
-0.160317
-0.132625
-0.114932
-0.102262
-0.0846381
-0.0670589
-0.0494797
-0.0319005
-0.00929868
0.0133257
0.0309728
0.0486877
0.0516063
0.0446606
0.042647
0.0405882
0.023552
0.00156106
-0.000271514
-0.00201359
-0.0137104
-0.0253846
-0.0421267
-0.0589819
-0.0659955
-0.0731448
-0.0604299
-0.0478733
-0.0604525
-0.0732127
-0.0661765
-0.0593213
-0.0576245
-0.0561086
-0.0597285
-0.0633937
-0.0570589
-0.050724
-0.0494344
-0.0482127
-0.0470362
-0.0458824
-0.0497512
-0.0536199
-0.0526471
-0.0520136
-0.0519231
-0.0528055
-0.0545702
-0.0410634
-0.01181
0.000950197
0.0172172
0.0320814
0.0400226
0.0693439
0.108982
0.161018
0.135158
0.19086
0.163937
0.120724
0.0766516
0.0672398
0.0576018
0.037828
0.0180317
0.00325791
-0.0215385
-0.0664027
-0.106312
-0.126222
-0.141131
-0.131063
-0.121063
-0.126041
-0.130973
-0.120905
-0.11086
-0.110792
-0.110724
-0.105701
-0.105679
-0.115633
-0.235543
-0.430407
-0.555249
-0.640091
-0.415
-0.0549322
0.750249
1.70552
2.35079
2.92102
3.00109
2.98602
2.15595
1.23091
0.67586
0.140747
-0.049457
-0.229751
-0.250113
-0.270385
-0.275453
-0.280272
-0.289842
-0.299253
-0.298529
-0.297692
-0.306742
-0.315634
-0.309344
-0.302896
-0.306312
-0.309548
-0.302624
-0.295611
-0.288507
-0.281358
-0.274163
-0.271923
-0.284638
-0.292398
-0.295272
-0.298303
-0.291267
-0.278507
-0.265091
-0.256041
-0.251855
-0.248575
-0.252195
-0.259186
-0.264819
-0.274367
-0.281606
-0.285249
-0.287805
-0.29233
-0.293416
-0.290701
-0.290837
-0.264774
-0.2381
-0.226109
-0.214027
-0.206923
-0.199796
-0.187647
-0.175475
-0.158303
-0.136109
-0.113891
-0.0916742
-0.0694344
-0.047172
-0.0299095
-0.0126923
0.00947962
0.0267194
0.029095
0.0315158
0.0289819
0.0264706
0.0239366
0.0113801
-0.00615386
-0.0184842
-0.0309502
-0.0432127
-0.0506335
-0.0582353
-0.0660181
-0.0688462
-0.0717195
-0.0797059
-0.0878054
-0.0859955
-0.0743439
-0.0679412
-0.0667421
-0.0656335
-0.064638
-0.0536878
-0.0527376
-0.0568326
-0.0609955
-0.0601584
-0.0593213
-0.0535294
-0.0478054
-0.0521267
-0.0564706
-0.0658824
-0.0759728
-0.0820815
-0.0838461
-0.0709276
-0.0672398
-0.0869909
-0.0981674
-0.0850905
-0.0591855
-0.0207918
0.0129412
0.0415837
0.0615159
0.0623077
0.0756561
0.106674
0.136923
0.161425
0.15586
0.130249
0.0896832
0.0391403
0.0135973
-0.00694568
-0.0274887
-0.0480317
-0.0636426
-0.0793213
-0.1
-0.120679
-0.146357
-0.167036
-0.172715
-0.178394
-0.16905
-0.159683
-0.155294
-0.150905
-0.141606
-0.127375
-0.0981674
-0.118982
-0.299774
-0.47052
-0.616199
-0.65181
-0.467398
-0.0629864
0.661403
1.44579
2.3002
2.88464
3.20412
2.97355
2.28794
1.51229
0.676584
0.20586
-0.0599095
-0.195611
-0.27129
-0.297082
-0.297941
-0.298778
-0.304525
-0.310045
-0.310385
-0.315588
-0.325611
-0.330453
-0.335158
-0.339751
-0.339163
-0.328394
-0.317443
-0.31629
-0.315023
-0.313778
-0.312557
-0.31138
-0.310249
-0.289163
-0.26819
-0.272353
-0.276652
-0.271086
-0.265407
-0.269525
-0.27267
-0.269887
-0.267217
-0.259864
-0.25457
-0.251719
-0.248235
-0.248688
-0.256538
-0.271131
-0.275362
-0.268032
-0.266176
-0.265543
-0.257443
-0.247579
-0.237036
-0.226086
-0.21009
-0.19405
-0.188009
-0.181968
-0.15095
-0.119977
-0.0990724
-0.113167
-0.0571266
-0.041018
-0.0249999
-0.00904971
0.0119005
0.032896
0.0390046
0.045181
0.0363801
0.0276019
0.0138009
-0.00495471
-0.023552
-0.0369909
-0.0403167
-0.0487104
-0.0622624
-0.0709275
-0.079751
-0.088733
-0.0878506
-0.0870814
-0.0814253
-0.0758596
-0.0703845
-0.0649773
-0.069638
-0.0744343
-0.0693438
-0.0643212
-0.0643665
-0.0643891
-0.0644117
-0.0644796
-0.0595701
-0.054638
-0.0546833
-0.0546606
-0.0547964
-0.0557919
-0.0626018
-0.0751131
-0.0828281
-0.0847512
-0.0849321
-0.0869457
-0.0854752
-0.080181
-0.0723303
-0.0381221
-0.00499994
0.0199774
0.0414027
0.0540045
0.0644796
0.0738009
0.0926245
0.126199
0.149706
0.148258
0.131855
0.0904751
0.0591403
0.0428733
0.0216063
0.000316769
-0.0109955
-0.0173303
-0.0386878
-0.0650452
-0.0913574
-0.117624
-0.128891
-0.125158
-0.121471
-0.117828
-0.114186
-0.110543
-0.10181
-0.0929865
-0.0791856
-0.0654073
-0.106606
-0.162783
-0.388959
-0.605136
-0.58629
-0.522421
-0.0785295
0.450385
1.41434
2.29337
2.82744
3.21154
3.13066
2.78489
1.79428
0.958688
0.408032
0.0122851
-0.138552
-0.229321
-0.235023
-0.240701
-0.24638
-0.25224
-0.258258
-0.259163
-0.249909
-0.250385
-0.265769
-0.275792
-0.275656
-0.275407
-0.270023
-0.26448
-0.263756
-0.257896
-0.2469
-0.240792
-0.239661
-0.238597
-0.242647
-0.246833
-0.246131
-0.235498
-0.224932
-0.239412
-0.253959
-0.243665
-0.23328
-0.227692
-0.221222
-0.213688
-0.206086
-0.208597
-0.213145
-0.21
-0.211312
-0.20328
-0.206357
-0.216561
-0.220452
-0.21776
-0.215701
-0.21457
-0.206403
-0.191493
-0.175995
-0.165045
-0.153982
-0.142873
-0.13181
-0.120769
-0.0997511
-0.0737556
-0.0577601
-0.0467647
-0.0257692
-0.00477371
0.00631227
0.0174887
0.0287104
0.0399774
0.0412897
0.0326471
0.00907245
-0.00938909
-0.0176923
-0.0259049
-0.0341628
-0.0425113
-0.0560633
-0.0697737
-0.0735519
-0.0774207
-0.07638
-0.0754072
-0.0745022
-0.0737104
-0.0730316
-0.0725113
-0.0721493
-0.0718778
-0.061629
-0.0514027
-0.0511991
-0.0509955
-0.0507918
-0.0505882
-0.0503846
-0.050181
-0.0499774
-0.0500226
-0.0553847
-0.0618552
-0.0693665
-0.0768552
-0.0791177
-0.0794344
-0.0823982
-0.0810407
-0.0707918
-0.0582353
-0.049027
-0.0502262
-0.0530316
-0.0403619
-0.0164931
0.0148644
0.0444119
0.0383033
0.0318553
0.0404526
0.0540951
0.0977829
0.136516
0.140294
0.134118
0.0930318
0.0569684
0.0308598
0.00972858
-0.00135735
-0.017466
-0.0335746
-0.0546379
-0.0806786
-0.106719
-0.142737
-0.158733
-0.159728
-0.155746
-0.14681
-0.137896
-0.128982
-0.125045
-0.131086
-0.127172
-0.103303
-0.134389
-0.18043
-0.376425
-0.607376
-0.618303
-0.589208
-0.135136
0.368914
1.34801
0.392172
2.85143
3.32075
3.03011
2.67955
1.71405
0.818484
0.372783
-0.0129637
-0.14371
-0.244412
-0.27009
-0.285792
-0.286516
-0.287353
-0.283009
-0.278891
-0.284661
-0.290136
-0.295339
-0.300385
-0.300271
-0.300045
-0.294706
-0.289253
-0.288665
-0.287941
-0.292127
-0.296335
-0.295566
-0.289842
-0.279163
-0.273552
-0.268009
-0.262556
-0.262195
-0.261878
-0.261652
-0.256516
-0.24629
-0.240814
-0.239638
-0.227466
-0.215023
-0.202715
-0.191765
-0.182647
-0.177059
-0.180611
-0.187081
-0.191154
-0.195294
-0.194027
-0.188756
-0.179072
-0.166946
-0.147557
-0.132466
-0.116719
-0.100928
-0.0850679
-0.0742082
-0.063371
-0.0425339
-0.0166742
0.00420813
0.0150905
0.025905
0.0366516
0.0423982
0.0482127
0.0541629
0.0502489
0.0363348
0.0224208
0.00855201
-0.00524887
-0.0188688
-0.0323303
-0.0407692
-0.0492308
-0.0528959
-0.0567421
-0.0607014
-0.0697512
-0.0638688
-0.058077
-0.0623304
-0.0666969
-0.0612444
-0.0559276
-0.0557919
-0.0557692
-0.0507919
-0.0458145
-0.0457919
-0.0457692
-0.0407693
-0.0357693
-0.0407919
-0.0458371
-0.0458145
-0.0459729
-0.0513801
-0.057715
-0.0601358
-0.0626697
-0.0651358
-0.0656109
-0.0688914
-0.0728281
-0.0811539
-0.0734163
-0.0636426
-0.0552489
-0.0435068
-0.0112218
0.0269457
0.0480769
0.0624434
0.0662443
0.0696153
0.0828733
0.0960859
0.129366
0.0977149
0.166131
0.164661
0.113281
0.061923
0.0455429
0.0291402
0.0127601
-0.00359733
-0.0199322
-0.0412444
-0.072534
-0.103801
-0.125091
-0.141425
-0.142738
-0.144118
-0.140453
-0.13672
-0.132919
-0.129118
-0.125339
-0.111561
-0.0927828
-0.113982
-0.170136
-0.326244
-0.54733
-0.608371
-0.579367
-0.280339
0.13371
0.922828
1.83704
2.48133
3.0557
3.07009
2.9795
2.09396
1.11848
0.578145
0.0728733
-0.0873982
-0.237692
-0.253009
-0.268348
-0.268688
-0.269027
-0.274367
-0.279751
-0.285181
-0.290566
-0.290928
-0.291154
-0.286199
-0.281109
-0.280882
-0.28052
-0.285091
-0.289661
-0.289231
-0.288756
-0.283235
-0.277692
-0.277127
-0.276561
-0.270996
-0.26552
-0.265136
-0.264796
-0.259525
-0.254253
-0.259005
-0.253846
-0.238756
-0.233643
-0.228122
-0.216742
-0.204751
-0.19733
-0.195656
-0.185747
-0.17414
-0.176901
-0.187805
-0.191199
-0.195498
-0.199977
-0.201448
-0.198778
-0.192941
-0.179208
-0.164389
-0.148846
-0.128167
-0.107443
-0.0917195
-0.0759955
-0.0552715
-0.0395702
-0.0238915
-0.00321273
0.0126017
0.0185972
0.0246606
0.0207692
0.0169004
0.0180543
0.0142534
0.000497706
-0.013077
-0.0217647
-0.0401358
-0.0635068
-0.0721041
-0.0709276
-0.0698417
-0.0738462
-0.0779412
-0.0771267
-0.0763575
-0.0806788
-0.085181
-0.0848642
-0.0796833
-0.0845928
-0.0645249
-0.0644796
-0.0744344
-0.0843891
-0.0793439
-0.0743213
-0.0743213
-0.0742986
-0.0742308
-0.074276
-0.0795701
-0.0856108
-0.0877149
-0.0901584
-0.0874208
-0.083552
-0.0878959
-0.0936878
-0.100362
-0.0992534
-0.0806788
-0.0621268
-0.0440725
-0.0350906
-0.0455883
-0.0435747
-0.0238914
-0.00490953
0.0133936
0.0315158
0.0444796
0.0524887
0.0605656
0.0886877
0.121855
0.130113
0.133416
0.111765
0.0801809
0.0537556
0.0273981
0.00106326
-0.0202489
-0.0365838
-0.0529412
-0.0793213
-0.105724
-0.127081
-0.148394
-0.159729
-0.171086
-0.157421
-0.143733
-0.140068
-0.136425
-0.132738
-0.124005
-0.110294
-0.101561
-0.10276
-0.188937
-0.380091
-0.516176
-0.607195
-0.43819
-0.0491855
0.679887
1.64905
2.34821
2.89235
3.08654
3.12577
2.46007
1.53943
0.833801
0.193167
-0.0473529
-0.207805
-0.238281
-0.253756
-0.264231
-0.274683
-0.28009
-0.280452
-0.280792
-0.281222
-0.286765
-0.292308
-0.287851
-0.283303
-0.283643
-0.283846
-0.278914
-0.273959
-0.279027
-0.284095
-0.28414
-0.28414
-0.284095
-0.284027
-0.278891
-0.27371
-0.268507
-0.263394
-0.268348
-0.268326
-0.258348
-0.248462
-0.238665
-0.233937
-0.229095
-0.223484
-0.217149
-0.210068
-0.202851
-0.191471
-0.181968
-0.175724
-0.172986
-0.17905
-0.192692
-0.197851
-0.197195
-0.193959
-0.212262
-0.166584
-0.148643
-0.144344
-0.139412
-0.109163
-0.0788235
-0.0584163
-0.0379638
-0.0224661
-0.00694569
0.0035068
0.0139593
0.00950228
0.0101358
0.0358598
0.0566064
0.0473982
0.0332806
0.0192534
0.00531678
-0.0185068
-0.0323077
-0.0411086
-0.055
-0.0840271
-0.0931674
-0.0974208
-0.10181
-0.101312
-0.100882
-0.0955203
-0.0903167
-0.0952715
-0.100294
-0.0953846
-0.0905429
-0.0907692
-0.0909276
-0.0860181
-0.0811086
-0.0862217
-0.0913574
-0.0914706
-0.0915158
-0.0915611
-0.0916742
-0.0922172
-0.0986651
-0.105769
-0.108326
-0.110181
-0.115339
-0.117285
-0.104932
-0.0894344
-0.0764932
-0.0628054
-0.0540498
-0.0483484
-0.0318552
-0.0186652
-0.0284842
-0.0294118
-0.011086
0.00710406
0.0252262
0.0332805
0.0362669
0.044276
0.0523303
0.0854298
0.128597
0.141855
0.145181
0.128552
0.0969683
0.0604072
0.0288914
0.0174435
0.00604074
-0.010362
-0.0267647
-0.05819
-0.094638
-0.111109
-0.127602
-0.139072
-0.15052
-0.136946
-0.123348
-0.119796
-0.116267
-0.102715
-0.0841402
-0.0654977
-0.0968099
-0.2481
-0.409367
-0.585611
-0.626833
-0.438032
-0.0191629
0.699774
1.47376
2.31278
2.88186
3.21095
3.02509
2.4543
1.68862
0.812941
0.317466
0.0120588
-0.138281
-0.223552
-0.253733
-0.263869
-0.269027
-0.274163
-0.279253
-0.279344
-0.27948
-0.279638
-0.279887
-0.280249
-0.265633
-0.26095
-0.271222
-0.28138
-0.271403
-0.26138
-0.256403
-0.251448
-0.251493
-0.251493
-0.251516
-0.251448
-0.246267
-0.241086
-0.240905
-0.240724
-0.230566
-0.220362
-0.225158
-0.230023
-0.22491
-0.219842
-0.219842
-0.219864
-0.214661
-0.203462
-0.191516
-0.184276
-0.182285
-0.171697
-0.158507
-0.154299
-0.15362
-0.15586
-0.159955
-0.159729
-0.15767
-0.146425
-0.131719
-0.129095
-0.124842
-0.0947738
-0.0693213
-0.058733
-0.0480996
-0.0224208
0.00330316
0.00898189
0.0146606
0.0154525
0.0163575
0.0223303
0.0283258
0.0193213
0.0103394
0.00142533
-0.0123303
-0.035905
-0.0544118
-0.0578959
-0.0614706
-0.0652036
-0.074095
-0.0831222
-0.0871946
-0.0913122
-0.0955204
-0.089819
-0.0842987
-0.0789819
-0.0737331
-0.073552
-0.0734163
-0.0733258
-0.0731901
-0.0680091
-0.0628507
-0.057715
-0.0525113
-0.0572172
-0.0618552
-0.0616969
-0.0623077
-0.0637104
-0.0659502
-0.0684163
-0.0750679
-0.0798869
-0.0765159
-0.0697285
-0.0642308
-0.0561991
-0.0417195
-0.0281674
-0.0272851
-0.0299548
-0.0216742
-0.0157014
-0.0261991
-0.0373982
-0.0290046
-0.0107693
0.0123982
0.0255656
0.028733
0.0419457
0.0602262
0.0735747
0.0870136
0.110543
0.13914
0.142873
0.121697
0.0805204
0.0343439
0.00819006
-0.00794117
-0.0190271
-0.0300679
-0.0561312
-0.0822172
-0.113303
-0.144389
-0.150475
-0.151561
-0.15267
-0.143801
-0.149887
-0.155928
-0.147014
-0.138145
-0.124253
-0.110339
-0.106425
-0.152489
-0.368484
-0.539412
-0.610317
-0.556222
-0.247127
0.282036
1.16129
1.94061
2.58
2.98446
3.13398
2.72857
1.79824
1.02801
0.387896
0.0328507
-0.147127
-0.231968
-0.266697
-0.281357
-0.280973
-0.280611
-0.280249
-0.279977
-0.284751
-0.289548
-0.284389
-0.279276
-0.274276
-0.26948
-0.274796
-0.275136
-0.270362
-0.270453
-0.270498
-0.265498
-0.26043
-0.260294
-0.260136
-0.259955
-0.259661
-0.254253
-0.248801
-0.238258
-0.22767
-0.227081
-0.226538
-0.226041
-0.225566
-0.220113
-0.214683
-0.204253
-0.193891
-0.193552
-0.192896
-0.186833
-0.169977
-0.147511
-0.130136
-0.118575
-0.10948
-0.103416
-0.0964027
-0.0926471
-0.0859502
-0.0800226
-0.0832805
-0.0840498
-0.0706109
-0.054095
-0.0354751
-0.0156787
-0.000248872
0.0204751
0.0262443
0.0320136
0.0378507
0.0438235
0.0399547
0.0361991
0.0225113
0.0088914
-0.00468327
-0.0232127
-0.0416968
-0.0550905
-0.0683484
-0.0815611
-0.0897964
-0.0982353
-0.0919005
-0.0856787
-0.0895249
-0.0934163
-0.087353
-0.0814027
-0.0805656
-0.0799095
-0.0744344
-0.0689593
-0.0634615
-0.0579638
-0.0574208
-0.0569004
-0.0514027
-0.045905
-0.0454072
-0.0448643
-0.044276
-0.0486878
-0.0583484
-0.0640271
-0.0605204
-0.0573756
-0.0590271
-0.0643439
-0.0673529
-0.066448
-0.0620588
-0.054819
-0.0458371
-0.031267
-0.0185973
-0.0152036
-0.015362
-0.0234842
-0.0332806
-0.0339593
-0.0350905
-0.0413349
-0.0428507
-0.0144344
0.00898189
0.0323982
0.0458145
0.0492081
0.0576697
0.0712443
0.0999095
0.133665
0.147557
0.141493
0.100475
0.0445249
0.0136199
-0.00223982
-0.0230769
-0.0438914
-0.0596833
-0.0754525
-0.106222
-0.136991
-0.15276
-0.168529
-0.174253
-0.169932
-0.155633
-0.146357
-0.142104
-0.137873
-0.13362
-0.129344
-0.110023
-0.100633
-0.166199
-0.261742
-0.442262
-0.577692
-0.557986
-0.378167
0.166742
0.836697
1.72667
2.44172
2.89683
3.06701
2.88226
2.3276
1.39803
0.718552
0.244163
-0.0251584
-0.159412
-0.218552
-0.237557
-0.246538
-0.25052
-0.25957
-0.268688
-0.277919
-0.28724
-0.286652
-0.276176
-0.270814
-0.265656
-0.260769
-0.261063
-0.266471
-0.281855
-0.277104
-0.272262
-0.272285
-0.272217
-0.272127
-0.271968
-0.271697
-0.27129
-0.260769
-0.250181
-0.254502
-0.258778
-0.258009
-0.257217
-0.256493
-0.255814
-0.245158
-0.23448
-0.228801
-0.223167
-0.217579
-0.206991
-0.196267
-0.184683
-0.172353
-0.159796
-0.142602
-0.12224
-0.109548
-0.106086
-0.106176
-0.0987104
-0.0925113
-0.0909955
-0.0873077
-0.0795249
-0.0684842
-0.0549321
-0.0400226
-0.0245249
-0.0337783
0.0120136
0.0278733
0.028914
0.0300905
0.0313575
0.0326697
0.0140045
-0.00461538
-0.0181674
-0.0315837
-0.0548416
-0.0680317
-0.076267
-0.0847059
-0.0933937
-0.10224
-0.101176
-0.100181
-0.104253
-0.108439
-0.107738
-0.107172
-0.101742
-0.0964027
-0.0961538
-0.095905
-0.0906108
-0.0852715
-0.0799095
-0.0745475
-0.0741855
-0.0738461
-0.0735294
-0.0780995
-0.0876018
-0.0923982
-0.0926697
-0.0988461
-0.110679
-0.122421
-0.133371
-0.1319
-0.122466
-0.114072
-0.102511
-0.0839819
-0.0647285
-0.0613348
-0.060543
-0.0540498
-0.0506787
-0.0445023
-0.0396832
-0.0506108
-0.0618552
-0.0632353
-0.0597511
-0.0413575
-0.0230317
-0.00477376
0.00839368
0.0114706
0.0196154
0.0278733
0.0511991
0.0895928
0.113077
0.121629
0.100226
0.0588236
0.0274661
0.00115388
-0.0151131
-0.0263348
-0.0475565
-0.0687783
-0.095
-0.121222
-0.137398
-0.153529
-0.159683
-0.165882
-0.167149
-0.153462
-0.144751
-0.136018
-0.13724
-0.138416
-0.129548
-0.120633
-0.126719
-0.167783
-0.363801
-0.524774
-0.570701
-0.491561
-0.0923077
0.492059
1.42149
2.20097
2.7355
3.01016
2.93995
2.45982
1.54975
0.824774
0.259887
-0.0499095
-0.179615
-0.234231
-0.248869
-0.263281
-0.272602
-0.2769
-0.271222
-0.265701
-0.265294
-0.265023
-0.264887
-0.264887
-0.265
-0.265272
-0.260724
-0.256403
-0.257217
-0.253054
-0.248756
-0.254208
-0.259525
-0.249796
-0.240045
-0.240249
-0.240385
-0.23543
-0.230362
-0.235204
-0.239955
-0.234593
-0.229186
-0.223756
-0.218303
-0.207896
-0.197489
-0.202081
-0.206765
-0.206561
-0.196493
-0.176471
-0.166086
-0.165249
-0.158597
-0.146425
-0.12957
-0.113869
-0.101154
-0.0868099
-0.0864253
-0.0940271
-0.0883258
-0.0826697
-0.0850453
-0.084457
-0.0599548
-0.0327376
-0.0238235
-0.0139819
0.00638009
0.021991
0.0277602
0.0336425
0.0446154
0.0556561
0.0417421
0.0278959
0.019095
0.0104072
-0.00307691
-0.016448
-0.029819
-0.0433032
-0.0469683
-0.0507692
-0.0596832
-0.0686651
-0.0676923
-0.0668326
-0.066086
-0.0654299
-0.0648642
-0.0643665
-0.0639367
-0.058552
-0.0432127
-0.0328959
-0.0375339
-0.0421493
-0.0417421
-0.0413575
-0.0459955
-0.0506335
-0.0452715
-0.0399321
-0.0397737
-0.0405203
-0.0420135
-0.048733
-0.0601357
-0.0647964
-0.0618778
-0.0547964
-0.0442534
-0.0413574
-0.0372624
-0.0235294
-0.0120588
-0.00979635
-0.0109049
-0.0146606
-0.0198868
-0.0257692
-0.0319231
-0.0381674
-0.0445927
-0.0511991
-0.0478733
-0.0145701
0.00875568
0.0170815
0.0254525
0.0388688
0.0473077
0.0557693
0.079276
0.117873
0.136606
0.13043
0.0893213
0.0332805
0.00226244
-0.013733
-0.0246833
-0.0355882
-0.0514706
-0.0673303
-0.0881448
-0.108914
-0.129729
-0.150588
-0.156448
-0.157308
-0.158145
-0.148937
-0.149638
-0.150317
-0.136086
-0.1219
-0.0977149
-0.0884842
-0.174163
-0.284796
-0.475407
-0.600973
-0.531516
-0.272014
0.387557
1.13219
2.01192
2.67672
3.04156
3.04152
2.60658
1.9517
1.09186
0.497195
0.112715
-0.101719
-0.216109
-0.265385
-0.27957
-0.283756
-0.282941
-0.282036
-0.286041
-0.290091
-0.289186
-0.288326
-0.292579
-0.292036
-0.281652
-0.27638
-0.276199
-0.276063
-0.276063
-0.276267
-0.276697
-0.272285
-0.267783
-0.273054
-0.278145
-0.278054
-0.277873
-0.272624
-0.26733
-0.261946
-0.256425
-0.250837
-0.245136
-0.239321
-0.233484
-0.222647
-0.211878
-0.211131
-0.210362
-0.204593
-0.198846
-0.193122
-0.182466
-0.1669
-0.151312
-0.14043
-0.123688
-0.106312
-0.0937556
-0.0819004
-0.0620814
-0.045362
-0.033009
-0.0239819
-0.0221945
-0.021086
-0.0293439
-0.0348416
-0.0161765
0.0104299
0.019276
0.0292987
0.0300905
0.0312217
0.0224661
0.0137783
0.0101584
0.00658373
-0.00192306
-0.0152941
-0.0385068
-0.0566516
-0.0647964
-0.0730995
-0.0816968
-0.0904298
-0.0892308
-0.0880995
-0.0920362
-0.0960407
-0.100113
-0.104299
-0.0985973
-0.0929638
-0.0873982
-0.0819004
-0.081448
-0.0859955
-0.0954977
-0.09
-0.0745022
-0.0689593
-0.068371
-0.0676697
-0.0669231
-0.0665837
-0.0717647
-0.0778054
-0.0744344
-0.0707918
-0.0709955
-0.0682353
-0.0621493
-0.0571267
-0.0491629
-0.0396154
-0.0301357
-0.0176923
-0.00828055
-0.0128281
-0.0201584
-0.0193213
-0.0195475
-0.0253846
-0.0315158
-0.0276697
-0.0240272
-0.0354299
-0.0469005
-0.0534615
-0.0601131
-0.0618326
-0.048552
-0.0202941
-0.00199094
0.00640273
0.00988689
0.0134616
0.0371267
0.0708598
0.109638
0.143484
0.122443
0.0714932
0.0305656
-0.0103394
-0.0312217
-0.0470815
-0.0529186
-0.058733
-0.0795249
-0.100294
-0.131063
-0.156833
-0.162602
-0.168371
-0.159118
-0.149842
-0.150566
-0.15129
-0.147014
-0.142738
-0.133416
-0.124027
-0.13457
-0.200045
-0.390475
-0.530814
-0.581063
-0.43629
0.0135068
0.698371
1.6583
2.38837
2.87857
3.02389
2.87932
2.2648
1.34032
0.685928
0.186652
-0.0675566
-0.201697
-0.250815
-0.26491
-0.26905
-0.268235
-0.267466
-0.271719
-0.275973
-0.270249
-0.264593
-0.269005
-0.273484
-0.263032
-0.262624
-0.262308
-0.257059
-0.2519
-0.251855
-0.251878
-0.246968
-0.242195
-0.247511
-0.252964
-0.243552
-0.23414
-0.234729
-0.235113
-0.235271
-0.235339
-0.230272
-0.225113
-0.224887
-0.224593
-0.219231
-0.213756
-0.21319
-0.207624
-0.197014
-0.19138
-0.185747
-0.175113
-0.16448
-0.148891
-0.133371
-0.117941
-0.102602
-0.0873529
-0.0719683
-0.0511538
-0.0297738
-0.00762444
0.0145475
0.0311538
0.0203394
0.056086
0.0583484
0.0620362
0.0636878
0.0639367
0.0662217
0.0566516
0.0506561
0.0383937
0.0276697
0.0130769
-0.00615384
-0.0251131
-0.038914
-0.0475792
-0.0609728
-0.0792081
-0.0924887
-0.10095
-0.109615
-0.113484
-0.117398
-0.116335
-0.115317
-0.114344
-0.113439
-0.107602
-0.101923
-0.0963801
-0.0908823
-0.0854299
-0.0799321
-0.0793891
-0.0788461
-0.0733032
-0.0677375
-0.0721493
-0.0765385
-0.075905
-0.0753167
-0.0750226
-0.0806109
-0.0868552
-0.0833484
-0.0792081
-0.0730543
-0.0638235
-0.0652715
-0.0634389
-0.0594118
-0.0547738
-0.0458371
-0.0397512
-0.0279186
-0.019095
-0.0225792
-0.0273303
-0.0327828
-0.0385294
-0.0394118
-0.0403846
-0.0364254
-0.037534
-0.0487331
-0.0600226
-0.0713575
-0.0777376
-0.0742082
-0.0707693
-0.072353
-0.0639819
-0.0506561
-0.0323303
-0.0140046
-0.00563351
0.0028054
0.0263348
0.0499773
0.0836878
0.117466
0.12138
0.120385
0.0694117
0.00848414
-0.00739821
-0.0232579
-0.0390724
-0.0548416
-0.0705882
-0.0863122
-0.112036
-0.13776
-0.143507
-0.149253
-0.149955
-0.150656
-0.15138
-0.152081
-0.147738
-0.138348
-0.123914
-0.109389
-0.0897738
-0.120113
-0.225407
-0.360588
-0.530656
-0.535656
-0.415588
0.11457
0.879706
1.65505
2.43545
2.87597
3.18161
2.72731
2.03308
1.25887
0.464683
0.145452
-0.0938009
-0.168077
-0.222421
-0.231878
-0.226425
-0.245995
-0.245588
-0.255226
-0.26491
-0.259661
-0.25448
-0.264299
-0.274118
-0.268914
-0.263688
-0.268462
-0.273235
-0.268009
-0.262783
-0.257534
-0.25233
-0.252127
-0.251991
-0.251946
-0.251968
-0.252036
-0.25224
-0.247602
-0.243167
-0.243869
-0.244412
-0.239774
-0.234977
-0.230068
-0.225091
-0.220045
-0.214932
-0.209706
-0.204412
-0.199095
-0.188756
-0.178439
-0.163122
-0.147805
-0.137466
-0.127104
-0.101787
-0.0815158
-0.066267
-0.051086
-0.0359955
-0.0209955
-0.00604073
0.00932127
0.0252036
0.0416742
0.058733
0.0752262
0.0910181
0.103552
0.107647
0.108371
0.100814
0.0918778
0.0668326
0.0392534
0.0143891
-0.0110634
-0.0326244
-0.0527149
-0.0715611
-0.0801584
-0.0835747
-0.0921946
-0.101063
-0.105
-0.109005
-0.113054
-0.117149
-0.121335
-0.115611
-0.109977
-0.104434
-0.098914
-0.0984163
-0.0929186
-0.0824208
-0.0769457
-0.0764932
-0.0710181
-0.0654978
-0.0699321
-0.0743213
-0.0685973
-0.0630091
-0.0679412
-0.0735068
-0.0698416
-0.0661991
-0.0720136
-0.0754299
-0.075362
-0.0717873
-0.0697511
-0.0657692
-0.0504525
-0.0371946
-0.0320814
-0.0304751
-0.027466
-0.0309502
-0.0405656
-0.0455882
-0.0409276
-0.0363575
-0.04181
-0.0523982
-0.0630543
-0.0688235
-0.0647285
-0.060724
-0.0667647
-0.0728959
-0.0791403
-0.0854299
-0.0867873
-0.0882579
-0.084819
-0.0814253
-0.0830543
-0.0696832
-0.0663122
-0.0479412
-0.0295701
-0.0161991
-0.00282805
0.0305656
0.0590272
0.0975792
0.126267
0.0900679
0.048914
0.00782804
-0.0231901
-0.0342082
-0.0450905
-0.0559276
-0.0767194
-0.102466
-0.118213
-0.133959
-0.139661
-0.145317
-0.15095
-0.151561
-0.152127
-0.147647
-0.143077
-0.143439
-0.13371
-0.113891
-0.0940271
-0.0791177
-0.16914
-0.294095
-0.433982
-0.573801
-0.453552
-0.293235
0.432172
1.19267
1.94824
2.68887
3.01453
3.2802
2.74586
2.15647
1.20704
0.372534
0.0829638
-0.156674
-0.20638
-0.246109
-0.250837
-0.255588
-0.255385
-0.255181
-0.259977
-0.264751
-0.259502
-0.254276
-0.259027
-0.263778
-0.263529
-0.263348
-0.263258
-0.263213
-0.25819
-0.253167
-0.253213
-0.253394
-0.24871
-0.244186
-0.249706
-0.25
-0.240091
-0.235091
-0.235023
-0.234864
-0.234615
-0.234344
-0.239027
-0.238643
-0.22319
-0.212692
-0.202195
-0.201674
-0.201131
-0.200633
-0.200204
-0.189819
-0.17948
-0.164208
-0.149005
-0.138824
-0.128665
-0.118575
-0.102873
-0.0864932
-0.0645249
-0.0370136
-0.0203394
-0.00986426
0.00187784
0.00993214
0.019638
0.026448
0.0269231
0.026991
0.0244344
0.0196833
0.0189819
0.0164027
0.0154072
0.0155656
0.0161991
0.012172
-0.00160633
-0.015181
-0.0385068
-0.0616742
-0.07
-0.0785068
-0.0871946
-0.0810181
-0.104887
-0.108801
-0.112738
-0.116742
-0.110837
-0.104977
-0.104186
-0.103416
-0.0926923
-0.0820136
-0.0813348
-0.0806561
-0.0749774
-0.0692986
-0.0736199
-0.0779186
-0.0721041
-0.0662217
-0.0652941
-0.0647964
-0.0648869
-0.0656335
-0.0670362
-0.0679185
-0.0730996
-0.0750226
-0.0735294
-0.0686199
-0.0553846
-0.0407466
-0.0299548
-0.0216064
-0.0159502
-0.014638
-0.017172
-0.021086
-0.0261765
-0.0316063
-0.0373077
-0.0430769
-0.0439367
-0.0498869
-0.0559276
-0.0670589
-0.0782806
-0.0795702
-0.080905
-0.0773077
-0.0737783
-0.0552941
-0.0368326
-0.0233937
-0.00997739
-0.00651585
0.00705881
0.040724
0.0745249
0.103462
0.107489
0.0615611
0.0207013
-0.00504528
-0.0257014
-0.0412896
-0.0568326
-0.0673303
-0.0828055
-0.103281
-0.123778
-0.144231
-0.154729
-0.160226
-0.165701
-0.161154
-0.151652
-0.142195
-0.137715
-0.133213
-0.123643
-0.114005
-0.104321
-0.0946154
-0.23991
-0.400158
-0.535317
-0.650362
-0.460294
-0.200158
0.620045
1.43034
2.16568
2.80609
3.10161
3.19722
2.6779
2.05862
1.17939
0.495204
0.166063
-0.0680543
-0.157149
-0.216222
-0.235294
-0.249412
-0.263575
-0.267828
-0.267172
-0.266561
-0.265996
-0.265475
-0.264932
-0.264502
-0.269095
-0.273688
-0.278281
-0.282873
-0.282466
-0.282036
-0.276584
-0.271109
-0.270679
-0.270385
-0.265181
-0.260023
-0.259887
-0.254796
-0.259887
-0.255204
-0.250543
-0.245837
-0.24095
-0.23586
-0.230679
-0.22543
-0.220158
-0.214887
-0.209593
-0.209276
-0.203914
-0.188597
-0.178032
-0.172376
-0.166719
-0.156063
-0.140453
-0.124887
-0.104412
-0.0790272
-0.0586652
-0.0483258
-0.0330543
-0.0128281
0.00737557
0.0228054
0.0389819
0.0607466
0.0778959
0.0897285
0.100181
0.107986
0.106719
0.102104
0.0947737
0.0760181
0.0417647
0.0097285
-0.0282806
-0.0577828
-0.0740724
-0.0888235
-0.102919
-0.116833
-0.130679
-0.14457
-0.153507
-0.162489
-0.166538
-0.170679
-0.164887
-0.159163
-0.138529
-0.127941
-0.132376
-0.136833
-0.126267
-0.115679
-0.110068
-0.104412
-0.10371
-0.102941
-0.102104
-0.0962217
-0.0852941
-0.0800679
-0.0856109
-0.0917647
-0.0934389
-0.0942534
-0.0988914
-0.0998642
-0.0872172
-0.0712217
-0.0623077
-0.0520815
-0.036448
-0.0231675
-0.017715
-0.0162896
-0.0230091
-0.026267
-0.0306562
-0.035543
-0.0407466
-0.0460634
-0.0515385
-0.057172
-0.0629186
-0.0637557
-0.0646381
-0.0655657
-0.0665611
-0.0676245
-0.0687783
-0.0750679
-0.0814933
-0.0780544
-0.0746833
-0.0813575
-0.0880996
-0.0848869
-0.0666742
-0.0384842
-0.0202941
-0.00705884
0.00128958
0.00470588
0.0382127
0.0917873
0.100498
0.0893439
0.0482805
0.00230766
-0.0185521
-0.0343213
-0.0400452
-0.045724
-0.0563575
-0.0669457
-0.0825113
-0.0730317
-0.128484
-0.153891
-0.159299
-0.164706
-0.160091
-0.155452
-0.140792
-0.126063
-0.126244
-0.126357
-0.116403
-0.106357
-0.106244
-0.161063
-0.335815
-0.475498
-0.560091
-0.489593
-0.179027
0.411561
1.33217
2.09283
2.70853
3.03928
3.15502
2.68072
1.82638
1.0869
0.407308
0.0726697
-0.117014
-0.196742
-0.236516
-0.246357
-0.251267
-0.256222
-0.251222
-0.246222
-0.251222
-0.256199
-0.256154
-0.255996
-0.255769
-0.255588
-0.255453
-0.250272
-0.245045
-0.249796
-0.254548
-0.259344
-0.264208
-0.26414
-0.264118
-0.254118
-0.244208
-0.244434
-0.244887
-0.24552
-0.246063
-0.236539
-0.226787
-0.23181
-0.236765
-0.231697
-0.226561
-0.226335
-0.221063
-0.210769
-0.20043
-0.190068
-0.174683
-0.154276
-0.143914
-0.138597
-0.118348
-0.0981674
-0.0780543
-0.0580091
-0.0479864
-0.0380091
-0.0230995
-0.00789592
0.0129185
0.0393439
0.0663349
0.0928054
0.103258
0.110498
0.11871
0.12371
0.115769
0.106674
0.0918326
0.0751131
0.0470815
0.0275566
0.0115159
-0.00841627
-0.0322172
-0.0558597
-0.0694344
-0.0832127
-0.102217
-0.11629
-0.120407
-0.124525
-0.128643
-0.13276
-0.136878
-0.141086
-0.140271
-0.139706
-0.134253
-0.128778
-0.123303
-0.112873
-0.102466
-0.0970136
-0.0915159
-0.0859955
-0.0904525
-0.0948416
-0.0891629
-0.0835068
-0.0831222
-0.0835294
-0.0845701
-0.0910181
-0.097172
-0.0919457
-0.084095
-0.0821267
-0.0767421
-0.0685973
-0.0589819
-0.0538688
-0.0509502
-0.0419457
-0.0363348
-0.0387782
-0.0428733
-0.0478733
-0.0532579
-0.0538461
-0.0545701
-0.0554072
-0.0563574
-0.0623755
-0.0684389
-0.0695928
-0.0707918
-0.0770362
-0.0834163
-0.0799548
-0.076629
-0.0784163
-0.0803168
-0.0822625
-0.0792534
-0.0712896
-0.0583258
-0.0453394
-0.0322851
-0.0191855
0.00398193
0.0272851
0.0707014
0.109231
0.0878733
0.0665611
0.0103168
-0.0358144
-0.0469004
-0.0579864
-0.0790498
-0.10009
-0.111131
-0.122172
-0.138213
-0.154208
-0.165113
-0.17595
-0.171719
-0.167443
-0.158145
-0.148801
-0.139412
-0.129932
-0.125362
-0.115747
-0.101086
-0.166357
-0.301561
-0.436674
-0.566674
-0.456561
-0.226335
0.488914
1.37419
2.07957
2.73507
3.01059
3.20615
2.53676
1.73738
0.972896
0.208348
-0.00124434
-0.195882
-0.220588
-0.245385
-0.240271
-0.235249
-0.240294
-0.245385
-0.250475
-0.255566
-0.265656
-0.275747
-0.27086
-0.265996
-0.266154
-0.266425
-0.27681
-0.282217
-0.267647
-0.258122
-0.253643
-0.249344
-0.255181
-0.26095
-0.266674
-0.27224
-0.267624
-0.262919
-0.263145
-0.263326
-0.258416
-0.253394
-0.248281
-0.238054
-0.227715
-0.22233
-0.216923
-0.211561
-0.206267
-0.196063
-0.18595
-0.175882
-0.18086
-0.150928
-0.141109
-0.13638
-0.131561
-0.111538
-0.0907919
-0.0692082
-0.0474208
-0.0306109
-0.0157466
-0.0131448
-0.00961538
0.00961538
0.0317647
0.0507919
0.0614253
0.0776923
0.0835973
0.083914
0.0865384
0.0812443
0.071448
0.0570588
0.0477602
0.043552
0.0245023
0.000610858
-0.0230769
-0.0465837
-0.055181
-0.0588688
-0.0728054
-0.0869457
-0.0911312
-0.090362
-0.0896606
-0.0890272
-0.0834615
-0.0729638
-0.0725113
-0.0821041
-0.0817647
-0.0764932
-0.0761991
-0.0758824
-0.065543
-0.055181
-0.0547737
-0.0543213
-0.0538461
-0.0533258
-0.0527149
-0.0523982
-0.0527375
-0.0537104
-0.0552715
-0.0563801
-0.0514932
-0.0433937
-0.0463122
-0.046086
-0.0329412
-0.0235973
-0.0184163
-0.0112896
-0.00280545
0.00214931
-0.00144799
-0.011086
-0.0216742
-0.0274661
-0.0234163
-0.0193666
-0.0253394
-0.0314254
-0.0376244
-0.0439366
-0.050362
-0.0569005
-0.058552
-0.0602263
-0.0569231
-0.0336652
-0.00540725
0.00285067
0.0111086
0.029457
0.0479412
0.0915611
0.125294
0.114072
0.0978959
0.0567647
0.0206787
0.00468324
-0.0112217
-0.0220588
-0.0428733
-0.0736652
-0.099457
-0.120249
-0.14095
-0.156561
-0.167195
-0.162851
-0.153507
-0.144163
-0.134819
-0.125475
-0.116041
-0.101584
-0.0820136
-0.0674208
-0.0928054
-0.138167
-0.298484
-0.483756
-0.528914
-0.538959
-0.113937
0.386154
1.28627
2.23143
2.68672
2.27717
3.03278
2.89355
1.8695
0.895543
0.391584
-0.0573756
-0.151335
-0.225317
-0.229344
-0.233394
-0.242466
-0.251606
-0.250814
-0.250113
-0.249525
-0.248959
-0.248394
-0.247896
-0.247466
-0.247059
-0.251652
-0.25629
-0.250973
-0.245701
-0.250453
-0.255249
-0.250136
-0.245068
-0.245068
-0.245249
-0.240588
-0.236018
-0.23638
-0.236516
-0.236448
-0.236222
-0.240905
-0.240611
-0.230294
-0.224887
-0.224412
-0.213891
-0.203258
-0.197443
-0.191538
-0.180679
-0.169864
-0.15905
-0.148303
-0.14267
-0.137104
-0.121584
-0.101131
-0.0807692
-0.0654525
-0.0451358
-0.0340272
-0.0271041
-0.0147738
0.00780542
0.028914
0.0481674
0.063009
0.0686878
0.0715611
0.0673077
0.0632579
0.0605882
0.0525339
0.0384842
0.0319231
0.0271719
0.00807692
-0.0155656
-0.0339593
-0.0471493
-0.0603846
-0.0736878
-0.0871493
-0.100747
-0.114412
-0.128145
-0.131923
-0.130792
-0.124796
-0.118914
-0.128122
-0.137421
-0.126765
-0.116131
-0.110498
-0.104842
-0.0941403
-0.0833937
-0.0926018
-0.101765
-0.0958824
-0.0899321
-0.088914
-0.0880543
-0.0774434
-0.0675566
-0.0735068
-0.0796154
-0.080724
-0.0799321
-0.0769005
-0.0698643
-0.0586199
-0.045362
-0.0390045
-0.034276
-0.0302262
-0.0258597
-0.0159729
-0.00843894
-0.0129865
-0.0180091
-0.0234389
-0.0290045
-0.0296606
-0.0354299
-0.0463348
-0.0523756
-0.0534842
-0.0596606
-0.0659276
-0.0672851
-0.0687104
-0.070181
-0.0717195
-0.0633484
-0.0550227
-0.0416969
-0.0283484
-0.0199774
-0.0115385
-0.00298645
0.0157013
0.0542986
0.0882353
0.117308
0.111471
0.0607013
0.0149774
-0.0207014
-0.0413575
-0.0370136
-0.0426697
-0.0632806
-0.0788462
-0.0893892
-0.11491
-0.150407
-0.165882
-0.166335
-0.166765
-0.167172
-0.157534
-0.142851
-0.133167
-0.123484
-0.108756
-0.0939593
-0.0940724
-0.104095
-0.283982
-0.458801
-0.543597
-0.603348
-0.283032
0.122353
1.09285
2.00846
2.62412
3.09482
3.05057
2.75136
1.75719
0.903054
0.363914
-0.0252036
-0.149321
-0.228507
-0.237783
-0.247149
-0.246584
-0.246063
-0.250588
-0.255158
-0.254774
-0.254457
-0.254208
-0.253982
-0.253756
-0.253529
-0.253303
-0.253077
-0.257873
-0.262692
-0.257534
-0.252443
-0.252421
-0.252421
-0.252421
-0.252489
-0.24776
-0.243235
-0.243824
-0.234502
-0.225
-0.225113
-0.225
-0.234819
-0.244638
-0.239457
-0.234253
-0.219005
-0.203665
-0.193235
-0.182692
-0.172059
-0.161448
-0.150882
-0.135407
-0.119977
-0.109525
-0.099095
-0.083733
-0.0584389
-0.0432127
-0.0280316
-0.00782803
0.0225792
0.0388009
0.0556788
0.0777828
0.0994797
0.11448
0.12181
0.129977
0.134706
0.126946
0.117873
0.103756
0.0816969
0.0535973
0.0288462
0.00196834
0.0217195
-0.0526018
-0.0763801
-0.0898416
-0.103258
-0.111878
-0.120679
-0.124615
-0.12862
-0.127602
-0.126584
-0.130611
-0.134706
-0.128891
-0.123213
-0.122692
-0.12224
-0.116787
-0.111312
-0.110814
-0.110294
-0.104728
-0.0991402
-0.0935294
-0.0878507
-0.0871041
-0.0913349
-0.100588
-0.105701
-0.106652
-0.108009
-0.104661
-0.0998416
-0.103167
-0.102127
-0.0869683
-0.0690497
-0.0540497
-0.0392986
-0.0259502
-0.022172
-0.0273303
-0.0349774
-0.039457
-0.0445702
-0.0501131
-0.0507919
-0.0515837
-0.0574208
-0.0633258
-0.0693213
-0.0754298
-0.0766289
-0.0779412
-0.0793665
-0.0808371
-0.0773529
-0.0739819
-0.0857013
-0.0924661
-0.0792986
-0.0661764
-0.0480543
-0.0298642
-0.0166289
-0.00830314
-0.00488684
0.0285973
0.0771946
0.105905
0.124706
0.0836652
0.00778284
-0.0330316
-0.0538009
-0.0596154
-0.0604751
-0.0663122
-0.0771267
-0.0978733
-0.118552
-0.144185
-0.169774
-0.175339
-0.175882
-0.161403
-0.146878
-0.147285
-0.147647
-0.137986
-0.128281
-0.118462
-0.108575
-0.118597
-0.173507
-0.358303
-0.503054
-0.557738
-0.47233
-0.0967873
0.493778
1.41434
2.17502
2.73581
3.03665
3.06253
2.62344
1.75932
1.03014
0.405882
0.0665384
-0.0976923
-0.18224
-0.221878
-0.236584
-0.241357
-0.246199
-0.251109
-0.256018
-0.255928
-0.260837
-0.270747
-0.270679
-0.260633
-0.255566
-0.255475
-0.255362
-0.255226
-0.260068
-0.264887
-0.259706
-0.254525
-0.249321
-0.244095
-0.243846
-0.243575
-0.248303
-0.2531
-0.243009
-0.233032
-0.227986
-0.223145
-0.228303
-0.233552
-0.228959
-0.224638
-0.220498
-0.211131
-0.201538
-0.191697
-0.176652
-0.161629
-0.151629
-0.136584
-0.121493
-0.106425
-0.0863575
-0.0711991
-0.0609502
-0.0456335
-0.0302715
-0.00995476
0.0102941
0.0354751
0.0606109
0.070724
0.0808145
0.105928
0.125995
0.135905
0.146154
0.152081
0.15871
0.151086
0.143032
0.124208
0.102104
0.0812217
0.0520815
0.019819
-0.0136199
-0.0531222
-0.0892081
-0.111968
-0.126403
-0.127624
-0.127919
-0.127353
-0.126629
-0.125792
-0.125
-0.124253
-0.123665
-0.118235
-0.112805
-0.107353
-0.101833
-0.101244
-0.100633
-0.095
-0.0893213
-0.0885973
-0.0878733
-0.0921493
-0.096448
-0.0909728
-0.0863122
-0.0872851
-0.0885068
-0.0993439
-0.0884615
-0.0749095
-0.0772398
-0.0761538
-0.0675339
-0.0575792
-0.0475566
-0.0395475
-0.0354525
-0.0346606
-0.0367194
-0.0403394
-0.0447059
-0.049457
-0.0494344
-0.0495475
-0.0447511
-0.04
-0.0452941
-0.0506787
-0.0511312
-0.0516742
-0.0523529
-0.0531674
-0.0540498
-0.0549774
-0.0609729
-0.0670136
-0.0681222
-0.0693213
-0.0706335
-0.0720588
-0.0735747
-0.0751357
-0.0767421
-0.0784163
-0.0801357
-0.0718778
-0.0586652
-0.0404525
-0.0571946
-0.0138461
-0.0103846
0.0131222
0.0416742
0.095362
0.139163
0.0931222
0.042172
-0.0136878
-0.0594344
-0.0600452
-0.0655656
-0.0860181
-0.10138
-0.101674
-0.106878
-0.126968
-0.146968
-0.1669
-0.181787
-0.176629
-0.166448
-0.151244
-0.140973
-0.135633
-0.130226
-0.129751
-0.114163
-0.0884842
-0.167805
-0.302127
-0.441403
-0.585634
-0.469864
-0.284095
0.451606
1.29224
2.04781
2.78828
3.07867
3.33396
2.53914
1.72921
0.954186
0.224095
0.0140045
-0.176063
-0.216086
-0.251086
-0.261063
-0.271018
-0.260973
-0.250928
-0.25586
-0.260747
-0.260566
-0.260339
-0.265113
-0.269887
-0.269638
-0.269412
-0.259231
-0.248982
-0.253688
-0.258439
-0.26319
-0.267941
-0.267715
-0.267534
-0.272443
-0.27233
-0.262217
-0.25724
-0.257443
-0.252851
-0.243462
-0.239276
-0.240136
-0.240837
-0.23638
-0.231765
-0.232081
-0.232398
-0.222692
-0.207941
-0.1931
-0.188122
-0.183009
-0.167828
-0.152647
-0.137466
-0.117285
-0.0871041
-0.0619457
-0.0468326
-0.0317647
-0.0217647
-0.00680994
0.00814481
0.0279638
0.0576697
0.0830091
0.0989819
0.115611
0.132715
0.144027
0.143891
0.144683
0.146674
0.135498
0.106697
0.072172
0.0434842
0.0190498
-0.0114706
-0.033552
-0.0633032
-0.0725113
-0.0815385
-0.0957014
-0.11
-0.114253
-0.118507
-0.122851
-0.122262
-0.126674
-0.131109
-0.135633
-0.140249
-0.134955
-0.129729
-0.11448
-0.0991855
-0.0888462
-0.0784615
-0.083009
-0.0875113
-0.0870136
-0.086448
-0.0757692
-0.0655204
-0.0709502
-0.0770136
-0.088733
-0.0999547
-0.105362
-0.107443
-0.100724
-0.0905882
-0.0771041
-0.0623303
-0.0464253
-0.0341402
-0.020543
-0.0104751
-0.00873301
-0.0129864
-0.0231448
-0.0285068
-0.0340724
-0.0397964
-0.0406335
-0.0414932
-0.0423755
-0.0483258
-0.0593439
-0.0654298
-0.0665837
-0.0678054
-0.0691176
-0.0605203
-0.0519909
-0.0684615
-0.0849774
-0.0816063
-0.0783258
-0.0751357
-0.0720588
-0.0640724
-0.056086
-0.0530769
-0.045
-0.0268326
0.00147059
0.0398869
0.0783937
0.117014
0.120747
0.0795701
0.0384389
-0.00262445
-0.0236199
-0.0295701
-0.0404977
-0.0513575
-0.0721494
-0.0978733
-0.123575
-0.144253
-0.14991
-0.150543
-0.151131
-0.151652
-0.147059
-0.137376
-0.127624
-0.117805
-0.112941
-0.113009
-0.0830091
-0.0579186
-0.197692
-0.33733
-0.481855
-0.58629
-0.410679
-0.0900453
0.820566
1.67618
2.39686
2.96258
3.16828
2.98891
2.07452
1.24007
0.535498
0.065905
-0.0987557
-0.188462
-0.213213
-0.228032
-0.237919
-0.242828
-0.24276
-0.242692
-0.242602
-0.242511
-0.242421
-0.242353
-0.242308
-0.24224
-0.242149
-0.241968
-0.236697
-0.236403
-0.246109
-0.250905
-0.250814
-0.250814
-0.25086
-0.235837
-0.220792
-0.22086
-0.221131
-0.216652
-0.21224
-0.212783
-0.213122
-0.213213
-0.213235
-0.208213
-0.203167
-0.198122
-0.193054
-0.187986
-0.182738
-0.172421
-0.162036
-0.156606
-0.146222
-0.120882
-0.105588
-0.0903168
-0.0750679
-0.0648417
-0.054638
-0.0395023
-0.0245249
-0.0145475
0.000791825
0.0216742
0.0384163
0.0506108
0.0725565
0.0932127
0.106471
0.116357
0.126923
0.134548
0.120317
0.0959729
0.0676244
0.0475339
0.0169457
-0.0107466
-0.0261765
-0.0404977
-0.059095
-0.077534
-0.0861086
-0.094819
-0.103665
-0.112602
-0.116606
-0.120656
-0.119706
-0.118824
-0.118054
-0.117398
-0.106833
-0.0962896
-0.0907466
-0.085181
-0.0795928
-0.0739819
-0.0733258
-0.0726697
-0.0720136
-0.0713575
-0.070724
-0.0699548
-0.0690724
-0.0738009
-0.0841403
-0.0901584
-0.0866742
-0.0824434
-0.0768326
-0.0671493
-0.0636199
-0.06181
-0.0574435
-0.0471945
-0.0428054
-0.0326018
-0.0262217
-0.0380769
-0.0521041
-0.0519231
-0.0522398
-0.0527602
-0.0534163
-0.0541855
-0.0550452
-0.0609728
-0.0669909
-0.0730996
-0.0793213
-0.0806788
-0.0821493
-0.083733
-0.0853846
-0.0921041
-0.0988688
-0.0956561
-0.0874661
-0.0743439
-0.0561991
-0.038009
-0.0297511
-0.0364253
-0.0329638
-0.0143439
0.0243891
0.0682353
0.0721946
0.056267
0.00542985
-0.0503168
-0.0659955
-0.0766064
-0.0821493
-0.0826471
-0.0881448
-0.0836426
-0.119118
-0.134593
-0.155068
-0.17552
-0.17095
-0.166335
-0.161606
-0.15681
-0.151923
-0.146991
-0.147081
-0.142195
-0.112308
-0.112376
-0.192398
-0.312285
-0.492059
-0.581765
-0.541425
-0.271018
0.264457
1.01502
1.97568
2.63145
3.05233
3.08824
2.87412
2.16493
1.1907
0.581403
0.122036
-0.0823982
-0.2019
-0.231448
-0.241041
-0.250656
-0.260294
-0.26
-0.249774
-0.249548
-0.259321
-0.264072
-0.263801
-0.263552
-0.263326
-0.263077
-0.262783
-0.267421
-0.272014
-0.271606
-0.271222
-0.260882
-0.250566
-0.245272
-0.239977
-0.239638
-0.239367
-0.244186
-0.249253
-0.244593
-0.239909
-0.230158
-0.215204
-0.205091
-0.199864
-0.20457
-0.204299
-0.19405
-0.183824
-0.17362
-0.163326
-0.152941
-0.142534
-0.132149
-0.111833
-0.0915611
-0.0763122
-0.061086
-0.0458824
-0.0307014
-0.010543
0.00950225
0.0343665
0.0644344
0.09
0.116244
0.133258
0.150181
0.161674
0.170385
0.170701
0.16724
0.144932
0.12086
0.0903394
0.0623982
0.0373303
0.0111538
-0.0160634
-0.0417647
-0.0610181
-0.0799095
-0.0985747
-0.117443
-0.131538
-0.145701
-0.15491
-0.15914
-0.153371
-0.147602
-0.146787
-0.141131
-0.130543
-0.125023
-0.12457
-0.124095
-0.123597
-0.123054
-0.127466
-0.121878
-0.10629
-0.090724
-0.0751584
-0.0694796
-0.0688235
-0.0835294
-0.0887783
-0.089819
-0.091267
-0.0875792
-0.0826923
-0.0854072
-0.0847511
-0.0797511
-0.0717873
-0.0619231
-0.0519457
-0.0380091
-0.0273077
-0.0310181
-0.0376018
-0.0363349
-0.0360407
-0.0463349
-0.0568552
-0.0625113
-0.0682806
-0.0641629
-0.0601131
-0.066086
-0.0721267
-0.0783032
-0.084638
-0.0811086
-0.0776923
-0.0743892
-0.0761539
-0.0879638
-0.0948416
-0.0917873
-0.0838009
-0.0758145
-0.0727376
-0.0695475
-0.0711991
-0.0827602
-0.0692534
-0.0506335
-0.00192308
0.0468552
0.0357466
0.0247738
-0.0160634
-0.04681
-0.0674887
-0.0881222
-0.0937557
-0.0993665
-0.0999548
-0.10552
-0.126018
-0.146471
-0.1669
-0.177285
-0.162624
-0.152919
-0.148167
-0.143348
-0.138462
-0.133529
-0.133552
-0.113484
-0.0783258
-0.128054
-0.237647
-0.387127
-0.556493
-0.535792
-0.445023
0.165792
0.921652
1.76753
2.63344
3.04432
3.38518
2.826
2.18676
1.33249
0.478145
0.183665
-0.0909502
-0.165633
-0.230339
-0.235068
-0.239864
-0.239751
-0.239729
-0.239729
-0.239729
-0.244683
-0.249593
-0.24948
-0.249321
-0.254118
-0.258914
-0.258733
-0.258507
-0.263235
-0.267964
-0.262715
-0.257443
-0.252104
-0.246719
-0.24129
-0.235814
-0.235317
-0.234932
-0.239683
-0.239638
-0.229728
-0.224842
-0.219887
-0.214729
-0.214434
-0.214095
-0.213733
-0.203416
-0.188145
-0.182851
-0.182489
-0.157081
-0.141674
-0.131244
-0.120814
-0.100475
-0.0802262
-0.0650453
-0.0499095
-0.0347738
-0.0196833
-0.00468328
0.0154525
0.0457692
0.0768552
0.102195
0.129072
0.145792
0.155
0.161471
0.163778
0.167262
0.153733
0.128824
0.100475
0.0593439
0.0375792
0.0194118
-0.00696833
-0.0319683
-0.0513122
-0.0701357
-0.0939593
-0.112783
-0.116742
-0.120792
-0.124932
-0.129163
-0.133416
-0.127692
-0.121968
-0.126267
-0.125634
-0.120068
-0.119593
-0.119163
-0.108688
-0.0981901
-0.0976471
-0.0970362
-0.0913575
-0.0856335
-0.0849095
-0.084095
-0.0831448
-0.0824435
-0.0822399
-0.0827602
-0.084095
-0.0853394
-0.0861765
-0.0842987
-0.0790498
-0.0699774
-0.061991
-0.0521719
-0.0408371
-0.0320588
-0.0261991
-0.024276
-0.0162896
-0.00966066
-0.0142987
-0.0293213
-0.0447285
-0.0502715
-0.0459276
-0.0416742
-0.0475113
-0.0534163
-0.0594118
-0.065543
-0.0717874
-0.0780996
-0.0794797
-0.0759276
-0.0724661
-0.084095
-0.0957692
-0.097466
-0.0991855
-0.100905
-0.102579
-0.0991629
-0.0956335
-0.101991
-0.108213
-0.0993213
-0.0753394
-0.031267
-0.00210407
0.00719457
-0.00343891
-0.0540045
-0.0895475
-0.105091
-0.115633
-0.111176
-0.106652
-0.112036
-0.127376
-0.147692
-0.157919
-0.1631
-0.163258
-0.153416
-0.143552
-0.133643
-0.128643
-0.123552
-0.108416
-0.0932353
-0.127964
-0.172602
-0.347149
-0.176584
-0.510882
-0.470045
0.0858824
0.681878
1.59794
2.44907
2.90527
3.22147
2.88262
2.39871
1.43466
0.630588
0.251516
-0.032647
-0.126923
-0.191312
-0.200769
-0.210317
-0.219932
-0.22957
-0.229231
-0.228891
-0.228552
-0.228258
-0.227964
-0.227624
-0.232285
-0.236946
-0.236584
-0.236244
-0.230928
-0.225566
-0.230158
-0.239706
-0.249208
-0.25371
-0.253213
-0.252715
-0.247217
-0.241697
-0.241154
-0.230611
-0.220113
-0.219706
-0.219502
-0.209525
-0.199638
-0.199796
-0.199796
-0.194548
-0.189231
-0.183869
-0.178507
-0.163167
-0.147851
-0.142489
-0.136991
-0.126425
-0.105905
-0.0804299
-0.0600226
-0.039638
-0.0192534
-0.00391404
0.0163801
0.0416289
0.0617647
0.0768099
0.0919457
0.102421
0.118733
0.140611
0.152534
0.153552
0.15224
0.152715
0.138891
0.111855
0.0777602
0.0433936
0.0052036
-0.0299321
-0.0556788
-0.0834389
-0.103959
-0.123439
-0.132466
-0.14138
-0.140452
-0.139661
-0.138937
-0.138258
-0.142534
-0.146765
-0.151041
-0.155385
-0.149774
-0.144186
-0.138575
-0.127986
-0.112376
-0.101719
-0.106018
-0.110272
-0.10448
-0.0986652
-0.102828
-0.102172
-0.0917421
-0.0870815
-0.091629
-0.0976923
-0.103575
-0.106968
-0.107692
-0.104321
-0.0921493
-0.0779186
-0.0622625
-0.0481448
-0.0362217
-0.0386878
-0.0498417
-0.0527828
-0.0520588
-0.0467874
-0.0518779
-0.0570815
-0.0623982
-0.0628281
-0.0633937
-0.0690498
-0.0747512
-0.0704977
-0.0663349
-0.0722624
-0.0783032
-0.0794797
-0.0807693
-0.076991
-0.0734616
-0.0749774
-0.0765385
-0.0881901
-0.0999321
-0.0967647
-0.09362
-0.0954752
-0.0972625
-0.103937
-0.110475
-0.1119
-0.10319
-0.0843439
-0.0404299
0.00855201
0.027647
0.0368552
0.00113121
-0.0595475
-0.080181
-0.0957692
-0.101335
-0.101878
-0.102353
-0.10776
-0.133145
-0.153507
-0.158846
-0.164118
-0.154299
-0.144412
-0.139434
-0.134367
-0.129253
-0.124072
-0.103801
-0.0884615
-0.113077
-0.187647
-0.367149
-0.486561
-0.505882
-0.315158
0.200566
0.91129
1.86204
2.57278
3.03348
3.0991
2.83462
2.15502
1.19532
0.56052
0.110611
-0.0893665
-0.179412
-0.214457
-0.229502
-0.234547
-0.234593
-0.234638
-0.239683
-0.244751
-0.239842
-0.239955
-0.25009
-0.255181
-0.265226
-0.260249
-0.255226
-0.255158
-0.255068
-0.259977
-0.264887
-0.254796
-0.244706
-0.239638
-0.23457
-0.239457
-0.244321
-0.244185
-0.24405
-0.238937
-0.234004
-0.224253
-0.214728
-0.215407
-0.21595
-0.216335
-0.216538
-0.211584
-0.201652
-0.186765
-0.1769
-0.172014
-0.157014
-0.141968
-0.126946
-0.111968
-0.0920588
-0.0721945
-0.0623303
-0.052466
-0.0326018
-0.0127602
0.0120136
0.0366968
0.0562896
0.0412217
0.0968326
0.113145
0.130158
0.146697
0.157217
0.16414
0.156742
0.146063
0.117308
0.0823529
0.0414932
0.00404974
-0.0244797
-0.0495702
-0.0727602
-0.0883485
-0.102873
-0.117127
-0.131154
-0.140339
-0.144796
-0.149321
-0.148891
-0.148462
-0.148009
-0.147534
-0.147059
-0.146719
-0.141493
-0.13629
-0.131109
-0.125882
-0.125611
-0.125272
-0.119864
-0.114457
-0.10905
-0.103575
-0.0980543
-0.0926245
-0.0975113
-0.103235
-0.104525
-0.105905
-0.106425
-0.104638
-0.0996606
-0.095362
-0.0878507
-0.0733032
-0.0584841
-0.0448642
-0.0343665
-0.0282805
-0.0250904
-0.0289592
-0.0337782
-0.0440271
-0.0544796
-0.0550452
-0.0557465
-0.056561
-0.0573981
-0.0582805
-0.0592759
-0.0603393
-0.0614705
-0.0677375
-0.0741402
-0.0756787
-0.077285
-0.0739366
-0.0706561
-0.0774434
-0.0843213
-0.081267
-0.0781901
-0.0800905
-0.081991
-0.0838462
-0.0856335
-0.0923756
-0.0990498
-0.100611
-0.0670362
-0.0333485
0.0104751
0.0544344
0.0234615
-0.0124661
-0.0533485
-0.0892082
-0.0950227
-0.100769
-0.101448
-0.107081
-0.127692
-0.143235
-0.143756
-0.139231
-0.124661
-0.115
-0.120249
-0.125475
-0.120679
-0.110792
-0.100815
-0.0857466
-0.0655883
-0.140339
-0.285158
-0.434729
-0.589231
-0.483665
-0.268032
0.517624
1.4783
2.20903
2.8898
3.15552
3.35118
2.59172
1.72715
0.977489
1.68276
0.048009
-0.136787
-0.176629
-0.216516
-0.216448
-0.216403
-0.221403
-0.226448
-0.231471
-0.236448
-0.24138
-0.24629
-0.241222
-0.236176
-0.236109
-0.236041
-0.235928
-0.235792
-0.245656
-0.25552
-0.250362
-0.245181
-0.239977
-0.234751
-0.239502
-0.244186
-0.238846
-0.233552
-0.233281
-0.233009
-0.227738
-0.222466
-0.227195
-0.226946
-0.216719
-0.211516
-0.211335
-0.201176
-0.186041
-0.180928
-0.175837
-0.165747
-0.160701
-0.150792
-0.141086
-0.116538
-0.0919683
-0.0873077
-0.082534
-0.0626018
-0.0426244
-0.0276018
-0.00755656
0.0174434
0.0374434
0.0575113
0.0726697
0.0879186
0.103167
0.118371
0.128507
0.13362
0.138733
0.143824
0.138869
0.118846
0.10371
0.0886199
0.0641177
0.0402715
0.0223077
0.00463802
-0.0138235
-0.0293665
-0.0441855
-0.0628733
-0.0798869
-0.0991403
-0.119412
-0.133235
-0.143507
-0.150339
-0.153869
-0.145543
-0.141131
-0.136131
-0.135769
-0.135226
-0.129638
-0.12405
-0.123439
-0.122783
-0.117059
-0.111244
-0.110339
-0.109774
-0.109842
-0.110566
-0.112036
-0.113054
-0.108122
-0.0996154
-0.101742
-0.100543
-0.0912443
-0.0807693
-0.0644344
-0.0515385
-0.0425566
-0.0419683
-0.0431901
-0.0468099
-0.051267
-0.0559276
-0.0607918
-0.0657013
-0.0606561
-0.0556335
-0.0606335
-0.0706787
-0.0807692
-0.085905
-0.0811086
-0.0763575
-0.076629
-0.0719231
-0.0772851
-0.077715
-0.0782127
-0.0788688
-0.0796607
-0.0805657
-0.0814706
-0.0823756
-0.083371
-0.0945023
-0.105747
-0.102059
-0.0984389
-0.0997512
-0.101312
-0.102919
-0.10457
-0.106312
-0.1081
-0.104887
-0.101629
-0.0983258
-0.0948416
-0.0911765
-0.0873756
-0.0934842
-0.0894796
-0.070362
-0.0361086
-0.00171946
-0.0071267
-0.0273529
-0.0525113
-0.0876018
-0.0975792
-0.107443
-0.11224
-0.106946
-0.111561
-0.126109
-0.145543
-0.159887
-0.154186
-0.148439
-0.137624
-0.126765
-0.120882
-0.114977
-0.10405
-0.0881448
-0.0623303
-0.0765837
-0.210905
-0.355339
-0.514864
-0.54448
-0.324208
0.180973
1.09609
1.91613
2.61111
3.07109
3.29106
2.96602
2.18097
1.41595
0.66595
0.240928
0.000927612
-0.123959
-0.188778
-0.218575
-0.233348
-0.238077
-0.23776
-0.237443
-0.242127
-0.246765
-0.246357
-0.245928
-0.250475
-0.255023
-0.24457
-0.239118
-0.233665
-0.23819
-0.242692
-0.247217
-0.251765
-0.246335
-0.240928
-0.240543
-0.240181
-0.239819
-0.23948
-0.239208
-0.238982
-0.233778
-0.228597
-0.218439
-0.208281
-0.208077
-0.207851
-0.202647
-0.197489
-0.192376
-0.18233
-0.167308
-0.15724
-0.152149
-0.137059
-0.122014
-0.106968
-0.0819231
-0.0619005
-0.0319005
-0.0269231
-0.0220136
0.0027828
0.0274661
0.0469909
0.0664706
0.0861086
0.070905
0.125814
0.140769
0.155701
0.170633
0.180611
0.190633
0.185724
0.175905
0.146176
0.121471
0.0967421
0.0820136
0.0672398
0.0474434
0.0277602
0.00809956
-0.011448
-0.0261086
-0.035905
-0.0450905
-0.048733
-0.0518552
-0.0497737
-0.0488009
-0.0445475
-0.0442307
-0.0576697
-0.074276
-0.0833711
-0.0935294
-0.108145
-0.119389
-0.127172
-0.131403
-0.133213
-0.133891
-0.133824
-0.133371
-0.132828
-0.132828
-0.138416
-0.139683
-0.136063
-0.136448
-0.134548
-0.123507
-0.108756
-0.10086
-0.0908823
-0.0748869
-0.0603393
-0.0543439
-0.0518099
-0.0426923
-0.0355204
-0.0544118
-0.0638235
-0.0685068
-0.0733258
-0.0782127
-0.0831674
-0.0831674
-0.0831448
-0.0881222
-0.0931448
-0.09819
-0.103258
-0.103371
-0.103552
-0.103733
-0.103869
-0.103959
-0.104095
-0.109276
-0.114525
-0.114842
-0.115181
-0.110566
-0.105995
-0.106471
-0.107014
-0.102624
-0.0983032
-0.0990498
-0.0998643
-0.100747
-0.106697
-0.112692
-0.113756
-0.114932
-0.116199
-0.117511
-0.108869
-0.100226
-0.106561
-0.112873
-0.109186
-0.105453
-0.106606
-0.107647
-0.103529
-0.0992081
-0.094638
-0.0799321
-0.0550905
-0.0300452
-0.00479636
-0.00436649
-0.0337556
-0.063009
-0.087285
-0.0963122
-0.0902715
-0.0891403
-0.0979185
-0.106652
-0.115339
-0.129072
-0.142873
-0.141787
-0.130792
-0.12491
-0.119118
-0.108462
-0.112919
-0.0823982
-0.0719231
-0.0515611
-0.0412896
-0.201041
-0.355837
-0.480701
-0.535611
-0.29552
0.0895702
0.954683
1.76982
2.44995
2.98509
3.22525
3.11043
2.37566
1.62086
0.841041
0.311267
0.0715385
-0.07819
-0.137919
-0.172647
-0.187376
-0.202081
-0.211787
-0.216516
-0.216244
-0.215928
-0.215566
-0.215181
-0.214774
-0.214389
-0.219027
-0.223688
-0.223371
-0.223054
-0.217738
-0.212398
-0.217036
-0.226765
-0.231539
-0.231335
-0.231154
-0.221018
-0.210928
-0.21586
-0.220815
-0.215769
-0.210724
-0.205679
-0.200633
-0.190611
-0.180611
-0.185633
-0.190679
-0.185724
-0.180747
-0.170769
-0.160815
-0.15086
-0.135928
-0.125995
-0.116018
-0.101018
-0.0859955
-0.0709276
-0.0558823
-0.0358824
-0.015905
0.00900453
0.028733
0.0433032
0.0677828
0.0922398
0.106833
0.121561
0.131425
0.141403
0.146403
0.151403
0.156448
0.146561
0.136719
0.126878
0.102014
0.0771493
0.0523303
0.0275792
0.00789593
-0.0117195
-0.031267
-0.0508597
-0.0606335
-0.0705656
-0.0706109
-0.07
-0.0736199
-0.0768326
-0.0747738
-0.0743891
-0.0709502
-0.0718778
-0.0868778
-0.104367
-0.118891
-0.128756
-0.127919
-0.133145
-0.154774
-0.168258
-0.164412
-0.159638
-0.164231
-0.164412
-0.155204
-0.151538
-0.1531
-0.153575
-0.152285
-0.147036
-0.1431
-0.136131
-0.121765
-0.10629
-0.101312
-0.084638
-0.0713574
-0.0766289
-0.0843212
-0.0830995
-0.0825339
-0.0821945
-0.0819909
-0.0868778
-0.0918552
-0.0868778
-0.0819457
-0.0919909
-0.102081
-0.102127
-0.102172
-0.102217
-0.102285
-0.0973982
-0.0926018
-0.0978733
-0.103145
-0.103394
-0.103575
-0.103756
-0.104072
-0.104502
-0.105
-0.100543
-0.096086
-0.091629
-0.0872172
-0.0928733
-0.0985746
-0.104344
-0.110181
-0.106086
-0.102036
-0.0980091
-0.0940724
-0.0952489
-0.101493
-0.107828
-0.109231
-0.110656
-0.107081
-0.103484
-0.109887
-0.116267
-0.122579
-0.128824
-0.12
-0.110995
-0.106765
-0.0923077
-0.0576244
-0.0277602
-0.00773755
-0.00253392
-0.0321493
-0.061629
-0.0809728
-0.0952489
-0.104457
-0.10862
-0.112738
-0.121855
-0.131041
-0.130271
-0.119548
-0.113937
-0.118439
-0.118077
-0.107851
-0.0977376
-0.0877376
-0.0778054
-0.0679412
-0.0631222
-0.0633484
-0.218597
-0.383869
-0.474186
-0.544547
-0.18491
0.234729
1.18441
2.06912
2.61876
3.07835
3.15796
3.00762
2.14735
1.34715
0.681946
0.176719
-0.00848419
-0.138688
-0.168937
-0.189186
-0.194389
-0.199525
-0.199615
-0.204706
-0.214796
-0.21491
-0.205068
-0.200226
-0.205362
-0.210475
-0.215611
-0.220747
-0.215882
-0.211063
-0.21129
-0.216516
-0.226742
-0.231968
-0.227195
-0.222421
-0.22267
-0.217941
-0.223213
-0.213507
-0.223824
-0.22414
-0.224457
-0.219774
-0.21509
-0.200407
-0.185724
-0.186063
-0.186425
-0.196787
-0.202149
-0.182489
-0.162828
-0.148145
-0.138507
-0.128801
-0.119185
-0.114661
-0.105294
-0.0911312
-0.0719457
-0.0527149
-0.033371
-0.0138914
0.000678767
0.0153394
0.0349774
0.0545928
0.0792534
0.103959
0.118733
0.128552
0.138394
0.148258
0.153077
0.152828
0.152489
0.152081
0.126697
0.0963122
0.0658824
0.0406335
0.0207919
0.00178733
-0.0112443
-0.0240724
-0.0371041
-0.0524208
-0.0605204
-0.0726697
-0.0890724
-0.107579
-0.117919
-0.12776
-0.141923
-0.151968
-0.157851
-0.161425
-0.157851
-0.153597
-0.14871
-0.143597
-0.148303
-0.152941
-0.152511
-0.152036
-0.146538
-0.141765
-0.13776
-0.13414
-0.135815
-0.135837
-0.138937
-0.13276
-0.112602
-0.0949547
-0.0852262
-0.0751357
-0.060724
-0.060181
-0.0682353
-0.0692987
-0.0676471
-0.0618552
-0.0566742
-0.056629
-0.0566742
-0.0667195
-0.0767647
-0.0768326
-0.0769457
-0.0721267
-0.0673303
-0.0725113
-0.0776923
-0.0828959
-0.0881448
-0.0834841
-0.0788914
-0.0793213
-0.0797511
-0.0802036
-0.0807466
-0.0814027
-0.0821267
-0.0878959
-0.0887556
-0.0797058
-0.0756787
-0.081742
-0.0878507
-0.089095
-0.0904072
-0.0918099
-0.0933031
-0.0898416
-0.0863574
-0.0878506
-0.0894117
-0.0909954
-0.092647
-0.0993439
-0.10095
-0.107421
-0.098733
-0.109909
-0.0859502
-0.0618326
-0.0225792
0.0168326
0.00644798
-0.00875563
-0.0387783
-0.0636425
-0.0783484
-0.0929638
-0.0825339
-0.0770362
-0.0914479
-0.105724
-0.119909
-0.129004
-0.128032
-0.127014
-0.12095
-0.109864
-0.0937783
-0.0827149
-0.0766742
-0.0657013
-0.049819
-0.0741176
-0.128575
-0.283122
-0.47776
-0.517466
-0.50224
-0.0270814
0.568009
1.44805
2.37805
2.83803
3.23799
3.11796
2.95796
2.04799
1.13803
0.633054
0.153054
0.00307696
-0.126855
-0.166719
-0.196538
-0.20138
-0.206244
-0.211086
-0.215905
-0.210701
-0.205475
-0.210204
-0.214887
-0.21957
-0.224231
-0.218891
-0.213575
-0.213235
-0.212828
-0.212398
-0.211991
-0.216584
-0.221176
-0.220792
-0.220475
-0.215204
-0.209887
-0.209525
-0.209186
-0.213869
-0.218597
-0.213371
-0.208167
-0.202986
-0.197783
-0.192557
-0.187353
-0.187172
-0.182014
-0.166878
-0.156719
-0.146538
-0.141357
-0.136176
-0.120995
-0.105814
-0.0956561
-0.0805203
-0.0553846
-0.0352262
-0.0250226
-0.00979637
0.0103846
0.0305204
0.0456561
0.0657466
0.0907919
0.105679
0.11543
0.125181
0.13991
0.144796
0.149796
0.154864
0.154977
0.145091
0.125181
0.105339
0.0854751
0.0607693
0.0362217
0.0119005
-0.0171945
-0.0363801
-0.0556787
-0.0701357
-0.0847285
-0.0894118
-0.0842307
-0.079095
-0.0789366
-0.0837556
-0.0780543
-0.0815837
-0.0846832
-0.082466
-0.0816289
-0.0826923
-0.087647
-0.0919683
-0.0988461
-0.122986
-0.147353
-0.151719
-0.15233
-0.167081
-0.17181
-0.174774
-0.177081
-0.178552
-0.177715
-0.169027
-0.156312
-0.144344
-0.130294
-0.114434
-0.0990723
-0.0893891
-0.0838235
-0.0723756
-0.0632353
-0.0612896
-0.0650226
-0.0743439
-0.0788461
-0.0784842
-0.0781448
-0.0828281
-0.0875566
-0.0873303
-0.0870588
-0.0917421
-0.096448
-0.0961765
-0.100905
-0.105633
-0.100362
-0.0950905
-0.104819
-0.114548
-0.114299
-0.114072
-0.123869
-0.133733
-0.123665
-0.11362
-0.118552
-0.123484
-0.118439
-0.113439
-0.113507
-0.11371
-0.109004
-0.104321
-0.104661
-0.105068
-0.105543
-0.106086
-0.106742
-0.107466
-0.108213
-0.109004
-0.109819
-0.110656
-0.111561
-0.112511
-0.108484
-0.104502
-0.11052
-0.116425
-0.117217
-0.117919
-0.113507
-0.108959
-0.109231
-0.0993212
-0.0892081
-0.0538688
-0.0183258
-0.0126018
-0.00676468
-0.0408145
-0.0647285
-0.0785068
-0.0922398
-0.0909502
-0.0896606
-0.0934163
-0.0972398
-0.106154
-0.115204
-0.124389
-0.133688
-0.123122
-0.112647
-0.107262
-0.101946
-0.0966968
-0.0815158
-0.0613575
-0.0611538
-0.0809276
-0.210747
-0.395566
-0.500407
-0.570294
-0.265249
0.159774
1.02986
2.01
2.58518
3.09041
3.15057
3.16563
2.3107
3.17081
0.800973
0.216154
0.0313575
-0.138416
-0.17319
-0.207964
-0.217715
-0.227443
-0.227172
-0.226855
-0.236471
-0.246063
-0.245679
-0.245317
-0.239932
-0.23457
-0.234208
-0.233801
-0.233371
-0.232986
-0.232624
-0.232262
-0.226923
-0.221629
-0.226357
-0.231063
-0.230769
-0.230543
-0.235362
-0.240181
-0.235
-0.229819
-0.229638
-0.22948
-0.224344
-0.219231
-0.21914
-0.209072
-0.194027
-0.188959
-0.188869
-0.183778
-0.178688
-0.168575
-0.158439
-0.133326
-0.108235
-0.0980995
-0.0879185
-0.0677375
-0.0475565
-0.0273982
-0.00226243
0.0178507
0.0379412
0.0580543
0.0731901
0.0833258
0.103416
0.128462
0.148303
0.167964
0.182579
0.182127
0.17681
0.166629
0.156538
0.146561
0.126584
0.101606
0.0767873
0.0521041
0.0225792
-0.00678734
-0.0211086
-0.0304073
-0.0549321
-0.0796154
-0.0843892
-0.089276
-0.0992082
-0.109208
-0.114321
-0.114389
-0.109276
-0.103507
-0.101855
-0.100023
-0.0981901
-0.098371
-0.101154
-0.107964
-0.109095
-0.11233
-0.13233
-0.15138
-0.159321
-0.163643
-0.169525
-0.168891
-0.156674
-0.152579
-0.166086
-0.170543
-0.165453
-0.15776
-0.137783
-0.112511
-0.0871494
-0.0756336
-0.0702037
-0.0704978
-0.073439
-0.0771947
-0.0766969
-0.0764028
-0.0763123
-0.0762444
-0.0761992
-0.0861313
-0.101041
-0.105973
-0.105928
-0.105905
-0.105905
-0.0958824
-0.0958372
-0.110815
-0.125815
-0.120815
-0.115815
-0.115815
-0.115815
-0.110815
-0.105814
-0.110837
-0.115928
-0.106086
-0.096267
-0.101471
-0.106787
-0.102127
-0.0974887
-0.102896
-0.108371
-0.103891
-0.099457
-0.10509
-0.110814
-0.106561
-0.102308
-0.1081
-0.113982
-0.114955
-0.115973
-0.112036
-0.108077
-0.114095
-0.120136
-0.121199
-0.122285
-0.118326
-0.114299
-0.110181
-0.10595
-0.111584
-0.117059
-0.117353
-0.107489
-0.0974434
-0.0522172
-0.00680995
0.00880091
0.0195928
-0.0145249
-0.0436425
-0.0627828
-0.0819457
-0.0761312
-0.075362
-0.0996606
-0.119027
-0.118484
-0.1181
-0.122873
-0.12276
-0.107738
-0.0978054
-0.0929638
-0.0831448
-0.0733484
-0.0586425
-0.0390271
-0.0544344
-0.104842
-0.260249
-0.465656
-0.516063
-0.506471
-0.0518778
0.527715
1.42229
2.38183
2.86143
3.27106
3.0607
2.79534
1.86498
0.919615
0.479276
0.0589819
-0.0512444
-0.156448
-0.181697
-0.206968
-0.207262
-0.207579
-0.212873
-0.218122
-0.223303
-0.228462
-0.228643
-0.228824
-0.234072
-0.239367
-0.229683
-0.219977
-0.225249
-0.230498
-0.235724
-0.241018
-0.246403
-0.25181
-0.247217
-0.242624
-0.243032
-0.243394
-0.238756
-0.234186
-0.234683
-0.235158
-0.235611
-0.236041
-0.231448
-0.226855
-0.227262
-0.21767
-0.203077
-0.198462
-0.198824
-0.179208
-0.169615
-0.160023
-0.15043
-0.13586
-0.121312
-0.106719
-0.092172
-0.0627602
-0.043552
-0.0395475
-0.0304525
-0.00626696
0.0179864
0.037172
0.0566063
0.0761312
0.0956561
0.110136
0.124638
0.149186
0.158778
0.163439
0.168122
0.162828
0.152534
0.137195
0.11181
0.0863801
0.0659276
0.0504525
0.0300452
0.00506786
-0.0191177
-0.0375792
-0.040543
-0.0437557
-0.0479186
-0.0548869
-0.0710181
-0.0907466
-0.113869
-0.133937
-0.145158
-0.154525
-0.155747
-0.153371
-0.162172
-0.169208
-0.170023
-0.170317
-0.160204
-0.149977
-0.149638
-0.149344
-0.144253
-0.139819
-0.14129
-0.142964
-0.14457
-0.144118
-0.136041
-0.123937
-0.112511
-0.0989141
-0.0884615
-0.0789593
-0.0606562
-0.0465838
-0.04681
-0.0490046
-0.048077
-0.0476471
-0.0526924
-0.0578508
-0.0581222
-0.0583937
-0.0586652
-0.0589593
-0.0642761
-0.0696381
-0.0750453
-0.0804752
-0.0709276
-0.0664028
-0.0619231
-0.0674435
-0.0729412
-0.0784842
-0.0840951
-0.0797738
-0.0755204
-0.0763348
-0.0772624
-0.0782579
-0.079276
-0.0803394
-0.0814932
-0.0827376
-0.0840724
-0.0855203
-0.0870362
-0.0936199
-0.100294
-0.0970362
-0.0938461
-0.100747
-0.10767
-0.104593
-0.101493
-0.103394
-0.105204
-0.101968
-0.0986425
-0.100181
-0.101516
-0.107624
-0.0935068
-0.0692082
-0.0296606
0.0200452
0.00484162
-0.0202715
-0.0402489
-0.0250453
-0.0796606
-0.0941403
-0.0885068
-0.0827602
-0.0919683
-0.101131
-0.110181
-0.119186
-0.118167
-0.117127
-0.111109
-0.105136
-0.0992534
-0.0885068
-0.0728733
-0.0573303
-0.0268552
-0.0764706
-0.236199
-0.386041
-0.530973
-0.50595
-0.315973
0.283982
1.20891
2.00382
2.72871
3.13853
3.3933
2.9831
2.28292
1.48781
0.65776
0.277692
0.0126018
-0.0924661
-0.172511
-0.182511
-0.187466
-0.192398
-0.197308
-0.207195
-0.212059
-0.2169
-0.221719
-0.221561
-0.221403
-0.216176
-0.210905
-0.210633
-0.210362
-0.210113
-0.209887
-0.204661
-0.199412
-0.20414
-0.208846
-0.208529
-0.208235
-0.207986
-0.207783
-0.207602
-0.207421
-0.20724
-0.207059
-0.2019
-0.196765
-0.191652
-0.186584
-0.186493
-0.181357
-0.171176
-0.165995
-0.160814
-0.150701
-0.140656
-0.130611
-0.120566
-0.10052
-0.0804525
-0.0703394
-0.0602036
-0.0400905
-0.015
0.0100905
0.0351583
0.050181
0.065181
0.085181
0.105068
0.124819
0.144502
0.159095
0.173733
0.173507
0.173416
0.173439
0.173484
0.163507
0.143575
0.113665
0.0788235
0.0440271
0.0193212
-0.0052489
-0.0196833
-0.0339367
-0.0432806
-0.0477602
-0.062353
-0.0819231
-0.0918326
-0.09681
-0.101493
-0.0956561
-0.0889593
-0.0868552
-0.0849774
-0.0848643
-0.0881222
-0.0950905
-0.106063
-0.114615
-0.124706
-0.13914
-0.151561
-0.16052
-0.165226
-0.16776
-0.169276
-0.170724
-0.167353
-0.163688
-0.16405
-0.161674
-0.160113
-0.154932
-0.136425
-0.116041
-0.0995023
-0.084819
-0.0783032
-0.075362
-0.0711539
-0.0687104
-0.0725113
-0.0767647
-0.0763575
-0.0759955
-0.0806561
-0.0853168
-0.0849774
-0.0846833
-0.0894118
-0.0941856
-0.0890045
-0.0888462
-0.0987104
-0.103507
-0.103235
-0.103032
-0.102851
-0.10267
-0.0974887
-0.0973077
-0.107127
-0.116991
-0.1219
-0.116833
-0.11181
-0.106833
-0.101878
-0.101946
-0.102081
-0.102285
-0.102557
-0.102873
-0.103281
-0.0987783
-0.0942986
-0.0998643
-0.105498
-0.111154
-0.1169
-0.107738
-0.0986199
-0.0945475
-0.0904977
-0.0914706
-0.0973755
-0.108213
-0.114027
-0.109819
-0.105498
-0.106041
-0.10138
-0.0915158
-0.0864479
-0.0911991
-0.0707692
-0.0351357
-0.0142986
0.00171947
-0.0121267
-0.0358145
-0.0594117
-0.0829638
-0.0865158
-0.0750679
-0.0786425
-0.0822851
-0.0960407
-0.109932
-0.113982
-0.118145
-0.107443
-0.0968552
-0.0913801
-0.0859728
-0.0806109
-0.0703394
-0.0501584
-0.0500226
-0.109909
-0.219819
-0.419706
-0.51957
-0.479434
-0.0993213
0.645769
1.46588
2.35602
2.93115
3.27631
3.14149
2.71167
1.96186
1.05204
0.52224
0.137466
-0.0273303
-0.132149
-0.171923
-0.196652
-0.201357
-0.201041
-0.205724
-0.215407
-0.220091
-0.219774
-0.219434
-0.21905
-0.223643
-0.228235
-0.217828
-0.207443
-0.212127
-0.216833
-0.216493
-0.216131
-0.220815
-0.225543
-0.225272
-0.225
-0.219751
-0.21448
-0.209186
-0.203869
-0.213575
-0.223348
-0.208167
-0.203009
-0.202873
-0.202715
-0.197511
-0.192262
-0.187014
-0.181855
-0.176765
-0.166674
-0.156584
-0.151493
-0.146403
-0.131267
-0.116086
-0.100905
-0.085724
-0.0605656
-0.0354299
-0.0252489
-0.0150226
0.00515838
0.0202941
0.0454072
0.0704298
0.0903846
0.110249
0.125
0.139796
0.144683
0.149638
0.154638
0.159638
0.154683
0.149774
0.129887
0.110113
0.0804525
0.0558823
0.0363574
0.0118778
-0.0124887
-0.0317874
-0.0460408
-0.0654073
-0.0849322
-0.0946154
-0.094457
-0.0943665
-0.0990272
-0.102896
-0.106131
-0.108982
-0.107172
-0.106742
-0.10414
-0.101018
-0.101471
-0.109638
-0.11914
-0.128846
-0.141063
-0.148891
-0.153462
-0.155634
-0.156878
-0.15819
-0.159593
-0.155656
-0.149955
-0.150905
-0.148122
-0.136244
-0.121742
-0.105701
-0.0902942
-0.0768326
-0.0667647
-0.0658597
-0.0673529
-0.0605882
-0.0545701
-0.0590271
-0.0636651
-0.0684163
-0.07319
-0.0779638
-0.0827828
-0.0776697
-0.0725339
-0.0773529
-0.0871946
-0.0970588
-0.101946
-0.101855
-0.0967421
-0.0866063
-0.0864706
-0.0963348
-0.101222
-0.0961538
-0.0911539
-0.0911991
-0.0912444
-0.0912896
-0.101335
-0.101425
-0.106561
-0.11172
-0.101968
-0.092353
-0.0877602
-0.0832353
-0.088801
-0.0944571
-0.105181
-0.115973
-0.106833
-0.0977829
-0.09362
-0.0897059
-0.0858145
-0.081991
-0.0932353
-0.104457
-0.105656
-0.106833
-0.102986
-0.0989819
-0.104819
-0.110543
-0.106131
-0.101516
-0.101719
-0.0866969
-0.061448
-0.0309729
-0.000294149
-0.00443444
-0.023439
-0.0424209
-0.0613801
-0.0652942
-0.0691403
-0.0729638
-0.0767874
-0.095724
-0.109751
-0.123869
-0.138077
-0.127376
-0.116787
-0.111335
-0.105996
-0.0957466
-0.0856109
-0.0755657
-0.0656335
-0.0557919
-0.100905
-0.28095
-0.425996
-0.526063
-0.466199
-0.16638
0.453416
1.45321
2.2531
2.85808
3.15805
3.20803
2.66803
1.71803
0.998032
0.408032
0.0930543
-0.0919005
-0.171833
-0.206742
-0.216652
-0.211561
-0.216471
-0.23138
-0.236267
-0.231131
-0.225973
-0.225792
-0.225634
-0.215498
-0.215385
-0.215294
-0.215204
-0.215068
-0.214887
-0.214729
-0.214638
-0.214593
-0.20957
-0.20457
-0.214548
-0.224502
-0.21948
-0.214502
-0.214615
-0.214751
-0.209887
-0.205
-0.210068
-0.215091
-0.210113
-0.200204
-0.190317
-0.185407
-0.185498
-0.185588
-0.180679
-0.16586
-0.151086
-0.14129
-0.131471
-0.111629
-0.0918326
-0.072172
-0.0526471
-0.0333032
-0.0139819
0.00547507
0.0250226
0.0497058
0.0294796
0.0942986
0.109163
0.129072
0.149072
0.15914
0.169186
0.179208
0.189186
0.17914
0.169095
0.154027
0.133914
0.108778
0.0835747
0.0584389
0.0331448
0.00294121
-0.0212669
-0.0445022
-0.057285
-0.0549321
-0.054276
-0.0608597
-0.0769457
-0.0971041
-0.114796
-0.124457
-0.139683
-0.164027
-0.179548
-0.186538
-0.190385
-0.186991
-0.182647
-0.177715
-0.172534
-0.172195
-0.156765
-0.136267
-0.145724
-0.165385
-0.170837
-0.171923
-0.163484
-0.154796
-0.149751
-0.1419
-0.144525
-0.143529
-0.124796
-0.104706
-0.0893892
-0.0765159
-0.0679412
-0.0626245
-0.0649548
-0.0686878
-0.073258
-0.0782127
-0.0733484
-0.0685973
-0.0738914
-0.079163
-0.0844571
-0.0898191
-0.0952037
-0.100543
-0.0958598
-0.0912444
-0.0916517
-0.0920815
-0.087534
-0.0930092
-0.108507
-0.109027
-0.0995702
-0.0951585
-0.0958146
-0.0964933
-0.0972173
-0.098077
-0.0990951
-0.100204
-0.0913802
-0.0926471
-0.0940046
-0.0954073
-0.0968779
-0.108462
-0.120158
-0.111923
-0.103665
-0.105385
-0.107104
-0.108846
-0.110566
-0.102195
-0.0936878
-0.105023
-0.116244
-0.112353
-0.0932579
-0.0589592
-0.024457
0.0102489
0.0101131
-0.0298642
-0.0597058
-0.0794117
-0.0890045
-0.0936877
-0.0980316
-0.102262
-0.116448
-0.140588
-0.144661
-0.138665
-0.127647
-0.116606
-0.110611
-0.109661
-0.103778
-0.093009
-0.0723981
-0.0869004
-0.0364705
-0.0311312
-0.22095
-0.405905
-0.510973
-0.561109
-0.206267
0.268552
1.25837
2.15317
2.70794
3.13772
3.24249
3.03224
2.17195
1.37665
0.69138
0.206131
0.000927627
-0.124253
-0.169412
-0.19457
-0.204751
-0.209819
-0.209751
-0.209706
-0.214728
-0.219796
-0.214887
-0.209909
-0.209864
-0.209796
-0.209706
-0.209638
-0.209593
-0.209525
-0.209457
-0.209434
-0.209412
-0.209344
-0.214253
-0.219186
-0.21914
-0.21414
-0.209185
-0.194231
-0.179276
-0.189344
-0.199434
-0.189525
-0.179615
-0.184751
-0.189955
-0.175181
-0.160407
-0.155611
-0.150792
-0.14595
-0.141131
-0.13638
-0.131697
-0.122036
-0.107285
-0.0974661
-0.0826697
-0.0628959
-0.0381222
-0.0133484
0.00642535
0.0262443
0.0460407
0.0608145
0.0806109
0.100385
0.12
0.139434
0.143756
0.148077
0.152511
0.157059
0.151719
0.136448
0.121222
0.101041
0.0858145
0.0705656
0.0453846
0.0203846
-0.00436653
-0.0289367
-0.0433711
-0.0578281
-0.0674887
-0.0773303
-0.0773077
-0.0774208
-0.0876471
-0.097896
-0.0880996
-0.0775792
-0.0814027
-0.0847738
-0.0778281
-0.0724661
-0.0741629
-0.080543
-0.0911539
-0.0990951
-0.103801
-0.118507
-0.142127
-0.156403
-0.157059
-0.15595
-0.158756
-0.161199
-0.158303
-0.153529
-0.156471
-0.154864
-0.149186
-0.140995
-0.12086
-0.100226
-0.0855203
-0.0797059
-0.0774887
-0.0783936
-0.0815158
-0.080543
-0.0801131
-0.0749095
-0.0698416
-0.0797964
-0.0897511
-0.0947059
-0.0996606
-0.094638
-0.089638
-0.0946154
-0.0996154
-0.0996154
-0.0996154
-0.104615
-0.109615
-0.109615
-0.104661
-0.0947512
-0.0948417
-0.104932
-0.110023
-0.110136
-0.110339
-0.105611
-0.100882
-0.0961539
-0.0914027
-0.091629
-0.0919457
-0.0973982
-0.102919
-0.0984842
-0.0891176
-0.0798416
-0.0755882
-0.0813574
-0.0871946
-0.0880995
-0.0890724
-0.0901357
-0.0762896
-0.0624887
-0.0786878
-0.0949095
-0.0911765
-0.0873982
-0.088552
-0.0896154
-0.0905656
-0.0913575
-0.0869683
-0.0823529
-0.0875566
-0.0825339
-0.0572851
-0.0268552
0.00875567
0.0195249
-0.0045475
-0.0285746
-0.0525565
-0.0665158
-0.0654977
-0.0645701
-0.0637556
-0.0679638
-0.0771946
-0.0965384
-0.115995
-0.120566
-0.115249
-0.11
-0.104819
-0.0946833
-0.0845927
-0.0645023
-0.0444118
-0.0443891
-0.0594344
-0.234457
-0.404457
-0.50948
-0.574525
-0.214548
0.250453
1.29043
2.22538
2.74534
3.14532
3.16536
2.91043
2.00045
1.20545
0.62552
0.200588
0.0156335
-0.109299
-0.169186
-0.19905
-0.213937
-0.218801
-0.218643
-0.218507
-0.223348
-0.228145
-0.227919
-0.227715
-0.222534
-0.217376
-0.22224
-0.227149
-0.222081
-0.216923
-0.221697
-0.226516
-0.226357
-0.226176
-0.226018
-0.225882
-0.225747
-0.215633
-0.215543
-0.21543
-0.215294
-0.215181
-0.215113
-0.20509
-0.195068
-0.194977
-0.194864
-0.194774
-0.194683
-0.179593
-0.164548
-0.159434
-0.154412
-0.144344
-0.134253
-0.124163
-0.104072
-0.0790045
-0.0589819
-0.0489593
-0.0338462
-0.0136425
0.00656109
0.0267195
0.0468552
0.066991
0.0921267
0.117262
0.132443
0.14267
0.162828
0.182851
0.187738
0.192511
0.197172
0.196833
0.181629
0.161538
0.131561
0.106652
0.0767421
0.0468778
0.0271267
0.00757917
-0.0216968
-0.0508824
-0.055181
-0.0595928
-0.0691403
-0.0787783
-0.0734389
-0.0681448
-0.0778959
-0.0877376
-0.0876697
-0.0877149
-0.0878281
-0.0872398
-0.0859276
-0.0840272
-0.0817873
-0.0807014
-0.0813575
-0.0859276
-0.0891629
-0.0954751
-0.104231
-0.114683
-0.130226
-0.142715
-0.152014
-0.156335
-0.151244
-0.14043
-0.129751
-0.116471
-0.106222
-0.0958145
-0.0815158
-0.0713122
-0.0746833
-0.0656787
-0.0585973
-0.0623529
-0.0666742
-0.0662443
-0.0659276
-0.0757014
-0.0855204
-0.085362
-0.0852263
-0.0901131
-0.095
-0.0948417
-0.0946607
-0.0945023
-0.0943213
-0.0841629
-0.0790045
-0.0938009
-0.103575
-0.103371
-0.108235
-0.118145
-0.118054
-0.107964
-0.102896
-0.102851
-0.102738
-0.107624
-0.112579
-0.112579
-0.107602
-0.097647
-0.0926923
-0.0977375
-0.102805
-0.107941
-0.113167
-0.113484
-0.103869
-0.114253
-0.0896832
-0.095181
-0.095724
-0.0963122
-0.0969231
-0.0975565
-0.0932126
-0.0888688
-0.0995475
-0.110249
-0.10595
-0.101584
-0.102149
-0.10267
-0.103077
-0.103371
-0.0984615
-0.093371
-0.0931221
-0.0776697
-0.0420135
-0.0111764
0.0147964
0.0159276
-0.0128506
-0.0366515
-0.0554977
-0.0644344
-0.0684389
-0.0725339
-0.0717194
-0.0859954
-0.110362
-0.119819
-0.119366
-0.118959
-0.113597
-0.108303
-0.103077
-0.092828
-0.0825565
-0.0673303
-0.0571719
-0.0520588
-0.0569683
-0.216878
-0.371787
-0.496697
-0.566606
-0.301516
0.0935747
0.978643
1.80869
2.48876
3.01385
3.21398
3.06416
2.28434
1.51452
0.774706
0.264864
0.0400226
-0.0997964
-0.154615
-0.189389
-0.20414
-0.213891
-0.21862
-0.223371
-0.22319
-0.222964
-0.222692
-0.222443
-0.227217
-0.231968
-0.226697
-0.221493
-0.216335
-0.211131
-0.210905
-0.215724
-0.225588
-0.230453
-0.220317
-0.220181
-0.220045
-0.224864
-0.229661
-0.229525
-0.229434
-0.219321
-0.209208
-0.20914
-0.209095
-0.20405
-0.199005
-0.203959
-0.203914
-0.188937
-0.178959
-0.173959
-0.168937
-0.158869
-0.148801
-0.143778
-0.128824
-0.108937
-0.0890272
-0.0590724
-0.044095
-0.0291855
-0.00914029
0.010905
0.0309502
0.0459954
0.0710407
0.101086
0.121109
0.136041
0.155769
0.175317
0.179796
0.184276
0.193823
0.188529
0.188416
0.168371
0.143348
0.118348
0.093371
0.0684841
0.0337782
0.00925336
-0.0201132
-0.0394571
-0.0489593
-0.0585973
-0.0683485
-0.0781901
-0.0880317
-0.0980317
-0.0980769
-0.0982579
-0.108552
-0.118167
-0.112059
-0.105339
-0.0983484
-0.0926697
-0.0940045
-0.099638
-0.10914
-0.116403
-0.120747
-0.130814
-0.14491
-0.155769
-0.163665
-0.168846
-0.172217
-0.173552
-0.167624
-0.157557
-0.148643
-0.136584
-0.127104
-0.116697
-0.101946
-0.0907466
-0.0830543
-0.0736878
-0.0666064
-0.0655656
-0.065181
-0.0750226
-0.085
-0.0900679
-0.0952036
-0.090362
-0.085543
-0.0907014
-0.0958597
-0.0960407
-0.0962217
-0.101425
-0.106674
-0.101923
-0.102127
-0.112285
-0.117443
-0.112624
-0.107828
-0.108077
-0.108394
-0.10871
-0.109005
-0.109276
-0.109615
-0.110023
-0.110475
-0.115996
-0.121539
-0.122104
-0.117715
-0.108394
-0.10414
-0.104955
-0.105882
-0.0969231
-0.103009
-0.10914
-0.110339
-0.111606
-0.107896
-0.104253
-0.0957014
-0.087172
-0.0986426
-0.110068
-0.106403
-0.102692
-0.108914
-0.115045
-0.116041
-0.1169
-0.117647
-0.118167
-0.108439
-0.0834616
-0.048258
-0.0178733
0.00269227
0.00832577
-0.00597289
-0.040181
-0.0793666
-0.0935068
-0.0926923
-0.0920136
-0.0964706
-0.101018
-0.105656
-0.115453
-0.125362
-0.130407
-0.125543
-0.120724
-0.115973
-0.106312
-0.111719
-0.082172
-0.0726697
-0.05819
-0.058733
-0.219321
-0.379977
-0.515656
-0.57129
-0.276833
0.172647
1.13208
1.99649
2.62093
3.09041
3.25493
3.03448
2.15903
1.3486
0.62319
0.152783
-0.0326245
-0.138032
-0.168416
-0.188756
-0.204072
-0.214367
-0.219661
-0.224977
-0.220294
-0.215611
-0.220928
-0.226244
-0.221538
-0.216765
-0.221946
-0.227195
-0.222511
-0.217851
-0.218213
-0.218529
-0.223801
-0.224095
-0.219412
-0.219751
-0.220113
-0.215498
-0.210905
-0.216267
-0.221606
-0.216991
-0.212398
-0.212805
-0.213213
-0.203643
-0.194095
-0.199525
-0.204932
-0.195339
-0.185747
-0.176154
-0.161584
-0.147059
-0.132579
-0.123122
-0.10862
-0.0890498
-0.069457
-0.0498643
-0.0252941
-0.000701375
0.0188688
0.0384163
0.0579185
0.0723756
0.0969005
0.121448
0.140905
0.160249
0.169412
0.178507
0.182738
0.182104
0.181538
0.170995
0.160475
0.149977
0.12448
0.0990271
0.0636878
0.0285068
0.00852939
-0.0113122
-0.0211086
-0.030905
-0.0407693
-0.0507919
-0.0610181
-0.0714027
-0.0669005
-0.0623756
-0.0678055
-0.0723982
-0.0712218
-0.0697059
-0.0682127
-0.0686878
-0.0716064
-0.0740046
-0.0752942
-0.0837104
-0.0986878
-0.113529
-0.121946
-0.126199
-0.131968
-0.130928
-0.123778
-0.13138
-0.148665
-0.149367
-0.137919
-0.127104
-0.122353
-0.114774
-0.100068
-0.0845928
-0.0700905
-0.0645702
-0.0627376
-0.0591629
-0.0576923
-0.0570815
-0.0569683
-0.061991
-0.0671041
-0.0722851
-0.0775114
-0.0777376
-0.0779639
-0.0781675
-0.0783937
-0.0736426
-0.0738915
-0.0890951
-0.0993213
-0.0946154
-0.0899322
-0.0902263
-0.0904978
-0.0957693
-0.101018
-0.101267
-0.101538
-0.0968326
-0.0921946
-0.0926018
-0.0930091
-0.0984163
-0.103891
-0.104457
-0.105113
-0.100837
-0.0966516
-0.092534
-0.088439
-0.0943892
-0.100453
-0.101652
-0.102919
-0.104231
-0.100588
-0.096991
-0.0934389
-0.0898869
-0.0963349
-0.102805
-0.104276
-0.105679
-0.101991
-0.0981674
-0.0991855
-0.1
-0.0906335
-0.0810634
-0.0913122
-0.0913349
-0.0611313
-0.025724
0.00488686
0.0106787
-0.0133937
-0.0373982
-0.0563575
-0.0652941
-0.0692534
-0.0732353
-0.0722398
-0.0813349
-0.0955204
-0.104864
-0.114367
-0.113982
-0.10371
-0.0984842
-0.0983032
-0.0981901
-0.0931448
-0.0731448
-0.0481901
-0.0532353
-0.0682806
-0.258348
-0.433439
-0.518529
-0.52362
-0.093733
0.451131
1.44602
2.31095
2.79093
3.13093
3.13093
2.82593
1.9209
1.15093
0.590973
0.186063
-0.0037783
-0.128643
-0.183575
-0.208507
-0.213394
-0.218235
-0.218077
-0.217919
-0.222738
-0.227534
-0.222308
-0.217104
-0.221923
-0.226742
-0.221561
-0.216357
-0.216131
-0.215928
-0.215747
-0.215611
-0.22052
-0.225407
-0.225272
-0.215136
-0.215
-0.219842
-0.224683
-0.21457
-0.20448
-0.204389
-0.204299
-0.204208
-0.204118
-0.209027
-0.213937
-0.208846
-0.198756
-0.183643
-0.173552
-0.168462
-0.163416
-0.153439
-0.138462
-0.113462
-0.0934842
-0.0735068
-0.0585068
-0.0434842
-0.0234389
-0.0034163
0.0215837
0.0465837
0.0665837
0.0865837
0.111629
0.136719
0.151787
0.161833
0.181855
0.20181
0.206674
0.206403
0.200995
0.190611
0.165339
0.145158
0.12009
0.0951357
0.0702036
0.0452941
0.0205204
-0.0040724
-0.0334842
-0.0528281
-0.0622398
-0.0717421
-0.0763575
-0.0810407
-0.0857466
-0.0905204
-0.0953394
-0.100249
-0.100271
-0.100475
-0.0957919
-0.0905204
-0.0895701
-0.0878507
-0.0807014
-0.074276
-0.0743439
-0.0779412
-0.08
-0.085543
-0.0988688
-0.114389
-0.130498
-0.14448
-0.150407
-0.150656
-0.155814
-0.154977
-0.144276
-0.13095
-0.11586
-0.100701
-0.0768778
-0.0721493
-0.0708824
-0.0721041
-0.0751357
-0.0740272
-0.0734842
-0.07319
-0.0730091
-0.0778507
-0.0827149
-0.0875792
-0.0924434
-0.0973303
-0.10224
-0.102127
-0.101968
-0.10181
-0.101719
-0.106652
-0.111538
-0.111403
-0.11129
-0.106199
-0.101109
-0.106041
-0.110995
-0.11095
-0.11086
-0.110769
-0.110747
-0.115792
-0.120792
-0.115747
-0.110724
-0.110724
-0.110792
-0.115905
-0.121086
-0.121335
-0.121629
-0.121946
-0.112262
-0.112647
-0.103122
-0.0936652
-0.099276
-0.10491
-0.100566
-0.0962217
-0.0968778
-0.0975566
-0.0982579
-0.0989367
-0.0995928
-0.100181
-0.100633
-0.101063
-0.10638
-0.111516
-0.101471
-0.0912896
-0.0909955
-0.0805204
-0.0598416
-0.0290045
0.00696833
0.00805429
-0.0157692
-0.0346154
-0.0484842
-0.0624208
-0.0764253
-0.080543
-0.0797511
-0.0840045
-0.0933258
-0.102805
-0.112398
-0.117059
-0.111787
-0.106538
-0.10629
-0.0960181
-0.0857692
-0.0755882
-0.0654525
-0.0353394
-0.0202489
-0.150158
-0.290068
-0.454977
-0.549887
-0.389796
-0.0547059
0.745407
1.53554
2.30072
2.90095
3.19618
3.15138
2.59656
1.91674
1.09195
0.512195
0.182443
-0.0273077
-0.127036
-0.176765
-0.191493
-0.201244
-0.200973
-0.205633
-0.215271
-0.219955
-0.219683
-0.219389
-0.219072
-0.218733
-0.218371
-0.218009
-0.217647
-0.21733
-0.217059
-0.216787
-0.216516
-0.221244
-0.225973
-0.215679
-0.205362
-0.210091
-0.214864
-0.209638
-0.204412
-0.20414
-0.203824
-0.203529
-0.203258
-0.203009
-0.202783
-0.192602
-0.182421
-0.182262
-0.182127
-0.176968
-0.171765
-0.156538
-0.146335
-0.136176
-0.126018
-0.110837
-0.0956335
-0.0804072
-0.0551131
-0.0297964
-0.00947963
0.0158371
0.0361539
0.0664706
0.08681
0.107172
0.127534
0.147873
0.163167
0.178439
0.188733
0.184027
0.199253
0.194321
0.179186
0.163959
0.148778
0.133733
0.113824
0.0890272
0.0593665
0.0298643
0.000542991
-0.0286878
-0.0479412
-0.0622624
-0.0716516
-0.0811086
-0.0806335
-0.0852263
-0.0998643
-0.109548
-0.104299
-0.0991403
-0.094095
-0.0892081
-0.0893213
-0.0939366
-0.102986
-0.101199
-0.0889593
-0.0821719
-0.0770136
-0.0752715
-0.077104
-0.0832579
-0.0976697
-0.114186
-0.125566
-0.133801
-0.147195
-0.152986
-0.15276
-0.147579
-0.133982
-0.113733
-0.093552
-0.0807919
-0.0710407
-0.0699774
-0.0715159
-0.0745475
-0.0785294
-0.0779412
-0.0775566
-0.0722398
-0.0669684
-0.0866969
-0.096448
-0.0912444
-0.086086
-0.0909503
-0.0958371
-0.100747
-0.105611
-0.11043
-0.115249
-0.110068
-0.104887
-0.109706
-0.114525
-0.114344
-0.114231
-0.119186
-0.124095
-0.118959
-0.113824
-0.113688
-0.113575
-0.118484
-0.123394
-0.123326
-0.123303
-0.118303
-0.113326
-0.103394
-0.103507
-0.103643
-0.103846
-0.10414
-0.109525
-0.114977
-0.11043
-0.105973
-0.111606
-0.117262
-0.122919
-0.128575
-0.134231
-0.13991
-0.130634
-0.121357
-0.127059
-0.132692
-0.133213
-0.133643
-0.133982
-0.129231
-0.119389
-0.114389
-0.119208
-0.118869
-0.103439
-0.0678054
-0.0270362
-0.0111991
-0.0103394
-0.0295023
-0.0586652
-0.0728507
-0.0821041
-0.0864253
-0.0908597
-0.11043
-0.130136
-0.134932
-0.134796
-0.134706
-0.134661
-0.124638
-0.114661
-0.109774
-0.104955
-0.0951357
-0.0803167
-0.0504525
-0.045543
-0.150634
-0.275747
-0.450928
-0.541131
-0.43129
-0.0614253
0.723507
1.52844
2.35337
2.9333
3.23321
3.1081
2.57299
1.83794
0.957919
0.417896
0.0878733
-0.0671493
-0.137149
-0.167127
-0.187081
-0.202036
-0.211991
-0.216946
-0.2169
-0.2169
-0.221946
-0.226968
-0.226968
-0.226946
-0.226878
-0.226855
-0.226855
-0.221855
-0.216855
-0.211878
-0.206923
-0.216991
-0.227081
-0.227195
-0.22733
-0.227466
-0.227602
-0.22776
-0.227941
-0.218122
-0.208303
-0.208507
-0.208756
-0.214005
-0.219231
-0.209457
-0.199683
-0.199932
-0.195226
-0.185543
-0.18086
-0.176154
-0.166425
-0.146652
-0.131878
-0.117104
-0.0973529
-0.0726244
-0.0529412
-0.0383032
-0.00864254
0.0210407
0.0357013
0.0502715
0.064638
0.0788914
0.108054
0.142195
0.161471
0.180905
0.18543
0.189977
0.189502
0.189027
0.188597
0.188235
0.167964
0.142738
0.117489
0.0922398
0.0620362
0.0269683
-0.00296381
-0.0228507
-0.0327602
-0.0478507
-0.0631674
-0.0733937
-0.088371
-0.0924435
-0.0907919
-0.0891855
-0.0883258
-0.0903168
-0.0955882
-0.105226
-0.113348
-0.123122
-0.133462
-0.142602
-0.149163
-0.151335
-0.160249
-0.167059
-0.167624
-0.168077
-0.163824
-0.160317
-0.162172
-0.163484
-0.1731
-0.16414
-0.151516
-0.135136
-0.116131
-0.0958145
-0.076086
-0.0737556
-0.0747285
-0.0746832
-0.0770814
-0.0809502
-0.0855203
-0.0853846
-0.0854298
-0.0855203
-0.0857013
-0.0909502
-0.0962217
-0.0914932
-0.0867873
-0.0921267
-0.097466
-0.0977828
-0.103122
-0.113484
-0.118846
-0.114208
-0.109593
-0.11
-0.110385
-0.110747
-0.111176
-0.111697
-0.112285
-0.107941
-0.103643
-0.104389
-0.105204
-0.106086
-0.106968
-0.107873
-0.103869
-0.0999548
-0.101154
-0.102489
-0.103869
-0.105294
-0.10181
-0.0983937
-0.100023
-0.101719
-0.103484
-0.105249
-0.106968
-0.108643
-0.105249
-0.101742
-0.0980996
-0.0943439
-0.0954751
-0.0962896
-0.0967873
-0.0820815
-0.0421719
-0.0220815
-0.00683258
-0.00640272
-0.0257692
-0.0499548
-0.0740045
-0.0829864
-0.0769005
-0.0758371
-0.0847964
-0.093733
-0.102647
-0.106629
-0.105701
-0.104864
-0.0991177
-0.0935294
-0.0831222
-0.0778733
-0.0727376
-0.0526471
-0.0326244
-0.0676471
-0.132715
-0.337896
-0.503122
-0.513371
-0.36862
0.256176
0.980996
1.94584
2.7157
3.09054
3.22538
2.96523
2.40009
1.43998
0.734932
0.29991
0.0298642
-0.100181
-0.160226
-0.170249
-0.180226
-0.190181
-0.195136
-0.200136
-0.205113
-0.210068
-0.209977
-0.199842
-0.194661
-0.199434
-0.204253
-0.204118
-0.204027
-0.208982
-0.208959
-0.213937
-0.203869
-0.213778
-0.208688
-0.203597
-0.203529
-0.203484
-0.198416
-0.193326
-0.198258
-0.203213
-0.198145
-0.193077
-0.193077
-0.193122
-0.183145
-0.173167
-0.173167
-0.173167
-0.168167
-0.15819
-0.143235
-0.128303
-0.118371
-0.108416
-0.0934616
-0.0784842
-0.0684842
-0.0535068
-0.0335521
-0.0135973
0.00635744
0.0313348
0.0513348
0.0713575
0.0914027
0.111448
0.131471
0.151448
0.171403
0.18138
0.191357
0.19629
0.196131
0.190882
0.185543
0.180113
0.169751
0.129525
0.0894344
0.059457
0.0295701
0.00484162
-0.014819
-0.0244118
-0.033914
-0.0533937
-0.0629412
-0.0725792
-0.0823077
-0.0770588
-0.0718778
-0.07681
-0.08181
-0.0868778
-0.0920588
-0.0972851
-0.102195
-0.096629
-0.0901358
-0.0830996
-0.0764706
-0.0764706
-0.080181
-0.0925566
-0.103801
-0.107919
-0.119186
-0.130181
-0.142873
-0.161493
-0.168778
-0.170634
-0.1669
-0.14405
-0.124208
-0.10362
-0.0891629
-0.0772398
-0.0796607
-0.0852715
-0.0828281
-0.0815837
-0.0809276
-0.080543
-0.0852037
-0.0899096
-0.0896381
-0.0893666
-0.0891177
-0.0889141
-0.0937557
-0.0985973
-0.103394
-0.108145
-0.107896
-0.107715
-0.102579
-0.0974208
-0.0972625
-0.102127
-0.112036
-0.116855
-0.116674
-0.116493
-0.116312
-0.116154
-0.116018
-0.115905
-0.115815
-0.115747
-0.120701
-0.125656
-0.120634
-0.115656
-0.115724
-0.110792
-0.115882
-0.116041
-0.116267
-0.111584
-0.106946
-0.102376
-0.0977828
-0.09819
-0.0986425
-0.104118
-0.109615
-0.105158
-0.100747
-0.0961538
-0.0917647
-0.0973529
-0.102873
-0.108348
-0.113756
-0.109095
-0.0993213
-0.0894344
-0.0843212
-0.0890045
-0.0885068
-0.077828
-0.0570136
-0.031086
-0.0050905
0.0209728
0.0121041
-0.0167195
-0.0456335
-0.0696607
-0.0737557
-0.0679638
-0.0623077
-0.0617421
-0.0811765
-0.105633
-0.115158
-0.119729
-0.109389
-0.0991403
-0.083914
-0.0686878
-0.0634615
-0.0582353
-0.0380543
-0.0279185
-0.0978054
-0.197715
-0.397624
-0.507534
-0.412421
-0.0472624
0.792919
1.6231
2.44326
3.01344
3.28369
3.05894
2.31919
1.56443
0.789638
0.314842
0.0450453
-0.0947964
-0.159615
-0.189367
-0.19905
-0.203733
-0.203416
-0.203145
-0.207919
-0.21267
-0.212398
-0.212127
-0.211833
-0.211516
-0.216199
-0.220905
-0.220633
-0.215362
-0.210091
-0.209819
-0.209525
-0.214208
-0.218891
-0.208597
-0.198326
-0.203032
-0.207715
-0.202398
-0.197104
-0.206833
-0.216584
-0.211403
-0.206267
-0.201176
-0.196063
-0.185928
-0.175769
-0.175588
-0.175407
-0.170249
-0.160136
-0.150023
-0.139887
-0.129751
-0.11457
-0.0993891
-0.0842308
-0.059095
-0.0389366
-0.00875564
0.0014706
0.0117421
0.031991
0.0522172
0.0724208
0.0925792
0.117715
0.0978507
0.163032
0.178235
0.188371
0.198326
0.203054
0.207692
0.202353
0.197195
0.167262
0.142421
0.112602
0.0828054
0.0580769
0.0335068
0.0140045
-0.00522622
-0.0243213
-0.0435068
-0.0628733
-0.0774208
-0.0921267
-0.0968552
-0.0915611
-0.091267
-0.101018
-0.105995
-0.111086
-0.110792
-0.0999547
-0.0883258
-0.0762217
-0.0692534
-0.0736199
-0.0809728
-0.0818099
-0.0866742
-0.0992986
-0.113846
-0.123982
-0.133959
-0.14638
-0.159027
-0.167149
-0.164389
-0.156878
-0.150113
-0.140566
-0.119706
-0.0998417
-0.0883032
-0.0801584
-0.0805204
-0.0830091
-0.0766742
-0.0709503
-0.0805204
-0.0902263
-0.0899774
-0.0897285
-0.0894571
-0.0891856
-0.0939367
-0.0986878
-0.0984163
-0.103145
-0.112873
-0.117647
-0.112489
-0.107376
-0.107285
-0.107172
-0.112036
-0.121878
-0.131697
-0.136493
-0.13129
-0.126109
-0.125928
-0.125747
-0.125588
-0.125453
-0.130339
-0.130317
-0.115385
-0.105475
-0.0955656
-0.100656
-0.105814
-0.111018
-0.116244
-0.116538
-0.116878
-0.11224
-0.107692
-0.108235
-0.108778
-0.114321
-0.119932
-0.115634
-0.111357
-0.112059
-0.112805
-0.118552
-0.124276
-0.119977
-0.115633
-0.116244
-0.111742
-0.102104
-0.0972625
-0.102421
-0.102149
-0.0916742
-0.0560407
-0.0102263
0.0057466
0.00687782
-0.0218778
-0.0605656
-0.0743213
-0.0831674
-0.0871494
-0.091267
-0.10552
-0.0948869
-0.129299
-0.133778
-0.123348
-0.113009
-0.102783
-0.0926697
-0.0926697
-0.0926697
-0.0875792
-0.0774661
-0.0474208
-0.0474208
-0.142466
-0.267557
-0.432579
-0.527624
-0.482602
-0.172557
0.492466
1.26747
2.17749
2.79753
3.15258
3.18262
2.94769
2.27278
1.31287
0.677964
0.218054
-0.00187778
-0.121833
-0.166787
-0.186742
-0.191674
-0.196584
-0.201493
-0.201403
-0.206312
-0.216222
-0.221086
-0.220905
-0.220747
-0.220611
-0.225498
-0.230407
-0.230317
-0.230226
-0.235158
-0.240113
-0.240045
-0.239977
-0.229955
-0.219955
-0.214932
-0.209887
-0.209842
-0.209819
-0.214842
-0.219932
-0.230091
-0.235294
-0.220498
-0.210656
-0.215792
-0.215928
-0.206063
-0.196199
-0.186357
-0.176561
-0.166742
-0.161855
-0.1569
-0.136991
-0.117127
-0.102285
-0.0874661
-0.0776244
-0.0678054
-0.0380543
-0.00841628
0.00104074
0.0104073
0.0397512
0.0741403
0.0937104
0.113394
0.143145
0.172919
0.177692
0.182466
0.192285
0.202172
0.197104
0.187081
0.167081
0.147081
0.117059
0.0870136
0.0619457
0.031991
0.00219458
-0.0276244
-0.0575113
-0.0773077
-0.0919457
-0.0957014
-0.0937331
-0.0917874
-0.085543
-0.0871267
-0.101878
-0.116109
-0.128801
-0.143258
-0.153462
-0.157783
-0.159638
-0.172014
-0.191063
-0.197986
-0.193552
-0.188394
-0.182919
-0.172738
-0.178054
-0.164072
-0.170498
-0.171719
-0.171538
-0.168326
-0.161584
-0.150747
-0.137127
-0.121878
-0.106471
-0.0921267
-0.0808371
-0.0788914
-0.0798189
-0.072828
-0.0668552
-0.0714027
-0.0761538
-0.0759954
-0.0758823
-0.0758144
-0.0757918
-0.0807918
-0.0857918
-0.0908145
-0.0958597
-0.100905
-0.105995
-0.101131
-0.0962896
-0.0964706
-0.0966969
-0.0969684
-0.0972625
-0.102602
-0.108009
-0.108484
-0.108959
-0.109434
-0.109955
-0.110543
-0.106222
-0.101991
-0.0978733
-0.0938688
-0.0899774
-0.0862217
-0.0925339
-0.0988462
-0.100204
-0.101697
-0.103281
-0.104887
-0.0965158
-0.0881448
-0.0947738
-0.10138
-0.0979412
-0.0943439
-0.0955882
-0.0966968
-0.10267
-0.0984616
-0.0790498
-0.0493665
-0.00941178
0.0107013
0.0109502
-0.00361992
-0.0379864
-0.0572172
-0.0713122
-0.0752715
-0.079095
-0.0829186
-0.0867421
-0.0954978
-0.104186
-0.107896
-0.101652
-0.0954977
-0.0944344
-0.0885068
-0.072715
-0.0620588
-0.0515611
-0.0312217
-0.0160407
-0.0659729
-0.140973
-0.351063
-0.521222
-0.521425
-0.371652
0.238145
0.947941
1.90271
2.66249
3.06222
3.23697
3.05176
2.51658
1.52643
0.79129
0.326131
0.0359276
-0.094276
-0.164434
-0.194548
-0.209593
-0.219638
-0.224615
-0.224615
-0.224593
-0.229548
-0.234525
-0.229525
-0.224502
-0.229457
-0.234389
-0.234299
-0.234208
-0.234118
-0.234072
-0.234072
-0.229027
-0.233937
-0.233869
-0.233824
-0.228756
-0.22371
-0.218733
-0.213756
-0.218756
-0.223756
-0.223801
-0.223891
-0.213982
-0.204095
-0.204163
-0.204276
-0.194367
-0.18448
-0.184615
-0.179751
-0.16491
-0.150091
-0.140271
-0.130475
-0.115701
-0.0959276
-0.0761539
-0.0563575
-0.0365385
-0.0167194
-0.00190043
0.0229412
0.0528055
0.0626923
0.0676018
0.0974435
0.127262
0.142081
0.156833
0.166493
0.176063
0.175498
0.169932
0.154502
0.139186
0.123959
0.108778
0.0785973
0.0434616
0.0134163
-0.0164479
-0.0410633
-0.0605656
-0.0700452
-0.0795701
-0.089276
-0.099095
-0.0989819
-0.0989366
-0.0939593
-0.089095
-0.0943439
-0.0996154
-0.0997737
-0.099095
-0.0976244
-0.095724
-0.0940045
-0.0941855
-0.0919909
-0.0941402
-0.0998642
-0.10776
-0.127149
-0.147262
-0.156335
-0.157624
-0.156222
-0.156629
-0.159344
-0.158303
-0.158507
-0.154163
-0.13129
-0.121606
-0.111109
-0.0914027
-0.0740723
-0.0761764
-0.0816063
-0.0741855
-0.0680995
-0.0725792
-0.0773529
-0.082285
-0.0873077
-0.0873529
-0.0873982
-0.0924887
-0.0975791
-0.0926923
-0.087828
-0.0929412
-0.0980317
-0.103145
-0.108281
-0.108416
-0.108552
-0.103688
-0.0988688
-0.104095
-0.109253
-0.109389
-0.10957
-0.114796
-0.110045
-0.0953167
-0.0955882
-0.10586
-0.111176
-0.106561
-0.101991
-0.107489
-0.108032
-0.11362
-0.0992986
-0.105045
-0.100792
-0.0965837
-0.0974886
-0.0984841
-0.0995475
-0.100611
-0.0966968
-0.092828
-0.0939818
-0.0951357
-0.0962895
-0.097466
-0.0934615
-0.0895701
-0.0905882
-0.0914479
-0.102127
-0.112692
-0.0981674
-0.0933484
-0.0932579
-0.0779637
-0.047466
-0.0168099
0.00900458
0.00493218
-0.0190723
-0.0381221
-0.0571945
-0.0662669
-0.0703619
-0.0745701
-0.073914
-0.0834615
-0.0981674
-0.102964
-0.107828
-0.11276
-0.10776
-0.102783
-0.102828
-0.0928959
-0.0829864
-0.0630769
-0.0431674
-0.0482805
-0.0834163
-0.273552
-0.443688
-0.533846
-0.494027
-0.0692081
0.525611
1.49548
2.29538
2.79532
3.14027
3.2502
2.94511
2.12005
1.35505
0.650113
0.205204
-0.0147059
-0.134593
-0.18448
-0.204389
-0.204253
-0.20914
-0.21905
-0.228914
-0.238733
-0.238575
-0.228439
-0.223326
-0.228213
-0.233054
-0.227873
-0.222715
-0.227579
-0.232466
-0.222376
-0.222285
-0.222195
-0.222059
-0.221878
-0.221742
-0.221652
-0.221584
-0.221538
-0.221493
-0.221448
-0.211403
-0.201335
-0.211244
-0.221154
-0.211109
-0.201063
-0.191041
-0.180995
-0.175882
-0.170769
-0.165701
-0.155679
-0.145656
-0.130588
-0.11052
-0.0904977
-0.070543
-0.0554751
-0.0453846
-0.0252941
-0.000203602
0.0248643
0.0549095
0.0699774
0.0850679
0.105158
0.125249
0.145362
0.165475
0.190543
0.170611
0.215747
0.210905
0.201018
0.190973
0.175679
0.160271
0.124909
0.0946606
0.0645701
0.034638
0.00990947
-0.0146607
-0.0391177
-0.0585973
-0.0631901
-0.0727602
-0.087353
-0.096991
-0.101652
-0.106358
-0.091086
-0.085905
-0.0908372
-0.0958145
-0.0908372
-0.0859955
-0.0911313
-0.0959955
-0.0903847
-0.0838236
-0.0767195
-0.0697738
-0.0689593
-0.0707693
-0.0760634
-0.0864254
-0.0955204
-0.106833
-0.123326
-0.137149
-0.150475
-0.155317
-0.148597
-0.137262
-0.123167
-0.107851
-0.0936199
-0.0879638
-0.085724
-0.0816516
-0.0795701
-0.0835068
-0.0880091
-0.0877149
-0.0874887
-0.0872625
-0.0870136
-0.0917647
-0.0966064
-0.101538
-0.106516
-0.0964932
-0.0914027
-0.10629
-0.116176
-0.116018
-0.115837
-0.110679
-0.105566
-0.11043
-0.115271
-0.12009
-0.124932
-0.119796
-0.114683
-0.114593
-0.11448
-0.114366
-0.114299
-0.109253
-0.10914
-0.118982
-0.123914
-0.113959
-0.11405
-0.114185
-0.114344
-0.11448
-0.114615
-0.114774
-0.109955
-0.105204
-0.11052
-0.11586
-0.106199
-0.0965384
-0.106878
-0.117262
-0.112738
-0.108235
-0.103733
-0.0992534
-0.104774
-0.110226
-0.105611
-0.100928
-0.106176
-0.106357
-0.0964253
-0.0961991
-0.105905
-0.105294
-0.0945927
-0.0588235
-0.0129638
0.00294121
0.00889144
-0.010181
-0.0442986
-0.0634841
-0.0777828
-0.0821719
-0.0816516
-0.0812669
-0.0809728
-0.105656
-0.120362
-0.120136
-0.119977
-0.114887
-0.109842
-0.0997059
-0.0895249
-0.0843665
-0.0792308
-0.054095
-0.0539593
-0.108846
-0.213756
-0.413643
-0.523575
-0.468507
-0.198394
0.376742
1.11188
2.04201
2.6971
3.09717
3.17729
3.01242
2.39258
1.48774
0.837896
0.318077
0.0532806
-0.106493
-0.171267
-0.206041
-0.215837
-0.220656
-0.225475
-0.220294
-0.215113
-0.219932
-0.224729
-0.224502
-0.234299
-0.244118
-0.233959
-0.223778
-0.213552
-0.203371
-0.213213
-0.223032
-0.227873
-0.232738
-0.232579
-0.232398
-0.227172
-0.2219
-0.226674
-0.231516
-0.226403
-0.221335
-0.216267
-0.211176
-0.216086
-0.215995
-0.205905
-0.200814
-0.205701
-0.205611
-0.195588
-0.180611
-0.160611
-0.140611
-0.125611
-0.120611
-0.115588
-0.105498
-0.095362
-0.0702488
-0.0451584
-0.0250905
-0.00506786
0.0149548
0.0349095
0.0596606
0.0892308
0.11371
0.138258
0.168009
0.197896
0.197873
0.197873
0.202896
0.207964
0.213054
0.20819
0.168416
0.133665
0.108869
0.0840498
0.0592081
0.0295023
0.00497736
-0.0195249
-0.0490498
-0.0686878
-0.0835068
-0.0885294
-0.0935973
-0.0979412
-0.0915837
-0.0896154
-0.097534
-0.101674
-0.103122
-0.103914
-0.103484
-0.110905
-0.130113
-0.149751
-0.162715
-0.171765
-0.172466
-0.170204
-0.171222
-0.171606
-0.171991
-0.158054
-0.154525
-0.160724
-0.165679
-0.163032
-0.157059
-0.1369
-0.113778
-0.103801
-0.0934389
-0.0838235
-0.0770136
-0.0743212
-0.0745928
-0.0772172
-0.0810407
-0.0805882
-0.0804072
-0.080362
-0.080362
-0.0803846
-0.0804298
-0.0854525
-0.0904751
-0.095543
-0.100611
-0.0956561
-0.0907918
-0.0910181
-0.101199
-0.116335
-0.111448
-0.0965385
-0.0966742
-0.106855
-0.112127
-0.117466
-0.122851
-0.128303
-0.133869
-0.129457
-0.120068
-0.115747
-0.111493
-0.107308
-0.10819
-0.109163
-0.110249
-0.111448
-0.11276
-0.11414
-0.110634
-0.107172
-0.10371
-0.100272
-0.101833
-0.103394
-0.104955
-0.111493
-0.128009
-0.13948
-0.130905
-0.122104
-0.123054
-0.118778
-0.109299
-0.084638
-0.0497738
-0.0196833
0.00565609
-0.00380092
-0.0430769
-0.0671946
-0.0911539
-0.100091
-0.0990046
-0.102873
-0.111674
-0.120407
-0.129163
-0.133145
-0.132308
-0.126584
-0.110973
-0.105498
-0.100181
-0.0899774
-0.0798869
-0.0749548
-0.0701358
-0.0454073
-0.050724
-0.216063
-0.371425
-0.506765
-0.532104
-0.287466
0.207172
1.16681
2.00147
2.63618
3.03584
3.14041
2.78002
1.91971
1.18437
0.554027
0.173733
-0.0215385
-0.12681
-0.177082
-0.19724
-0.20233
-0.207444
-0.207579
-0.207738
-0.202919
-0.203009
-0.213009
-0.218032
-0.218077
-0.218122
-0.213167
-0.208235
-0.208326
-0.208416
-0.208507
-0.213597
-0.218688
-0.218778
-0.218869
-0.218959
-0.21905
-0.214163
-0.209299
-0.214434
-0.219593
-0.209774
-0.199955
-0.200136
-0.200339
-0.195588
-0.190815
-0.190973
-0.191154
-0.176403
-0.166697
-0.157036
-0.142421
-0.112851
-0.103303
-0.103733
-0.0941176
-0.0744796
-0.054819
-0.0351357
-0.0104525
0.00923078
0.0338914
0.0685294
0.0881448
0.107738
0.117353
0.1269
0.146312
0.165679
0.185023
0.199389
0.198846
0.198371
0.197896
0.197398
0.171946
0.141538
0.111154
0.0858371
0.0656109
0.0405204
0.0156109
-0.00914027
-0.0288009
-0.0435294
-0.0484389
-0.0534842
-0.0586652
-0.0640498
-0.0695475
-0.0796833
-0.0893891
-0.0882353
-0.076448
-0.0699548
-0.0695475
-0.0723756
-0.0736652
-0.0789819
-0.0924208
-0.107376
-0.117624
-0.126403
-0.132466
-0.134208
-0.137896
-0.140362
-0.142308
-0.144299
-0.151086
-0.156652
-0.154932
-0.148869
-0.139027
-0.11129
-0.0817195
-0.0816516
-0.0831901
-0.0686425
-0.0574434
-0.059095
-0.062466
-0.0617194
-0.0614479
-0.0714027
-0.0814479
-0.081561
-0.0816741
-0.0767647
-0.0718778
-0.0819909
-0.092104
-0.0922624
-0.0924661
-0.0976923
-0.102873
-0.102986
-0.1031
-0.108235
-0.113371
-0.113507
-0.11371
-0.113982
-0.114276
-0.114593
-0.114955
-0.115362
-0.115815
-0.121267
-0.121765
-0.112353
-0.107986
-0.108688
-0.114502
-0.120407
-0.12138
-0.122443
-0.11862
-0.114909
-0.111267
-0.10767
-0.104118
-0.100611
-0.102081
-0.103552
-0.105068
-0.106584
-0.107986
-0.109344
-0.110566
-0.111652
-0.107624
-0.103348
-0.0987783
-0.0940271
-0.0940724
-0.0738688
-0.0384389
-0.0228507
-0.0171041
-0.0211991
-0.0401357
-0.0590045
-0.0728281
-0.0766516
-0.0754751
-0.0743665
-0.0783484
-0.0874887
-0.0967647
-0.101131
-0.105611
-0.110226
-0.104977
-0.0997964
-0.0997059
-0.0947285
-0.0897964
-0.0548416
-0.0298869
-0.114955
-0.220068
-0.420226
-0.570385
-0.51052
-0.270656
0.449208
1.22907
2.12394
2.81882
3.16373
3.23867
2.91864
2.32364
1.39367
0.71371
0.278756
0.00880091
-0.116154
-0.186109
-0.211086
-0.221131
-0.221199
-0.221177
-0.226086
-0.230905
-0.235633
-0.240452
-0.235362
-0.230249
-0.230091
-0.22991
-0.229729
-0.229525
-0.229299
-0.229118
-0.219005
-0.223937
-0.228891
-0.223801
-0.218643
-0.218484
-0.218348
-0.213235
-0.208145
-0.2181
-0.2281
-0.2231
-0.218077
-0.218032
-0.217986
-0.207941
-0.197964
-0.193054
-0.1881
-0.1781
-0.168077
-0.153032
-0.148054
-0.143167
-0.128281
-0.108348
-0.0833936
-0.0584389
-0.0384841
-0.018552
0.00631225
0.0311313
0.0559729
0.0858371
0.105769
0.125769
0.150792
0.175815
0.185792
0.195747
0.205701
0.200634
0.210498
0.200226
0.194819
0.189367
0.158937
0.128597
0.108371
0.0832579
0.0382353
-0.00167419
-0.0164027
-0.0310407
-0.0456561
-0.0652488
-0.0799774
-0.089638
-0.0893439
-0.089095
-0.0988688
-0.108688
-0.103575
-0.0985747
-0.0986878
-0.0988688
-0.094095
-0.0891855
-0.0938914
-0.0877828
-0.0660634
-0.0591855
-0.0680769
-0.0741629
-0.0783484
-0.0872625
-0.0998869
-0.115385
-0.127195
-0.138054
-0.150113
-0.154615
-0.147534
-0.139163
-0.131448
-0.121561
-0.111063
-0.0969004
-0.0853846
-0.0780769
-0.0738461
-0.0715611
-0.0704751
-0.0699547
-0.0697511
-0.0596832
-0.0546832
-0.0746606
-0.0895927
-0.0945249
-0.0994796
-0.094457
-0.0895023
-0.0895701
-0.0945928
-0.104593
-0.109593
-0.114593
-0.119593
-0.119593
-0.114593
-0.104547
-0.0995249
-0.104525
-0.114502
-0.124457
-0.129412
-0.124366
-0.119344
-0.114344
-0.109412
-0.10957
-0.114751
-0.124955
-0.130204
-0.13052
-0.115882
-0.10129
-0.111742
-0.122217
-0.127692
-0.133235
-0.118824
-0.10448
-0.105204
-0.10595
-0.106697
-0.107443
-0.11319
-0.113937
-0.0997059
-0.0904298
-0.0911086
-0.0917194
-0.10224
-0.112647
-0.112941
-0.1081
-0.0980995
-0.0929185
-0.0925565
-0.0869909
-0.0712896
-0.0404072
-0.00943438
0.00160634
0.00271494
-0.0112217
-0.0302262
-0.049276
-0.0683937
-0.0726923
-0.0771493
-0.0816742
-0.081267
-0.0909502
-0.0807466
-0.115588
-0.120452
-0.115339
-0.110249
-0.100204
-0.0902489
-0.0753394
-0.0603846
-0.050362
-0.0453167
-0.0802488
-0.160158
-0.335113
-0.470113
-0.499977
-0.324932
0.195091
0.905113
1.86516
2.58023
3.01532
3.15538
3.00545
2.40557
1.4557
0.780815
0.285928
0.0210634
-0.113801
-0.17371
-0.198643
-0.208507
-0.208326
-0.2081
-0.212828
-0.217624
-0.217443
-0.21724
-0.212014
-0.206742
-0.211425
-0.221154
-0.225928
-0.225724
-0.225543
-0.215339
-0.205113
-0.209887
-0.214683
-0.214525
-0.214389
-0.214276
-0.214185
-0.214095
-0.213982
-0.213823
-0.21362
-0.213416
-0.213258
-0.213145
-0.2131
-0.203077
-0.193032
-0.187964
-0.177851
-0.167715
-0.157647
-0.14767
-0.132715
-0.11276
-0.0927149
-0.0775792
-0.0674661
-0.0573756
-0.0323529
-0.00739817
0.0126018
0.0326471
0.0527149
0.0728054
0.0979186
0.123054
0.143167
0.168281
0.183462
0.198665
0.208824
0.218959
0.214072
0.20905
0.203869
0.193529
0.163054
0.13267
0.0974208
0.0623303
0.0324434
0.00271494
-0.0168326
-0.0363348
-0.0558371
-0.0703394
-0.0798642
-0.0894344
-0.0940498
-0.0987782
-0.0986199
-0.0985068
-0.0934163
-0.088371
-0.0932805
-0.0983936
-0.0935972
-0.0888688
-0.0889366
-0.0782805
-0.0618778
-0.0646606
-0.0775113
-0.0814253
-0.0830995
-0.0891402
-0.0941855
-0.0932353
-0.119638
-0.112036
-0.131357
-0.14448
-0.15086
-0.149502
-0.143439
-0.124525
-0.104638
-0.0952262
-0.0884389
-0.0758824
-0.0663575
-0.0690498
-0.0729412
-0.0674208
-0.0672172
-0.0820815
-0.091991
-0.1019
-0.111787
-0.0966742
-0.0916516
-0.0966969
-0.101697
-0.101629
-0.106561
-0.116538
-0.121538
-0.121538
-0.121493
-0.121403
-0.12129
-0.121154
-0.121063
-0.121018
-0.121041
-0.121086
-0.121109
-0.121109
-0.121131
-0.121176
-0.126244
-0.13138
-0.131584
-0.13181
-0.122059
-0.112353
-0.112647
-0.112941
-0.118258
-0.123642
-0.114095
-0.104547
-0.105
-0.105543
-0.111154
-0.116765
-0.122376
-0.128077
-0.118869
-0.109615
-0.105317
-0.101018
-0.106719
-0.112398
-0.118054
-0.123597
-0.124027
-0.124367
-0.124593
-0.119661
-0.10957
-0.104276
-0.108778
-0.0881221
-0.0523529
-0.0114932
0.0294344
0.0153168
-0.0138687
-0.0431448
-0.0725339
-0.0770362
-0.0866516
-0.0863801
-0.0861991
-0.101063
-0.115973
-0.125928
-0.13595
-0.116041
-0.0961764
-0.0912896
-0.0864027
-0.0865384
-0.0866742
-0.0768099
-0.0619457
-0.0420588
-0.0821945
-0.232376
-0.387534
-0.552647
-0.522783
-0.277986
0.336765
1.26649
2.07122
2.78097
3.16581
3.35563
2.85059
2.00054
1.22048
0.470385
0.145294
-0.0497964
-0.124887
-0.169977
-0.190023
-0.205068
-0.210113
-0.215158
-0.215204
-0.220249
-0.210272
-0.220294
-0.220362
-0.220452
-0.225588
-0.230769
-0.215905
-0.201041
-0.211176
-0.221312
-0.216448
-0.211606
-0.21681
-0.222059
-0.232285
-0.242557
-0.237783
-0.233032
-0.228303
-0.223552
-0.208778
-0.20405
-0.209367
-0.214683
-0.21
-0.205294
-0.200566
-0.185882
-0.171244
-0.166629
-0.162036
-0.152398
-0.142715
-0.133032
-0.123348
-0.0987104
-0.0741176
-0.0644796
-0.0547964
-0.0201131
0.0145928
0.0343213
0.0489367
0.0783484
0.107557
0.121629
0.135769
0.155068
0.174525
0.189072
0.20362
0.203145
0.202647
0.202149
0.201742
0.181448
0.161199
0.125995
0.0908371
0.0506787
0.0205204
-0.00457013
-0.0294796
-0.0492081
-0.0640498
-0.079095
-0.0893891
-0.0947511
-0.0994796
-0.093552
-0.09181
-0.0998642
-0.103891
-0.10509
-0.105226
-0.10414
-0.111448
-0.131018
-0.146742
-0.151629
-0.159005
-0.172986
-0.182896
-0.185385
-0.176403
-0.166855
-0.162557
-0.158756
-0.160588
-0.16224
-0.15776
-0.150475
-0.144005
-0.133914
-0.125588
-0.115498
-0.104548
-0.0958824
-0.0860181
-0.0797059
-0.08181
-0.085362
-0.0797738
-0.0745023
-0.0894118
-0.0944344
-0.0895475
-0.0847285
-0.0899774
-0.0951584
-0.0952941
-0.0954525
-0.100724
-0.10595
-0.106131
-0.10638
-0.101697
-0.0969457
-0.102127
-0.107353
-0.107647
-0.107964
-0.108303
-0.10371
-0.109163
-0.0996606
-0.110249
-0.105882
-0.101561
-0.10733
-0.113167
-0.104072
-0.095
-0.0959955
-0.0971267
-0.103348
-0.109638
-0.105995
-0.102421
-0.0986652
-0.0952263
-0.0968326
-0.0984615
-0.100113
-0.101742
-0.0983484
-0.0948416
-0.0962217
-0.0974887
-0.0986425
-0.104525
-0.115136
-0.0954751
-0.0555882
-0.0154525
0.0249321
0.0205204
-0.00875566
-0.0378959
-0.0619005
-0.0657692
-0.0645475
-0.0633258
-0.0621041
-0.0808597
-0.104593
-0.108416
-0.10733
-0.111425
-0.115701
-0.0951584
-0.0747511
-0.074457
-0.074276
-0.0641629
-0.049095
-0.0241177
-0.0392082
-0.184344
-0.339525
-0.519706
-0.564932
-0.365226
0.0995023
0.959276
1.78407
2.55391
3.07378
3.33362
3.15348
2.59842
1.84837
0.958303
0.43819
0.133054
-0.031991
-0.126946
-0.1719
-0.196855
-0.206765
-0.211629
-0.216493
-0.211335
-0.206131
-0.210905
-0.215701
-0.21552
-0.215362
-0.225226
-0.220091
-0.214932
-0.219751
-0.22457
-0.229389
-0.234208
-0.229072
-0.223937
-0.213801
-0.203665
-0.218552
-0.233462
-0.218371
-0.203281
-0.213213
-0.223167
-0.213122
-0.2031
-0.203077
-0.203009
-0.202941
-0.197919
-0.187919
-0.177919
-0.167919
-0.162896
-0.162896
-0.152851
-0.137851
-0.122828
-0.0977828
-0.0777602
-0.0477602
-0.0377602
-0.0277602
-0.00269231
0.0223982
0.0424434
0.0624434
0.0924435
0.0674434
0.142489
0.157534
0.172511
0.187511
0.192579
0.197557
0.197398
0.197127
0.181697
0.166335
0.141086
0.115905
0.0757692
0.0407466
0.0159049
-0.00868781
-0.038077
-0.0524435
-0.0619005
-0.0714254
-0.0859955
-0.0906109
-0.0902489
-0.0899322
-0.0946607
-0.0994797
-0.0994118
-0.0994344
-0.0945702
-0.0898643
-0.0900453
-0.0895023
-0.0881675
-0.0860408
-0.0888688
-0.092534
-0.0888009
-0.0892987
-0.0934842
-0.101357
-0.111674
-0.118733
-0.129299
-0.150837
-0.166855
-0.165453
-0.158529
-0.1469
-0.132376
-0.121335
-0.111018
-0.0981674
-0.0887104
-0.0783258
-0.0702489
-0.0784615
-0.0873982
-0.0817647
-0.0763575
-0.086086
-0.0958823
-0.090724
-0.0905656
-0.100362
-0.105136
-0.104932
-0.104751
-0.10457
-0.104412
-0.104321
-0.109186
-0.119005
-0.123869
-0.118778
-0.113688
-0.118597
-0.123507
-0.118416
-0.113281
-0.1131
-0.112986
-0.112941
-0.112851
-0.112738
-0.112715
-0.112783
-0.107851
-0.102896
-0.107964
-0.113077
-0.108235
-0.103462
-0.103733
-0.10405
-0.104412
-0.104842
-0.105362
-0.10595
-0.106606
-0.107308
-0.108009
-0.108688
-0.0992986
-0.0899321
-0.105588
-0.111244
-0.1069
-0.102511
-0.0980769
-0.0934615
-0.0988914
-0.0938914
-0.078733
-0.0834389
-0.0979864
-0.0773756
-0.0416063
-0.0107013
0.025362
0.0115158
-0.012285
-0.0311312
-0.0500226
-0.0540498
-0.0532126
-0.067466
-0.0718099
-0.0812896
-0.0908371
-0.10543
-0.12009
-0.114864
-0.109661
-0.0994118
-0.0891403
-0.088914
-0.088733
-0.0735747
-0.0484615
-0.0183032
-0.0481674
-0.187986
-0.342805
-0.517624
-0.527489
-0.332421
0.257624
1.21769
2.01778
2.6879
3.07308
3.27833
2.9036
2.21387
1.4591
0.679276
0.28448
0.0147059
-0.105045
-0.179774
-0.199593
-0.209434
-0.209208
-0.198937
-0.208643
-0.228326
-0.233032
-0.23276
-0.227489
-0.222217
-0.216968
-0.211742
-0.216471
-0.221176
-0.220928
-0.220701
-0.220475
-0.220249
-0.215023
-0.209796
-0.21457
-0.219344
-0.21414
-0.208982
-0.213824
-0.218643
-0.213484
-0.208348
-0.20819
-0.208032
-0.207896
-0.207715
-0.202489
-0.192262
-0.182036
-0.171833
-0.161652
-0.156493
-0.151357
-0.141222
-0.131086
-0.110928
-0.090724
-0.0704751
-0.0502262
-0.0300226
-0.00984162
0.0153394
0.0455204
0.0706788
0.0958598
0.111109
0.12638
0.141697
0.157059
0.18233
0.207557
0.217783
0.228009
0.218235
0.203348
0.183303
0.163167
0.147964
0.127873
0.0978507
0.0680091
0.0384163
0.00398192
-0.0302715
-0.0545701
-0.0689593
-0.0833936
-0.0928733
-0.0973529
-0.10181
-0.106335
-0.105882
-0.10552
-0.105249
-0.100068
-0.09
-0.09
-0.100045
-0.104977
-0.0993665
-0.092828
-0.0857692
-0.0734389
-0.0771267
-0.067647
-0.0818326
-0.0909728
-0.103575
-0.109118
-0.115452
-0.131244
-0.141493
-0.143756
-0.139253
-0.138665
-0.135181
-0.114796
-0.0958597
-0.0852263
-0.077534
-0.0783032
-0.0808145
-0.0845023
-0.0887105
-0.0732353
-0.0729186
-0.087715
-0.0974888
-0.0971946
-0.0969231
-0.101719
-0.106561
-0.101425
-0.096267
-0.101086
-0.10586
-0.110588
-0.115362
-0.115181
-0.114977
-0.114751
-0.114547
-0.114366
-0.114163
-0.113937
-0.11871
-0.123484
-0.118258
-0.113054
-0.112919
-0.112828
-0.112715
-0.112579
-0.107443
-0.102353
-0.11233
-0.122353
-0.122398
-0.122443
-0.117489
-0.112579
-0.102692
-0.0928959
-0.09819
-0.103529
-0.103914
-0.109321
-0.119751
-0.120158
-0.110543
-0.105905
-0.106267
-0.106697
-0.102104
-0.107421
-0.122647
-0.127851
-0.128032
-0.128145
-0.12319
-0.118077
-0.112715
-0.107127
-0.101335
-0.0704525
-0.0394796
-0.0133936
0.017715
-0.0111538
-0.0400226
-0.0589592
-0.078009
-0.0821719
-0.0864479
-0.0908371
-0.0953394
-0.104955
-0.114661
-0.119389
-0.124118
-0.123869
-0.123688
-0.113597
-0.103462
-0.0982806
-0.0880996
-0.0678959
-0.0526923
-0.0675339
-0.177466
-0.382443
-0.497353
-0.542195
-0.291991
0.14319
0.923416
1.8786
2.48876
2.96389
3.12907
3.2043
2.56953
1.76475
1.07
0.395271
0.14052
-0.0742534
-0.128982
-0.0886652
-0.193371
-0.208077
-0.21776
-0.227443
-0.232149
-0.236878
-0.221538
-0.206199
-0.210905
-0.215633
-0.220362
-0.225091
-0.219842
-0.214615
-0.214366
-0.214095
-0.218801
-0.223507
-0.218213
-0.212919
-0.217602
-0.22233
-0.217104
-0.211855
-0.211584
-0.211335
-0.216109
-0.220905
-0.215724
-0.205543
-0.195362
-0.190204
-0.190068
-0.189932
-0.189796
-0.179615
-0.164389
-0.154231
-0.14414
-0.134027
-0.123891
-0.103756
-0.0886199
-0.0634615
-0.0382805
-0.0180995
0.00208146
0.0272625
0.0524208
0.0675566
0.0825792
0.0974434
0.117149
0.156674
0.18129
0.186063
0.191018
0.201086
0.211109
0.211109
0.211131
0.201199
0.17138
0.131674
0.0969683
0.0672625
0.0326697
-0.0118099
-0.0362217
-0.055543
-0.075
-0.0895927
-0.0942986
-0.0991402
-0.109095
-0.118778
-0.11767
-0.10595
-0.0987782
-0.102285
-0.107421
-0.110928
-0.109004
-0.100362
-0.124208
-0.149072
-0.159276
-0.166403
-0.174118
-0.178575
-0.165226
-0.151267
-0.162466
-0.173937
-0.175452
-0.175814
-0.174185
-0.169004
-0.154457
-0.137149
-0.122692
-0.107489
-0.0919457
-0.0792307
-0.0751131
-0.0741855
-0.0763574
-0.0797059
-0.0840497
-0.0886425
-0.0830543
-0.0828959
-0.0927601
-0.0976923
-0.0976923
-0.0977375
-0.097828
-0.097828
-0.102738
-0.107692
-0.107692
-0.107715
-0.107783
-0.107873
-0.107964
-0.108032
-0.118077
-0.123167
-0.128303
-0.133439
-0.138642
-0.128959
-0.119321
-0.124683
-0.13009
-0.125566
-0.121086
-0.121674
-0.122398
-0.118009
-0.113846
-0.109683
-0.105633
-0.106719
-0.107873
-0.114095
-0.12043
-0.11681
-0.113213
-0.119638
-0.126086
-0.122557
-0.118959
-0.115317
-0.111584
-0.117715
-0.12362
-0.124299
-0.124728
-0.129909
-0.104909
-0.0597285
-0.0193891
0.0211086
0.00185525
-0.0272171
-0.071199
-0.110113
-0.103959
-0.0977375
-0.101493
-0.105226
-0.124004
-0.142918
-0.137036
-0.131335
-0.125769
-0.120362
-0.110181
-0.100136
-0.100204
-0.100407
-0.0957013
-0.0860407
-0.0664253
-0.131855
-0.31233
-0.45276
-0.5631
-0.423416
-0.0687556
0.670882
1.68052
2.4052
2.96498
3.19971
3.27939
2.6091
1.65382
0.948575
0.313349
0.0681449
-0.102014
-0.157172
-0.192353
-0.197534
-0.202692
-0.207805
-0.217919
-0.218054
-0.218167
-0.218235
-0.218281
-0.228303
-0.238303
-0.228326
-0.218371
-0.213462
-0.208597
-0.208733
-0.208869
-0.218959
-0.229027
-0.224186
-0.219389
-0.214615
-0.209842
-0.215068
-0.220294
-0.215543
-0.210815
-0.211086
-0.206357
-0.196629
-0.1919
-0.197172
-0.202421
-0.197692
-0.193032
-0.188439
-0.168846
-0.149253
-0.144615
-0.139932
-0.125271
-0.110633
-0.100995
-0.0913574
-0.066742
-0.0871493
-0.0275339
-0.0179411
0.0115838
0.0409955
0.0552715
0.0695702
0.103937
0.128394
0.142986
0.157624
0.17224
0.186833
0.191471
0.196176
0.200882
0.195747
0.165633
0.13552
0.10543
0.0752941
0.0500905
0.0249321
0.00490949
-0.0100679
-0.0249321
-0.0397285
-0.0542986
-0.0631901
-0.0666063
-0.0698416
-0.0736878
-0.0795928
-0.0836651
-0.0924661
-0.0997738
-0.109118
-0.124344
-0.139321
-0.146765
-0.149864
-0.149729
-0.142104
-0.138122
-0.133371
-0.128235
-0.127851
-0.127715
-0.138394
-0.149661
-0.151357
-0.152398
-0.151855
-0.147986
-0.139548
-0.127828
-0.113597
-0.0982805
-0.0825565
-0.0699095
-0.0666289
-0.0665158
-0.0542533
-0.0480995
-0.0577149
-0.0625792
-0.0626018
-0.067647
-0.0777149
-0.077828
-0.068009
-0.0681674
-0.0783031
-0.0834389
-0.0885746
-0.0937782
-0.0940497
-0.0943212
-0.0895927
-0.0848642
-0.0901357
-0.0954298
-0.100747
-0.106131
-0.0966289
-0.0921945
-0.0877828
-0.088371
-0.0890271
-0.0897964
-0.0907013
-0.0916968
-0.0927828
-0.0939819
-0.0952489
-0.0965611
-0.0979412
-0.104434
-0.111018
-0.10267
-0.0943891
-0.101176
-0.107941
-0.109683
-0.11138
-0.113032
-0.114593
-0.111063
-0.107421
-0.103643
-0.0996154
-0.10052
-0.0909955
-0.0712896
-0.0413348
-0.0111312
-0.0157692
-0.0352715
-0.0595701
-0.0837104
-0.0877602
-0.0866968
-0.0855204
-0.0892534
-0.0979638
-0.0916516
-0.120339
-0.129072
-0.132919
-0.1369
-0.126063
-0.115385
-0.099819
-0.0843665
-0.0540045
-0.0387104
-0.0734842
-0.153326
-0.348258
-0.493258
-0.528281
-0.388348
0.0615837
0.756471
1.78133
2.5362
2.99109
3.191
3.14091
2.58584
1.63581
0.930815
0.380837
0.0809276
-0.0839366
-0.158756
-0.193529
-0.203281
-0.203009
-0.212783
-0.227602
-0.232443
-0.227308
-0.222149
-0.221968
-0.221765
-0.216538
-0.22129
-0.231041
-0.220837
-0.210656
-0.215475
-0.220294
-0.220068
-0.219819
-0.219593
-0.219366
-0.219163
-0.219004
-0.213891
-0.208778
-0.213597
-0.218394
-0.218235
-0.2181
-0.212986
-0.207919
-0.197873
-0.187851
-0.182828
-0.17776
-0.172692
-0.16767
-0.162692
-0.147715
-0.12767
-0.117624
-0.112579
-0.0925339
-0.0724887
-0.0474434
-0.0223982
0.00262446
0.0276245
0.0476245
0.0675566
0.0873077
0.106968
0.121538
0.141109
0.160837
0.180701
0.195634
0.210588
0.205543
0.200498
0.195475
0.190543
0.175724
0.15595
0.126222
0.0915385
0.0568326
0.0271041
0.00237556
-0.0222398
-0.0417421
-0.0563575
-0.0661538
-0.0759955
-0.0807466
-0.0896606
-0.097828
-0.100814
-0.0992081
-0.0999095
-0.0984389
-0.101448
-0.118054
-0.131742
-0.136606
-0.146131
-0.15871
-0.167285
-0.172511
-0.175045
-0.175882
-0.176086
-0.171199
-0.166946
-0.168235
-0.164615
-0.170317
-0.163959
-0.154434
-0.145272
-0.132692
-0.118054
-0.102511
-0.0921945
