ekg
0
0.00333333
-0.00399999
-0.000714287
0.005
0.00454544
0.005
-0.000333324
-0.00588234
-0.00131577
0.00333334
-0.00260869
-0.00799999
-0.00351851
0.00189655
0.00193548
0.00181818
0.00128572
0.00027027
-0.00141025
-0.0042683
-0.0027907
-0.00211111
-0.0134043
-0.0252041
-0.0257843
-0.030283
-0.0426364
-0.0482456
-0.0427119
-0.0361475
-0.0347619
-0.0336154
-0.0279104
-0.0234058
-0.0202113
-0.0267808
-0.0502
-0.0632468
-0.0503797
-0.025679
-0.00259036
0.0140588
0.0214943
0.0532022
0.0852198
0.107097
0.128684
0.120309
0.111768
0.108119
0.104417
0.0855238
0.0614953
0.032156
0.00774775
-0.00185841
-0.0167826
-0.0417949
-0.0620588
-0.0624793
-0.0629675
-0.05872
-0.0546457
-0.0608915
-0.0574046
-0.0391729
-0.0211852
-0.00346715
0.0188849
0.040922
0.242762
0.52431
0.855714
1.20718
1.15361
0.980163
0.417065
-0.230478
-0.487327
-0.688447
-0.608834
-0.493576
-0.367904
-0.236657
-0.165292
-0.0938728
-0.0972857
-0.100763
-0.109302
-0.117873
-0.11153
-0.105027
-0.0987433
-0.092619
-0.096466
-0.100389
-0.094359
-0.0882741
-0.0871608
-0.0859453
-0.0848769
-0.0837805
-0.0776812
-0.0716029
-0.0705213
-0.0643897
-0.0532326
-0.0469816
-0.0458219
-0.0446606
-0.0393891
-0.0291176
-0.0188914
-0.0136425
-0.013371
-0.00809954
0.00217195
0.00742082
0.0126471
0.0179638
0.0183032
0.0235747
0.0338009
0.0440724
0.0393891
0.0647059
0.07
0.0802489
0.0904751
0.100724
0.110995
0.121312
0.131674
0.142014
0.15233
0.16767
0.182986
0.198213
0.213394
0.223597
0.233891
0.244208
0.25948
0.274729
0.285023
0.285362
0.285724
0.291109
0.296561
0.302081
0.30267
0.293326
0.283982
0.274615
0.255385
0.23129
0.207308
0.183439
0.15448
0.13043
0.101357
0.0722624
0.0480995
0.0238462
0.00945701
-0.00502263
-0.0345023
-0.0590498
-0.0587557
-0.0585747
-0.0633937
-0.0682127
-0.0779864
-0.0877602
-0.0826245
-0.0774887
-0.0772625
-0.0769457
-0.0765159
-0.0759502
-0.0702715
-0.0686199
-0.0806335
-0.0811765
-0.0601584
-0.0443665
-0.0343439
-0.0268552
-0.032285
-0.0388914
-0.0364253
-0.0335973
-0.0352489
-0.0363349
-0.0418326
-0.0471041
-0.0471041
-0.052172
-0.0623303
-0.0626018
-0.0529865
-0.0484163
-0.0539141
-0.0595023
-0.0601584
-0.060905
-0.0616969
-0.0623982
-0.0630091
-0.0685294
-0.0739819
-0.0743439
-0.0745702
-0.084638
-0.0946154
-0.0895475
-0.0844118
-0.0841856
-0.0839141
-0.0886199
-0.0933032
-0.0879865
-0.0826471
-0.0823077
-0.0820136
-0.0817874
-0.081629
-0.0815838
-0.0822399
-0.0987105
-0.101652
-0.0960408
-0.0965385
-0.107104
-0.114593
-0.114457
-0.107466
-0.0943213
-0.0862218
-0.0883711
-0.0910408
-0.0941856
-0.0977602
-0.0965385
-0.0953394
-0.0941177
-0.0878507
-0.0765385
-0.0701358
-0.0686425
-0.0820815
-0.0854751
-0.0738688
-0.0622172
-0.0654751
-0.0686878
-0.0669457
-0.0652262
-0.0634842
-0.0617195
-0.0649095
-0.0680995
-0.0563801
-0.0447285
-0.0431222
-0.0416516
-0.0453394
-0.0491403
-0.0380543
-0.0271041
-0.026267
-0.0256109
-0.0301358
-0.0347738
-0.0345249
-0.0393891
-0.0493665
-0.0495023
-0.0397738
-0.0350679
-0.0353846
-0.0357466
-0.0411539
-0.0366516
-0.0222398
-0.0178733
-0.0185068
-0.0191629
-0.0248643
-0.0306335
-0.031448
-0.0422398
-0.0530769
-0.0440724
-0.035181
-0.0362896
-0.0373756
-0.0384615
-0.0395928
-0.0358145
-0.0321041
-0.0334163
-0.0347512
-0.0361313
-0.0375566
-0.0190498
-0.0105883
-0.00212672
0.0113122
0.0247059
0.0381448
0.0516742
0.0703167
0.0940271
0.112783
0.126629
0.130611
0.114728
0.0989819
0.078371
0.062828
0.0423755
0.0120588
-0.0181674
-0.0334163
-0.0436652
-0.0538235
-0.0638914
-0.0688914
-0.0738462
-0.0788236
-0.0738236
-0.0688009
-0.0587557
-0.0436878
-0.0285973
-0.00852943
0.0265158
0.186584
0.371674
0.701674
1.02165
1.27165
1.29667
0.626719
0.0417421
-0.343281
-0.593303
-0.573281
-0.508213
-0.383145
-0.268122
-0.163145
-0.108145
-0.0930995
-0.0880996
-0.0831448
-0.0781448
-0.0830769
-0.0879638
-0.092828
-0.0927828
-0.0827828
-0.0777149
-0.0825792
-0.0824661
-0.0723756
-0.0672851
-0.0671946
-0.0670362
-0.0718552
-0.0717195
-0.061629
-0.0564932
-0.0563122
-0.0461086
-0.0358824
-0.0356787
-0.0354977
-0.0352715
-0.035
-0.0247285
-0.014457
-0.0142081
-0.0139819
-0.00375564
0.00644798
0.0116064
0.0167647
0.0219683
0.027172
0.0323982
0.0376018
0.0477602
0.0579412
0.0731901
0.0784842
0.0838009
0.0941177
0.109412
0.119683
0.119955
0.130158
0.150294
0.170453
0.185634
0.19086
0.196131
0.21138
0.226606
0.236855
0.247127
0.257398
0.26767
0.277941
0.288213
0.293597
0.29405
0.294525
0.295045
0.285611
0.276222
0.256923
0.237738
0.223643
0.204615
0.175656
0.146719
0.117738
0.0887104
0.0695702
0.0453846
0.0161539
-0.00323528
-0.00778279
-0.0174434
-0.0321946
-0.0469683
-0.0617647
-0.0716063
-0.0714932
-0.0714027
-0.0712896
-0.0711538
-0.0759728
-0.0807013
-0.0753394
-0.0699095
-0.0743439
-0.0780543
-0.0709276
-0.0623077
-0.0522398
-0.0460406
-0.0497284
-0.0464705
-0.0358823
-0.0320361
-0.0343212
-0.0415158
-0.0484389
-0.0448416
-0.0407692
-0.0512669
-0.061561
-0.0518325
-0.0421945
-0.047647
-0.0531674
-0.0588009
-0.0645475
-0.0604072
-0.0562443
-0.0619457
-0.0676018
-0.0682579
-0.0688009
-0.0691855
-0.0693438
-0.0843438
-0.0893212
-0.0842986
-0.0792307
-0.0790724
-0.0788914
-0.0837104
-0.0885294
-0.0883484
-0.0881448
-0.0879412
-0.0878054
-0.0877375
-0.0877149
-0.088009
-0.0889593
-0.0909728
-0.0943891
-0.0991855
-0.105407
-0.110566
-0.108145
-0.113575
-0.107059
-0.0996832
-0.0968099
-0.0941629
-0.0969457
-0.100204
-0.098914
-0.097828
-0.0969004
-0.0959502
-0.09
-0.0840045
-0.0779185
-0.0716968
-0.0804072
-0.0891176
-0.082828
-0.0764932
-0.0751131
-0.0736877
-0.0722171
-0.0707013
-0.0691402
-0.0675339
-0.0708823
-0.0742307
-0.0676017
-0.061018
-0.0544796
-0.0479863
-0.0515384
-0.0552035
-0.0489818
-0.042828
-0.0417646
-0.040837
-0.0450678
-0.0495022
-0.0441176
-0.0488008
-0.0585972
-0.0535746
-0.0486877
-0.0388687
-0.0291176
-0.0344343
-0.0398642
-0.0354298
-0.0310633
-0.0316968
-0.0323529
-0.0330543
-0.0338235
-0.0396832
-0.0456108
-0.0415384
-0.0375113
-0.0385746
-0.0397058
-0.0408597
-0.0420588
-0.0433031
-0.0446154
-0.0410407
-0.0374886
-0.038914
-0.0403393
-0.0417873
-0.0383484
-0.0299773
-0.0215611
-0.0130995
-0.00472847
0.00355207
0.0269231
0.0504299
0.0690272
0.0876924
0.10638
0.125113
0.118959
0.0979412
0.0920589
0.086267
0.0605883
0.0350226
-0.0104299
-0.0458371
-0.0512896
-0.0566968
-0.0670136
-0.0772398
-0.0773982
-0.0775566
-0.0677828
-0.0580543
-0.0632805
-0.0634842
-0.0486651
-0.0338688
-0.014095
0.0657014
0.21052
0.445294
0.765023
1.07975
1.39948
1.16921
0.603937
0.133665
-0.291652
-0.476923
-0.577149
-0.517376
-0.407602
-0.297851
-0.193122
-0.138371
-0.0885973
-0.0838462
-0.0841177
-0.0843439
-0.0845249
-0.0947059
-0.0948869
-0.0901131
-0.085362
-0.080543
-0.0756787
-0.0758371
-0.0760181
-0.0761991
-0.0763801
-0.0765385
-0.0766742
-0.0718326
-0.0670136
-0.057172
-0.0472851
-0.0473982
-0.0474661
-0.0425339
-0.0376471
-0.0377602
-0.0378281
-0.0378733
-0.0329412
-0.0180543
-0.00814477
-0.0131674
-0.0132353
-0.00337103
0.00651585
0.0164254
0.0213801
0.0213801
0.0313349
0.0462444
0.0511765
0.0511312
0.0561086
0.0661086
0.081086
0.0960408
0.105996
0.11095
0.125905
0.14086
0.150837
0.160837
0.175837
0.190815
0.205747
0.220656
0.225588
0.230543
0.235498
0.240453
0.260407
0.27043
0.265543
0.260656
0.270769
0.280928
0.271131
0.251448
0.226878
0.207376
0.197941
0.183575
0.164276
0.14
0.105679
0.0813123
0.0569005
0.0323982
0.00780546
-0.00203617
-0.00708142
-0.0221493
-0.0372172
-0.052285
-0.0673982
-0.0675792
-0.0578054
-0.0529864
-0.0631222
-0.0682805
-0.0734389
-0.0685294
-0.0635294
-0.0683937
-0.0729185
-0.0618552
-0.0497511
-0.0461764
-0.0411538
-0.0346832
-0.029276
-0.0214706
-0.0158144
-0.0220814
-0.0292081
-0.0318099
-0.0342081
-0.0361765
-0.0376244
-0.0435746
-0.0493891
-0.0451131
-0.0409728
-0.0469683
-0.053009
-0.049095
-0.045181
-0.0462217
-0.0522172
-0.0631222
-0.0688688
-0.064457
-0.0599321
-0.0602941
-0.060543
-0.065724
-0.070905
-0.071086
-0.0712443
-0.0713801
-0.0764706
-0.0715611
-0.0767195
-0.0819457
-0.0772172
-0.0725339
-0.0779185
-0.0838688
-0.0804751
-0.078371
-0.0926244
-0.108145
-0.110023
-0.109276
-0.116176
-0.115656
-0.113281
-0.110837
-0.103394
-0.096448
-0.095
-0.0940045
-0.0984163
-0.102896
-0.0974208
-0.09181
-0.0960633
-0.100317
-0.0945928
-0.0888235
-0.093009
-0.0971493
-0.0962443
-0.0902941
-0.0792986
-0.0732353
-0.0721041
-0.0709502
-0.0697737
-0.0685973
-0.0674208
-0.0761312
-0.0847964
-0.0735294
-0.0623077
-0.0610633
-0.0597963
-0.0585746
-0.057466
-0.0515158
-0.0457013
-0.0399773
-0.0343439
-0.0438009
-0.0533936
-0.04819
-0.0431221
-0.0481674
-0.053371
-0.043733
-0.0341855
-0.0347058
-0.0403167
-0.0510181
-0.0518552
-0.037828
-0.0288461
-0.0298642
-0.0308823
-0.0319683
-0.0331674
-0.0344344
-0.0407013
-0.0519909
-0.0483936
-0.0349095
-0.0314479
-0.038009
-0.0446154
-0.046267
-0.0429864
-0.0347511
-0.0315158
-0.0332805
-0.0300678
-0.0268778
-0.0136878
-0.000475086
-0.00721717
-0.0139366
0.00934391
0.0376923
0.0711539
0.0997512
0.108439
0.117217
0.106131
0.095181
0.0893665
0.0736426
0.0429864
0.012353
-0.0132127
-0.0386425
-0.0639593
-0.079276
-0.0796154
-0.0799547
-0.0802715
-0.0805656
-0.0808371
-0.0711312
-0.0564027
-0.0417194
-0.0270814
-0.0123982
0.00233033
0.126991
0.271584
0.561267
0.875973
1.16559
1.46014
0.879706
1.4743
-0.156086
-0.556471
-0.5669
-0.567353
-0.447783
-0.32319
-0.218575
-0.128937
-0.109321
-0.0897285
-0.105091
-0.120407
-0.110769
-0.101176
-0.0965611
-0.0918552
-0.0921493
-0.0924887
-0.0878507
-0.0831901
-0.0834842
-0.083733
-0.0839593
-0.0841855
-0.0794118
-0.0746154
-0.0797964
-0.0800226
-0.0702941
-0.0654978
-0.0606335
-0.0557919
-0.0559729
-0.0511538
-0.0413348
-0.0314932
-0.021629
-0.0167421
-0.0168326
-0.0119683
-0.00212669
0.00278281
0.00271494
0.0125792
0.0223982
0.0322624
0.0421719
0.0471041
0.0520362
0.0669005
0.0817421
0.0916516
0.101606
0.106561
0.111516
0.131448
0.141403
0.146403
0.156357
0.176244
0.196131
0.211063
0.226041
0.236018
0.245928
0.260792
0.270701
0.275679
0.280679
0.280679
0.280701
0.280747
0.275882
0.266109
0.26129
0.256425
0.236674
0.217059
0.192602
0.168281
0.143982
0.119706
0.0953846
0.0660181
0.041629
0.0171719
0.00760181
-0.00208145
-0.0268552
-0.0517421
-0.0517873
-0.0519231
-0.0570588
-0.0621946
-0.0673303
-0.0724661
-0.0726244
-0.0727602
-0.0678281
-0.0628281
-0.0677602
-0.0726244
-0.0624208
-0.0516063
-0.0650905
-0.0623077
-0.0481448
-0.0376697
-0.0308597
-0.0266742
-0.0247964
-0.0253168
-0.0176697
-0.0150453
-0.0173982
-0.0192308
-0.0255204
-0.0313575
-0.03181
-0.0322398
-0.0376471
-0.0432127
-0.0388914
-0.0345475
-0.0352262
-0.0509728
-0.0568326
-0.0528281
-0.0488688
-0.0498869
-0.0508145
-0.0566516
-0.0624434
-0.06319
-0.0637783
-0.0691855
-0.0745023
-0.0747738
-0.0749774
-0.080181
-0.085181
-0.0801131
-0.0750905
-0.0751357
-0.0751358
-0.0750679
-0.075
-0.0749321
-0.0749321
-0.0750226
-0.0801357
-0.090543
-0.0920136
-0.0846833
-0.0837104
-0.0888009
-0.094457
-0.104163
-0.110837
-0.105158
-0.0978281
-0.0947738
-0.0919005
-0.0894118
-0.0875113
-0.0810633
-0.0849321
-0.093914
-0.0879185
-0.0819004
-0.0757919
-0.0695928
-0.0733032
-0.0769231
-0.0655204
-0.054095
-0.0576018
-0.0610634
-0.0595023
-0.0579186
-0.0563575
-0.0547964
-0.0582127
-0.0616742
-0.0552036
-0.0487783
-0.0473982
-0.0461086
-0.0449095
-0.0438461
-0.0379185
-0.0321267
-0.0314706
-0.0309502
-0.0305882
-0.0303846
-0.0353394
-0.0403167
-0.0453394
-0.045543
-0.035905
-0.0312896
-0.0316968
-0.0321493
-0.0326697
-0.0332579
-0.028914
-0.0246154
-0.0253394
-0.0260633
-0.02681
-0.0276244
-0.0284842
-0.0393213
-0.050181
-0.0411765
-0.0322172
-0.0332579
-0.0343439
-0.0354977
-0.0367195
-0.0330317
-0.0293892
-0.0357692
-0.0421493
-0.038552
-0.035
-0.0315159
-0.0280543
-0.0145928
-0.00119912
0.0171041
0.0254072
0.0287556
0.0421946
0.0607013
0.0891629
0.11767
0.126335
0.125158
0.109095
0.0881448
0.0773077
0.0666063
0.0310633
-0.00436653
-0.0197738
-0.0351584
-0.0504751
-0.0407014
-0.0808597
-0.0909955
-0.0761086
-0.0611991
-0.066267
-0.0713122
-0.0613349
-0.0513349
-0.0313349
-0.0113348
-0.00131222
0.0736878
0.313597
0.578484
0.888416
1.13335
1.26826
1.06814
0.402986
-0.112195
-0.462353
-0.607489
-0.557624
-0.462738
-0.327828
-0.222896
-0.132919
-0.0980091
-0.08819
-0.0833258
-0.0834163
-0.0834615
-0.0884615
-0.0935294
-0.0886652
-0.083733
-0.0837104
-0.0836652
-0.0836199
-0.083552
-0.0784615
-0.0783484
-0.0832353
-0.0781901
-0.0731901
-0.0681674
-0.0630996
-0.0629864
-0.0628507
-0.0577376
-0.0526471
-0.0475113
-0.0423303
-0.0371493
-0.0319683
-0.02181
-0.011629
-0.0164254
-0.016267
-0.00115386
0.00895926
0.0141176
0.0192986
0.0244796
0.0346606
0.0448416
0.0550226
0.0652262
0.0704525
0.0756787
0.0858823
0.0960633
0.10129
0.106561
0.121742
0.136833
0.146991
0.157217
0.172443
0.18767
0.202873
0.218054
0.228258
0.243484
0.248688
0.253869
0.264072
0.274299
0.27457
0.274887
0.290249
0.305656
0.301154
0.296697
0.282262
0.267896
0.26362
0.24948
0.220475
0.191516
0.167557
0.143507
0.114344
0.080181
0.0460181
0.0216516
0.0120814
0.00244342
-0.0122625
-0.0320362
-0.0517647
-0.0616742
-0.061629
-0.0615159
-0.0663349
-0.0711765
-0.0760407
-0.0808824
-0.0807014
-0.080362
-0.0849321
-0.0845023
-0.0737557
-0.0669005
-0.0638235
-0.0543213
-0.0436878
-0.0324661
-0.022172
-0.0198869
-0.0199321
-0.0215611
-0.0238461
-0.0309276
-0.0375792
-0.0435747
-0.049095
-0.0392534
-0.029276
-0.0342534
-0.0392082
-0.0441629
-0.0491629
-0.0392308
-0.0294118
-0.0346606
-0.0448869
-0.0551131
-0.0604073
-0.0657692
-0.0712444
-0.0767873
-0.0774435
-0.0682127
-0.0639367
-0.0645928
-0.0701584
-0.0806335
-0.0860407
-0.0813575
-0.0764932
-0.0814932
-0.0863801
-0.0861765
-0.0858824
-0.0804977
-0.0850226
-0.0945023
-0.0890498
-0.0836199
-0.0830996
-0.082534
-0.081991
-0.0815385
-0.0812217
-0.0809276
-0.0806561
-0.0813349
-0.0830769
-0.086267
-0.085905
-0.0857919
-0.100792
-0.112692
-0.101629
-0.0891855
-0.0905204
-0.0921041
-0.0890045
-0.0864706
-0.0794344
-0.0726923
-0.0711765
-0.0695928
-0.0679186
-0.0662217
-0.0645023
-0.0626923
-0.0657919
-0.0689367
-0.0621267
-0.0552489
-0.0533032
-0.0513575
-0.0494344
-0.0476245
-0.045905
-0.0442082
-0.0425792
-0.041086
-0.0397285
-0.0335068
-0.0274208
-0.036448
-0.0456335
-0.0350226
-0.0245475
-0.0241403
-0.0238009
-0.023552
-0.0234163
-0.0233937
-0.0234389
-0.0235294
-0.0236425
-0.0238009
-0.0240045
-0.0192534
-0.0145249
-0.0297964
-0.0301358
-0.0205657
-0.0160181
-0.021448
-0.0269005
-0.0323982
-0.0379412
-0.0335294
-0.0291403
-0.0297738
-0.0304299
-0.0311086
-0.0318326
-0.0276019
-0.0284163
-0.0393439
-0.0404299
-0.0316064
-0.0277602
-0.0289141
-0.0301358
-0.031448
-0.0228507
-0.0142987
0.00429861
0.0229411
0.0215837
0.0202036
0.0337556
0.0473529
0.0710407
0.0897511
0.113484
0.132353
0.126154
0.115385
0.0997511
0.0841629
0.0685973
0.0481448
0.0128507
-0.0123077
-0.0323756
-0.0474208
-0.0624208
-0.0773077
-0.0871041
-0.0869231
-0.0767873
-0.071629
-0.076448
-0.0762444
-0.0660181
-0.0408371
-0.00570137
0.00943439
0.0245701
0.244706
0.489842
0.814977
1.14011
1.20529
1.24052
0.560679
-0.0892308
-0.379095
-0.633914
-0.568733
-0.488552
-0.348394
-0.223258
-0.1431
-0.0778959
-0.0826471
-0.0873982
-0.0871946
-0.0869683
-0.0966968
-0.106448
-0.0962443
-0.0860633
-0.0858597
-0.0855882
-0.0902715
-0.0899774
-0.0797059
-0.0744344
-0.0741629
-0.0738461
-0.0734842
-0.0731448
-0.067828
-0.0624434
-0.0669909
-0.0666063
-0.0562896
-0.0509276
-0.0455204
-0.0400905
-0.0346606
-0.029276
-0.023914
-0.0185294
-0.00812216
-0.00271492
0.00269232
0.00809956
0.0135294
0.0140272
0.0145475
0.0299548
0.0453394
0.0507692
0.0562217
0.0666742
0.0771041
0.0924661
0.107783
0.118122
0.128507
0.133914
0.139321
0.149729
0.160204
0.165769
0.186267
0.216652
0.232036
0.237466
0.247941
0.258439
0.273914
0.289367
0.294864
0.295407
0.296041
0.291765
0.287511
0.293281
0.27914
0.255068
0.246041
0.237059
0.208213
0.23448
0.145724
0.1169
0.102964
0.0889367
0.0598643
0.0307466
0.00651585
-0.0178054
-0.0272398
-0.0367647
-0.0613348
-0.0759955
-0.0757692
-0.0755656
-0.0753167
-0.0749774
-0.079638
-0.0843439
-0.0740498
-0.0636199
-0.063009
-0.0623303
-0.0615837
-0.0598416
-0.0569909
-0.052647
-0.0518099
-0.0507239
-0.0395248
-0.0314027
-0.0312217
-0.0323302
-0.0395701
-0.046561
-0.0432352
-0.0392759
-0.0397511
-0.0448642
-0.0547058
-0.0546379
-0.0446379
-0.0496379
-0.0597058
-0.0549321
-0.0503393
-0.050837
-0.05138
-0.0619909
-0.0726244
-0.0682805
-0.0639366
-0.0645248
-0.0649547
-0.0752488
-0.0854072
-0.0804298
-0.0753167
-0.0850678
-0.0947963
-0.0895474
-0.084276
-0.0839366
-0.0835746
-0.08819
-0.0878506
-0.0775565
-0.072285
-0.0770587
-0.0819004
-0.0818778
-0.0822171
-0.0833257
-0.0909049
-0.105
-0.110701
-0.106403
-0.105
-0.10638
-0.10552
-0.108235
-0.105181
-0.092104
-0.0845248
-0.0823755
-0.0856334
-0.0891628
-0.0879411
-0.086742
-0.100452
-0.114095
-0.0977375
-0.0813121
-0.0797511
-0.0781221
-0.0814479
-0.084751
-0.0780768
-0.0713574
-0.0696153
-0.067828
-0.066018
-0.0642081
-0.0674207
-0.070656
-0.0738687
-0.0722171
-0.0557465
-0.0443212
-0.0479411
-0.0516741
-0.050294
-0.0444117
-0.0337329
-0.0281221
-0.0325791
-0.0421719
-0.0519004
-0.0567873
-0.0518325
-0.0469004
-0.0520135
-0.0473076
-0.0327375
-0.0282126
-0.0287103
-0.0442307
-0.0497963
-0.0404298
-0.0311311
-0.0368325
-0.0425112
-0.0432126
-0.0439818
-0.0448189
-0.0456786
-0.051561
-0.0575338
-0.0486198
-0.0397737
-0.0408823
-0.042104
-0.048371
-0.0547284
-0.046199
-0.0376922
-0.0391628
-0.040656
-0.0421945
-0.0387556
-0.0253619
-0.016923
-0.0183936
-0.00486419
0.0186652
0.0473078
0.0760634
0.0949096
0.108846
0.112805
0.11181
0.110996
0.105317
0.0747512
0.044276
0.0138236
-0.0165837
-0.0468778
-0.072104
-0.0723529
-0.0726018
-0.0777828
-0.0829185
-0.0830317
-0.0831448
-0.0683258
-0.0535294
-0.0436878
-0.0288235
-0.00895926
0.030905
0.115747
0.290588
0.620453
0.960272
1.31502
1.31477
0.86457
0.389389
-0.100792
-0.410995
-0.571244
-0.566471
-0.441629
-0.331765
-0.2319
-0.162059
-0.102217
-0.0923076
-0.102376
-0.107579
-0.102896
-0.0981448
-0.0983258
-0.0984841
-0.10362
-0.0988009
-0.0840271
-0.0792307
-0.0694117
-0.0745701
-0.0797058
-0.079819
-0.0798868
-0.0799321
-0.0799773
-0.0650679
-0.050181
-0.0502262
-0.0502262
-0.0552488
-0.0553167
-0.0354298
-0.020543
-0.0205656
-0.0205656
-0.0205882
-0.0206335
-0.0107013
-0.000769198
-0.00579184
-0.00583708
0.0090498
0.0239593
0.0339367
0.0389593
0.0440046
0.0539367
0.0638009
0.0737104
0.0836652
0.0886199
0.0935747
0.108529
0.123484
0.128462
0.133439
0.153348
0.173213
0.183145
0.178145
0.208145
0.2181
0.237964
0.257783
0.25767
0.257624
0.267579
0.277534
0.277489
0.277466
0.267511
0.257602
0.252692
0.242851
0.223122
0.203507
0.18405
0.164661
0.150317
0.130995
0.0966742
0.0723303
0.0479412
0.0284389
0.0138235
-0.00592759
-0.0258145
-0.0358597
-0.0410407
-0.0512443
-0.0614706
-0.0666968
-0.071923
-0.0721719
-0.0624434
-0.057647
-0.0577828
-0.0578733
-0.0628959
-0.0678281
-0.0625792
-0.0619231
-0.0654751
-0.0575792
-0.0481674
-0.0421493
-0.0361312
-0.0321493
-0.0303393
-0.0257918
-0.0226697
-0.0302941
-0.0379638
-0.0401357
-0.0418326
-0.0430995
-0.0491176
-0.0649095
-0.0708371
-0.0569909
-0.0482353
-0.0495249
-0.050724
-0.0568552
-0.0629864
-0.0591177
-0.0551131
-0.0559276
-0.0565837
-0.0620588
-0.0674661
-0.0728054
-0.083077
-0.0933032
-0.0985747
-0.0938914
-0.0891403
-0.0893213
-0.0895249
-0.0897964
-0.0852036
-0.075724
-0.0712444
-0.0820814
-0.0834842
-0.0861312
-0.0953168
-0.105928
-0.117851
-0.127896
-0.120204
-0.110362
-0.108416
-0.105995
-0.108371
-0.111244
-0.0997059
-0.0886652
-0.0881448
-0.0876923
-0.0923077
-0.0968778
-0.0964027
-0.0958145
-0.100113
-0.0994344
-0.0887783
-0.0830317
-0.0871946
-0.0913122
-0.0904525
-0.0795023
-0.063552
-0.0575113
-0.0613801
-0.0652489
-0.0641177
-0.0629412
-0.0617195
-0.0604978
-0.0592987
-0.0581901
-0.0571494
-0.0561539
-0.0552263
-0.0494118
-0.0537331
-0.0481901
-0.0427602
-0.0423982
-0.0421267
-0.0370362
-0.0320815
-0.0372625
-0.0425566
-0.0429186
-0.0434163
-0.0390724
-0.034819
-0.0305657
-0.0264706
-0.0324435
-0.0385294
-0.0347285
-0.0309729
-0.0322172
-0.0334389
-0.0346607
-0.0359503
-0.0373304
-0.0387557
-0.0452037
-0.0467421
-0.0383937
-0.0350905
-0.03681
-0.038552
-0.0403394
-0.0372172
-0.0291629
-0.026086
-0.0230091
-0.01
0.00298641
0.00601809
0.00909501
0.0222398
0.0304072
0.0685294
0.106697
0.120023
0.133552
0.11724
0.101063
0.0999774
0.0939819
0.0681222
0.0424208
0.0118552
-0.0186652
-0.0391629
-0.0595702
-0.0749095
-0.0852941
-0.075724
-0.0661539
-0.0665385
-0.0668778
-0.0621946
-0.047534
-0.022896
0.00176468
0.0214706
0.106199
0.230882
0.505543
0.845181
1.15982
1.45946
1.05405
0.443597
-0.03181
-0.482172
-0.572534
-0.607896
-0.493303
-0.358756
-0.239163
-0.114525
-0.0898643
-0.065181
-0.0705204
-0.0758597
-0.0861539
-0.0964253
-0.0867421
-0.0770815
-0.0773756
-0.0776471
-0.0779186
-0.07819
-0.0684842
-0.0587557
-0.058914
-0.0590272
-0.0591403
-0.059276
-0.0594118
-0.0595249
-0.0596154
-0.0547059
-0.0447964
-0.0398869
-0.0349774
-0.0300679
-0.0251584
-0.0152489
-0.00538461
-0.000497732
-0.000588229
-0.000656104
0.00429865
0.0092534
0.0142082
0.0192081
0.0192081
0.0291855
0.0441403
0.054095
0.0490498
0.0740498
0.079095
0.099095
0.11905
0.129027
0.139027
0.13905
0.139095
0.154118
0.16914
0.174208
0.184276
0.204276
0.224253
0.239276
0.249344
0.254434
0.264502
0.284548
0.299615
0.299729
0.304864
0.315023
0.315249
0.305543
0.295882
0.281267
0.271697
0.267149
0.25276
0.233529
0.199412
0.165407
0.136312
0.112127
0.0879412
0.063733
0.0344118
0.00497737
-0.00461539
-0.0143665
-0.0391855
-0.0590724
-0.0590272
-0.0590272
-0.0640045
-0.0689593
-0.0738914
-0.0788235
-0.0737783
-0.0686878
-0.0684842
-0.0681674
-0.0677376
-0.0669005
-0.0605204
-0.0528959
-0.0537104
-0.0530996
-0.0411312
-0.0310181
-0.0286878
-0.0285068
-0.030362
-0.0326471
-0.0301131
-0.0270815
-0.0284615
-0.0293665
-0.0347738
-0.0401584
-0.0404751
-0.0458145
-0.0562217
-0.0618552
-0.0576471
-0.0534615
-0.0542534
-0.055
-0.060724
-0.0664254
-0.0620588
-0.0575566
-0.0678959
-0.0730769
-0.0781674
-0.0781901
-0.0781222
-0.0829638
-0.0877828
-0.0876018
-0.0873982
-0.0871493
-0.0868778
-0.0866063
-0.0863801
-0.0811991
-0.0760407
-0.0759276
-0.0758371
-0.0808597
-0.0871041
-0.0845928
-0.0836199
-0.103937
-0.11414
-0.113643
-0.110091
-0.103914
-0.0964932
-0.0983258
-0.10043
-0.0929412
-0.0859502
-0.0843665
-0.0830996
-0.0870136
-0.0909276
-0.084819
-0.0835747
-0.0922398
-0.0909276
-0.0795928
-0.0731901
-0.0717195
-0.0751584
-0.0785294
-0.0719005
-0.0652489
-0.0635294
-0.0617647
-0.0599774
-0.0581448
-0.056267
-0.0543892
-0.0575566
-0.0607919
-0.0541403
-0.0475566
-0.0409955
-0.0345476
-0.0431901
-0.0520589
-0.0461539
-0.0403847
-0.0397286
-0.0392082
-0.0388236
-0.0385747
-0.0334616
-0.0283937
-0.0333711
-0.0385295
-0.0388462
-0.0392082
-0.0346154
-0.0300453
-0.0355204
-0.0361087
-0.0267874
-0.0224661
-0.0231448
-0.0238462
-0.0295928
-0.0353847
-0.0311991
-0.0320136
-0.037896
-0.0389141
-0.0400227
-0.0361539
-0.0323077
-0.0335068
-0.0347964
-0.0311765
-0.0275792
-0.0239819
-0.0203847
-0.00680999
0.00674205
0.0252715
0.0338235
0.0324208
0.0410181
0.0795927
0.103213
0.116923
0.120769
0.109728
0.103778
0.0979185
0.0821719
0.0615837
0.0361312
0.00074658
-0.0195475
-0.0347512
-0.0548643
-0.0749095
-0.0799548
-0.08
-0.0800453
-0.0800679
-0.0800227
-0.0749548
-0.0599548
-0.0449774
-0.0299322
-0.00984165
0.000248842
0.0253393
0.295407
0.575453
0.920543
1.21066
1.19066
1.03561
0.370588
-0.194412
-0.459389
-0.629344
-0.544344
-0.449389
-0.319367
-0.209299
-0.129208
-0.0791177
-0.0790498
-0.0839593
-0.0988009
-0.103688
-0.0936652
-0.0886199
-0.0835068
-0.078371
-0.0832353
-0.0881222
-0.0830317
-0.0779186
-0.0727828
-0.0676018
-0.0723756
-0.0771493
-0.0769231
-0.0766742
-0.0764027
-0.0711538
-0.0609276
-0.0557014
-0.0554751
-0.0452036
-0.0448869
-0.029638
-0.014457
-0.0142308
-0.0139593
-0.00866516
-0.00334841
-0.00305429
-0.0027828
-0.00246605
-0.00210406
0.0132127
0.0284842
0.0387557
0.0490724
0.0494118
0.0547511
0.0750453
0.0903394
0.0956787
0.101041
0.106403
0.116742
0.127036
0.132353
0.137738
0.158122
0.183484
0.198824
0.20914
0.21948
0.229842
0.250204
0.270566
0.27595
0.281357
0.286787
0.29224
0.29776
0.298348
0.28905
0.279796
0.275498
0.271222
0.257127
0.243167
0.219321
0.19552
0.176652
0.152738
0.123801
0.0947964
0.0707014
0.0464932
0.0221041
-0.00237557
-0.0219005
-0.0365385
-0.0412896
-0.0460407
-0.0457692
-0.0504977
-0.0652262
-0.0699774
-0.0547285
-0.0494118
-0.0590272
-0.0635747
-0.0630317
-0.0624661
-0.06181
-0.0598869
-0.0616516
-0.0568778
-0.0408145
-0.0298416
-0.0245701
-0.0223076
-0.0226017
-0.0241176
-0.0214253
-0.0183484
-0.0298416
-0.0357466
-0.0411764
-0.0412896
-0.0412443
-0.051267
-0.0613348
-0.0514932
-0.0417421
-0.0470136
-0.0523982
-0.0528959
-0.0534389
-0.0540724
-0.0547285
-0.0552941
-0.0557919
-0.0662217
-0.0765385
-0.0767873
-0.0768552
-0.0817647
-0.086629
-0.086448
-0.0861765
-0.0807919
-0.0754073
-0.0800453
-0.0846606
-0.0792987
-0.0738914
-0.0784389
-0.0830091
-0.0876697
-0.0924661
-0.0875792
-0.0832127
-0.0899321
-0.0982353
-0.0980091
-0.099095
-0.104027
-0.11629
-0.11629
-0.109253
-0.101425
-0.0982127
-0.0952715
-0.0928281
-0.0908597
-0.0843439
-0.078009
-0.0867873
-0.0955656
-0.0943213
-0.0929864
-0.0865385
-0.0799774
-0.0783711
-0.0767421
-0.0750905
-0.0733711
-0.0715837
-0.0697511
-0.0678733
-0.0659955
-0.0641176
-0.0622172
-0.0653167
-0.0634841
-0.0517194
-0.0450226
-0.0433936
-0.0468099
-0.0552714
-0.0588913
-0.0526696
-0.046561
-0.0455882
-0.0447511
-0.0440723
-0.043552
-0.0381674
-0.0378732
-0.0427149
-0.0377375
-0.0328732
-0.0380316
-0.0432352
-0.0434841
-0.0437782
-0.0391628
-0.0345927
-0.0349773
-0.0353845
-0.0358823
-0.0364705
-0.0321266
-0.0278054
-0.0384841
-0.049276
-0.0452036
-0.0411538
-0.0420814
-0.0430316
-0.0440271
-0.0451131
-0.0412896
-0.0375113
-0.0387556
-0.0399774
-0.0412443
-0.0375565
-0.028914
-0.0152715
-0.00162894
0.00192308
0.00538462
0.018914
0.032534
0.0611991
0.0899095
0.103688
0.117579
0.116584
0.100701
0.0899322
0.0792761
0.0586878
0.0382127
-0.00710405
-0.0423755
-0.052647
-0.0628733
-0.0780317
-0.0931221
-0.0881221
-0.0830995
-0.0781448
-0.0732353
-0.0682579
-0.0632353
-0.0582126
-0.0382126
-0.00323524
0.0717421
0.186765
0.426787
0.776765
1.1017
1.40663
1.16658
0.586539
0.0964028
-0.353778
-0.523914
-0.589005
-0.514072
-0.399118
-0.28914
-0.18414
-0.134095
-0.0990271
-0.0940497
-0.0941402
-0.0942307
-0.0943212
-0.104366
-0.104389
-0.099457
-0.0945475
-0.089638
-0.0847058
-0.0897285
-0.0947285
-0.0897058
-0.0846606
-0.0845927
-0.0845022
-0.079457
-0.0744344
-0.0643665
-0.0542308
-0.059095
-0.0640045
-0.0539819
-0.0439819
-0.0389593
-0.0338914
-0.0338009
-0.0287104
-0.0186199
-0.0134842
-0.0182806
-0.0131448
0.00690044
0.0169683
0.0170588
0.0221493
0.0322398
0.0372851
0.0422851
0.0473303
0.0524208
0.0625113
0.0726018
0.0877149
0.102851
0.108009
0.108167
0.133235
0.158235
0.163258
0.168303
0.178371
0.188462
0.208529
0.228575
0.238643
0.248733
0.248846
0.248982
0.254095
0.259253
0.259502
0.259774
0.270068
0.280407
0.275792
0.266222
0.251697
0.237285
0.222986
0.198778
0.174661
0.150543
0.126358
0.102104
0.0777829
0.0433937
0.00893672
-0.000769168
-0.00567866
-0.0206108
-0.0355655
-0.0505882
-0.0656787
-0.0657465
-0.0557918
-0.0508144
-0.0608144
-0.0658144
-0.0708144
-0.0707918
-0.0706787
-0.0754071
-0.0797963
-0.0736877
-0.0665157
-0.0577601
-0.0475338
-0.0409275
-0.0354298
-0.0226018
-0.0120588
-0.0186425
-0.026018
-0.0337103
-0.0411311
-0.0480995
-0.0546832
-0.0609049
-0.0619908
-0.053009
-0.0489818
-0.049932
-0.0508596
-0.0567646
-0.057647
-0.0484162
-0.0440271
-0.0445022
-0.0498642
-0.0601131
-0.0653167
-0.0704976
-0.075656
-0.0807918
-0.0859502
-0.0811311
-0.0763121
-0.0765158
-0.086742
-0.0870135
-0.0823981
-0.0780542
-0.0789592
-0.0811086
-0.0897963
-0.0999999
-0.106742
-0.111923
-0.125
-0.135995
-0.119955
-0.103054
-0.101787
-0.0994796
-0.102692
-0.106403
-0.0955882
-0.085
-0.0896154
-0.0941855
-0.0937104
-0.0931674
-0.0975565
-0.1019
-0.101199
-0.0954977
-0.084819
-0.0790498
-0.07819
-0.0773077
-0.0814027
-0.0854525
-0.079457
-0.0733937
-0.0722624
-0.0710859
-0.0748642
-0.0786651
-0.0724887
-0.0762669
-0.0850452
-0.0738914
-0.0627601
-0.0665836
-0.0703619
-0.0641855
-0.0580995
-0.0521266
-0.0462443
-0.0504524
-0.0547963
-0.054276
-0.0538913
-0.0486425
-0.043552
-0.0485972
-0.0538687
-0.0443664
-0.0349321
-0.0405429
-0.0462217
-0.0469683
-0.0478732
-0.0489366
-0.0500678
-0.0512217
-0.0523755
-0.0485972
-0.0449321
-0.0463348
-0.0477602
-0.0492307
-0.0507918
-0.0474434
-0.0441402
-0.0458597
-0.0475792
-0.0493212
-0.0461086
-0.0379185
-0.0247059
-0.00647058
-0.00323529
-7.45058e-09
0.0132127
0.0264706
0.0497964
0.0731674
0.0915837
0.110068
0.103665
0.0974208
0.0913122
0.0852715
0.069276
0.0433937
0.0126923
-0.0128959
-0.0333936
-0.0538688
-0.0693439
-0.0797737
-0.0801583
-0.0805882
-0.0760633
-0.0715611
-0.0670362
-0.0574434
-0.0428054
-0.0232805
-0.00382351
0.0506788
0.115226
0.399774
0.744321
1.08385
1.42335
1.08285
0.62733
0.171719
-0.283937
-0.46948
-0.309932
-0.530385
-0.415837
-0.301335
-0.186878
-0.132376
-0.082828
-0.0882805
-0.093733
-0.0991855
-0.104638
-0.10009
-0.095543
-0.0910181
-0.0864932
-0.0819231
-0.0772624
-0.0775792
-0.0779185
-0.0783032
-0.0786878
-0.0740272
-0.0693439
-0.0696606
-0.0699774
-0.0653168
-0.0606561
-0.0659502
-0.0612896
-0.0466968
-0.0420362
-0.0423077
-0.0426018
-0.0379186
-0.0282353
-0.018552
-0.0138462
-0.00911767
-0.00438916
0.00033935
0.00506786
0.00979636
0.0195701
0.0243665
0.039095
0.0537783
0.0585294
0.0633484
0.0631448
0.0629185
0.0826697
0.102398
0.117127
0.131855
0.136606
0.14138
0.161154
0.17095
0.175769
0.185566
0.200339
0.215091
0.229842
0.239661
0.244525
0.254344
0.264118
0.268914
0.273756
0.278688
0.273733
0.268756
0.268756
0.253869
0.234095
0.219412
0.204819
0.190317
0.175905
0.146493
0.117081
0.102624
0.0881222
0.063552
0.0338688
0.0140272
-0.00595023
-0.0160181
-0.0261765
-0.0413801
-0.0566063
-0.0518552
-0.0471267
-0.0473756
-0.0476018
-0.0578054
-0.0679638
-0.0530543
-0.0380543
-0.0429638
-0.0476244
-0.046991
-0.0450453
-0.0415158
-0.0364706
-0.0299095
-0.0199095
-0.00699098
-0.00615387
-0.0173982
-0.0245023
-0.0259276
-0.0284389
-0.0254978
-0.0220362
-0.0230769
-0.0239367
-0.0296606
-0.0355204
-0.0364932
-0.0375566
-0.0436878
-0.0497964
-0.0458597
-0.0418552
-0.0427602
-0.058552
-0.0641855
-0.0596833
-0.0550905
-0.0603846
-0.0656335
-0.0658145
-0.0659276
-0.0659955
-0.0660634
-0.0711538
-0.0762444
-0.0713801
-0.0665611
-0.071629
-0.0769005
-0.0772625
-0.0778054
-0.0736199
-0.0706787
-0.0740498
-0.0791177
-0.090362
-0.100453
-0.104005
-0.104796
-0.108371
-0.106041
-0.0932353
-0.0857919
-0.0887783
-0.0923303
-0.0913349
-0.0906561
-0.0851584
-0.0795702
-0.0788914
-0.0781222
-0.0822625
-0.0863801
-0.0804751
-0.079457
-0.0833937
-0.0773529
-0.0712896
-0.0651358
-0.0588914
-0.0676018
-0.0762896
-0.0649774
-0.0536425
-0.0522625
-0.0508597
-0.054457
-0.0580543
-0.0466742
-0.0353394
-0.0440272
-0.0528055
-0.0466969
-0.0406788
-0.0397512
-0.0389141
-0.0431674
-0.0476018
-0.0422172
-0.0369231
-0.0367195
-0.0366516
-0.0317421
-0.0269457
-0.0272625
-0.0276471
-0.0331222
-0.0387331
-0.034457
-0.030181
-0.0309276
-0.0317195
-0.0325566
-0.0335068
-0.0345475
-0.035543
-0.0365159
-0.0376018
-0.0387783
-0.0450227
-0.0512896
-0.0475792
-0.0439593
-0.0404299
-0.0369231
-0.0334163
-0.0299322
-0.0264932
-0.0181222
0.000180971
0.0134615
0.0117647
0.0151131
0.0284841
0.0468778
0.0702715
0.0887783
0.102421
0.111109
0.109842
0.103688
0.0926923
0.0768778
0.0562217
0.0255882
-0.0049774
-0.0254299
-0.0507692
-0.0610407
-0.071267
-0.0814706
-0.091629
-0.0917195
-0.0817647
-0.0768552
-0.071991
-0.0570815
-0.0671267
-0.017172
0.00276016
0.042647
0.107511
0.392398
0.692308
1.07222
1.33713
1.08701
0.751878
0.146765
-0.338348
-0.528529
-0.628733
-0.533891
-0.423959
-0.294027
-0.189186
-0.119412
-0.0796154
-0.0797738
-0.0798869
-0.0849774
-0.0900679
-0.090181
-0.0902715
-0.0952941
-0.0953394
-0.0854299
-0.0804977
-0.085543
-0.090543
-0.0854977
-0.080543
-0.0756787
-0.0707466
-0.070724
-0.0706561
-0.0655656
-0.0605204
-0.0604977
-0.055362
-0.0501584
-0.0450453
-0.04
-0.0349321
-0.0298416
-0.0247511
-0.0196606
-0.00959277
0.000452484
0.00549773
0.010543
0.0156109
0.0207013
0.0258145
0.0309728
0.0361538
0.0462896
0.0613575
0.0714027
0.0764706
0.0865837
0.0967194
0.106833
0.121923
0.132014
0.137104
0.147195
0.167285
0.182398
0.197534
0.20267
0.207805
0.227919
0.248009
0.258122
0.268281
0.273507
0.273756
0.283959
0.299163
0.304457
0.304819
0.300204
0.295633
0.291131
0.286719
0.257443
0.228281
0.219163
0.205068
0.175973
0.146855
0.112692
0.0784615
0.0591176
0.0396154
0.0199774
0.000271484
-0.0195249
-0.0343891
-0.0393213
-0.0492534
-0.0641855
-0.0741629
-0.0691403
-0.064095
-0.0690272
-0.0738914
-0.0788009
-0.0785068
-0.0681448
-0.0625792
-0.0616968
-0.0595249
-0.0559955
-0.0507919
-0.0444118
-0.039095
-0.0402715
-0.0392308
-0.0304072
-0.0274434
-0.0299321
-0.0469683
-0.0535294
-0.0395701
-0.0252036
-0.0306335
-0.035905
-0.0411991
-0.0465385
-0.0469457
-0.0474661
-0.0580769
-0.0688009
-0.0646606
-0.060543
-0.0613801
-0.0621267
-0.0678281
-0.0734616
-0.0639819
-0.0543439
-0.0595475
-0.0696606
-0.0797059
-0.0846833
-0.0795701
-0.0794118
-0.0942308
-0.0990498
-0.0888688
-0.0836878
-0.0835068
-0.0833484
-0.0832579
-0.0832806
-0.0833937
-0.0835747
-0.0794344
-0.076629
-0.0852941
-0.0955883
-0.100928
-0.110272
-0.117534
-0.107127
-0.0952036
-0.0922398
-0.089276
-0.0917195
-0.0946154
-0.0880091
-0.0817195
-0.0806788
-0.079638
-0.0785747
-0.0774435
-0.0811765
-0.0848416
-0.0884616
-0.0920815
-0.0807014
-0.0692308
-0.0676697
-0.0710634
-0.0794118
-0.0777602
-0.0611312
-0.049457
-0.0477149
-0.0459502
-0.0491855
-0.0524434
-0.050724
-0.0490724
-0.0524887
-0.0560633
-0.0497964
-0.0435973
-0.0425113
-0.0416063
-0.0408597
-0.0402715
-0.0348416
-0.0295249
-0.0293212
-0.0342308
-0.0392534
-0.0343665
-0.0295701
-0.0398416
-0.050181
-0.0406109
-0.0311312
-0.0316742
-0.0322398
-0.0328733
-0.0335973
-0.0294118
-0.0252489
-0.031086
-0.0369457
-0.0378507
-0.0388009
-0.0297964
-0.0258597
-0.041991
-0.04819
-0.0394797
-0.0358145
-0.0371493
-0.0385068
-0.0449095
-0.0414253
-0.0280091
-0.0145475
0.00895927
0.0124434
0.0159276
0.024457
0.033009
0.0515837
0.0702036
0.0938461
0.117534
0.12138
0.120362
0.10448
0.088733
0.0680769
0.0475113
0.0171041
-0.0131674
-0.0283937
-0.0435973
-0.0587783
-0.073914
-0.0789593
-0.0839819
-0.0790498
-0.0741177
-0.0691403
-0.0641177
-0.0540724
-0.0340498
-0.00404979
0.0209502
0.0459502
0.20595
0.505973
0.836018
1.20104
1.21606
1.00111
0.546109
-0.0389367
-0.363959
-0.578959
-0.568937
-0.473891
-0.363869
-0.243869
-0.163846
-0.0938009
-0.083733
-0.0836425
-0.0885747
-0.0985294
-0.0984842
-0.0934389
-0.0884163
-0.0834163
-0.0833484
-0.0832127
-0.0830769
-0.0829638
-0.0778959
-0.072828
-0.0726923
-0.0725113
-0.0723077
-0.0720814
-0.0718552
-0.071629
-0.0614027
-0.0511991
-0.0460407
-0.040905
-0.0357466
-0.0255204
-0.0152489
-0.00999999
-0.00977375
-0.0095475
-0.00429863
0.000995485
0.00631222
0.0115837
0.01181
0.0171041
0.0274661
0.0327376
0.0379186
0.0481448
0.0584163
0.0687104
0.0790271
0.0943213
0.109593
0.114887
0.125204
0.135498
0.145769
0.156041
0.166312
0.181652
0.197036
0.21233
0.227579
0.237873
0.24819
0.258507
0.268824
0.279118
0.289434
0.294819
0.300272
0.300837
0.296448
0.282104
0.272783
0.268484
0.259276
0.245158
0.226131
0.197195
0.173258
0.144299
0.115294
0.0912443
0.0671267
0.0429412
0.0235973
0.00909503
-0.00542986
-0.0199774
-0.0346606
-0.0494344
-0.0542308
-0.0590498
-0.0638462
-0.0636199
-0.068371
-0.0730995
-0.0678054
-0.0624434
-0.0619231
-0.061267
-0.0604977
-0.0590045
-0.0561538
-0.0518099
-0.0507918
-0.0497058
-0.0396379
-0.0316515
-0.0263122
-0.0224207
-0.0294796
-0.0365384
-0.0382126
-0.0393891
-0.0400226
-0.0403393
-0.0453846
-0.0504751
-0.0456561
-0.0408371
-0.0460859
-0.0514932
-0.0520135
-0.0526244
-0.0583031
-0.0639592
-0.0645927
-0.065181
-0.0657013
-0.0661312
-0.0664253
-0.0665837
-0.0716289
-0.0765837
-0.0814706
-0.0862896
-0.0860633
-0.0807918
-0.0754751
-0.0751357
-0.0747737
-0.0843665
-0.0939593
-0.0885973
-0.0832805
-0.0830317
-0.0828959
-0.0878507
-0.0940271
-0.0915158
-0.0904525
-0.105837
-0.120837
-0.115226
-0.106991
-0.106267
-0.104231
-0.106109
-0.10819
-0.100498
-0.0932579
-0.0914253
-0.0899321
-0.0886651
-0.0874434
-0.0861991
-0.0848416
-0.0883936
-0.0919004
-0.085362
-0.0787556
-0.0770814
-0.0753846
-0.0736651
-0.071923
-0.0701583
-0.0683484
-0.0664932
-0.0646153
-0.0627149
-0.065837
-0.0690044
-0.0622171
-0.055475
-0.0538008
-0.0521945
-0.045656
-0.0392081
-0.0329185
-0.0267873
-0.030837
-0.0350452
-0.0394117
-0.043914
-0.038552
-0.0333031
-0.0431447
-0.0530316
-0.0379637
-0.033009
-0.0331673
-0.0333936
-0.0336877
-0.0340271
-0.034389
-0.0348189
-0.0303393
-0.0259275
-0.031561
-0.0372171
-0.0378958
-0.0386198
-0.0393891
-0.0401809
-0.046018
-0.0469456
-0.0379637
-0.0340271
-0.035113
-0.041199
-0.0473303
-0.0385746
-0.0298868
-0.031199
-0.0325112
-0.0238235
-0.0151357
0.00350685
0.0221041
0.0157467
0.0194797
0.053258
0.0820815
0.10586
0.124887
0.119005
0.11319
0.102466
0.0868779
0.0714254
0.0460634
0.0157919
-0.0093891
-0.0295022
-0.0445248
-0.0595022
-0.0694796
-0.0694344
-0.0693665
-0.069276
-0.0691403
-0.0739593
-0.0638688
-0.0438688
-0.0288688
-0.0138688
0.0111539
0.0361991
0.311199
0.606176
0.931222
1.25127
1.1712
1.04609
0.471063
-0.0738914
-0.353869
-0.583869
-0.528869
-0.468869
-0.353846
-0.248801
-0.168756
-0.10871
-0.0886652
-0.0835973
-0.0985068
-0.108416
-0.103348
-0.0983258
-0.0983032
-0.0982579
-0.0932127
-0.0881674
-0.0831222
-0.0780317
-0.077896
-0.0777602
-0.0776245
-0.0774661
-0.0722851
-0.0671267
-0.071991
-0.0718552
-0.0617195
-0.0565611
-0.0563801
-0.0561539
-0.050905
-0.0406787
-0.0304525
-0.0252263
-0.015
-0.00979638
-0.00461538
0.000610873
0.00588235
0.0011086
-0.0037104
0.00651584
0.0167421
0.0269683
0.0371946
0.0424434
0.0477149
0.0579638
0.0731901
0.0933937
0.108643
0.113891
0.11914
0.129412
0.139661
0.144887
0.155113
0.170317
0.18552
0.200769
0.211018
0.216244
0.231448
0.251629
0.261855
0.262127
0.262398
0.26267
0.262986
0.268348
0.273824
0.269389
0.254887
0.240385
0.226063
0.2369
0.182873
0.158959
0.14
0.120995
0.0919231
0.0627602
0.0435521
0.0242534
0.0047964
-0.0147737
-0.0393891
-0.0540724
-0.0588688
-0.063733
-0.0635972
-0.0634389
-0.0732579
-0.0831448
-0.0731221
-0.0630316
-0.057828
-0.0525565
-0.0572172
-0.0617647
-0.056199
-0.0543891
-0.0612443
-0.0516741
-0.0307013
-0.0250679
-0.0299774
-0.0324661
-0.0274208
-0.0237104
-0.0311086
-0.038371
-0.0404072
-0.041923
-0.043009
-0.0438235
-0.044457
-0.0500905
-0.0558371
-0.0567873
-0.0577828
-0.0536651
-0.0494796
-0.0502714
-0.0509728
-0.051561
-0.0520135
-0.0623303
-0.0725339
-0.072647
-0.0727149
-0.0777375
-0.0827149
-0.082647
-0.0826017
-0.0776244
-0.0726696
-0.0776923
-0.0827375
-0.0878506
-0.0880995
-0.0785294
-0.0744117
-0.0809954
-0.0890723
-0.0935972
-0.0995474
-0.110543
-0.11905
-0.120204
-0.119321
-0.112195
-0.104661
-0.102172
-0.100181
-0.10371
-0.107783
-0.102127
-0.0965384
-0.0859276
-0.0902036
-0.0943891
-0.098552
-0.102692
-0.0967873
-0.090837
-0.0898868
-0.088914
-0.0878732
-0.0867646
-0.0806108
-0.0744343
-0.0732579
-0.0720361
-0.0707239
-0.0693665
-0.068009
-0.0666742
-0.0653619
-0.0640723
-0.0677827
-0.0664932
-0.0552488
-0.049095
-0.0530316
-0.0570814
-0.0611311
-0.0654524
-0.0599094
-0.0544796
-0.0491628
-0.0440044
-0.0490045
-0.054095
-0.0492759
-0.0496153
-0.0600904
-0.0607239
-0.0514705
-0.047285
-0.0481674
-0.0541176
-0.0601357
-0.0462443
-0.0324434
-0.0386425
-0.0448416
-0.0460633
-0.047285
-0.048552
-0.0499095
-0.0513122
-0.0527828
-0.0443665
-0.0359502
-0.042466
-0.0490724
-0.0557692
-0.0574887
-0.0441855
-0.0308823
-0.00762439
0.000633545
-0.00108591
0.0072625
0.0256788
0.0441403
0.0626471
0.0911992
0.119819
0.118552
0.0973982
0.0863575
0.0804525
0.0596607
0.0389593
0.0133711
-0.0121493
-0.0326697
-0.05319
-0.0636425
-0.0740498
-0.084457
-0.0898642
-0.0802715
-0.0706787
-0.066086
-0.0614932
-0.0519004
-0.0373077
-0.00776014
0.0367647
0.146312
0.31086
0.645407
0.974955
1.29448
1.309
0.763529
0.248009
-0.207534
-0.488077
-0.568597
-0.549072
-0.429525
-0.305
-0.18052
-0.116063
-0.0915837
-0.0820588
-0.0874661
-0.0929186
-0.0934163
-0.0938914
-0.0943439
-0.094819
-0.0903167
-0.0857918
-0.0862443
-0.0866968
-0.0821493
-0.0775792
-0.0729864
-0.0683937
-0.0688009
-0.0691855
-0.0695475
-0.0648869
-0.0602036
-0.0554977
-0.0507692
-0.046086
-0.0414254
-0.0367195
-0.031991
-0.0222851
-0.0126018
-0.00796383
-0.00337107
0.00124431
0.00590495
0.0106108
0.0153393
0.0150452
0.0147737
0.0295701
0.0392986
0.048914
0.0585294
0.06819
0.0778959
0.0926244
0.107308
0.116946
0.126652
0.136425
0.146199
0.155973
0.160724
0.165452
0.180204
0.194955
0.209661
0.224344
0.229095
0.228914
0.248733
0.258529
0.258258
0.257964
0.262738
0.267579
0.262557
0.257602
0.242647
0.227738
0.217919
0.208167
0.193462
0.173869
0.149412
0.125023
0.105566
0.0810181
0.0564027
0.0366968
0.0119004
-0.00300907
-0.0130317
-0.0231222
-0.0382806
-0.0484842
-0.053733
-0.0590498
-0.0594118
-0.0597285
-0.055
-0.0502489
-0.0554751
-0.0606788
-0.0558371
-0.0508597
-0.0456787
-0.04
-0.0435747
-0.0456109
-0.0361313
-0.0302263
-0.029276
-0.0207919
-0.014638
-0.015543
-0.017715
-0.0252715
-0.0328055
-0.0298643
-0.0264254
-0.0274887
-0.0282806
-0.0339819
-0.0397059
-0.0355204
-0.0315159
-0.0426471
-0.0538009
-0.0449774
-0.036086
-0.0421041
-0.0480543
-0.0489593
-0.0497285
-0.0503846
-0.0509276
-0.0513575
-0.0516968
-0.0569683
-0.0621493
-0.0672851
-0.0723982
-0.0774887
-0.0826018
-0.0777376
-0.0728733
-0.0730543
-0.0733258
-0.0736652
-0.0740045
-0.0698416
-0.0665611
-0.0695023
-0.0788235
-0.0891855
-0.0954299
-0.099638
-0.110769
-0.119977
-0.102534
-0.0848643
-0.0823303
-0.0802941
-0.0838009
-0.0877376
-0.0820815
-0.0763801
-0.0756788
-0.0749095
-0.0790724
-0.0831448
-0.0771267
-0.0711312
-0.0751584
-0.0741177
-0.0630091
-0.0568552
-0.0606561
-0.064457
-0.0682806
-0.0670136
-0.0557014
-0.0493892
-0.048077
-0.0467421
-0.050362
-0.0539367
-0.052534
-0.0513123
-0.0502263
-0.0442082
-0.033258
-0.0273756
-0.0266064
-0.0409955
-0.045543
-0.0352263
-0.0250453
-0.0249774
-0.025
-0.0251358
-0.0253394
-0.0306109
-0.0359503
-0.0363349
-0.0368326
-0.0324661
-0.0281448
-0.0288236
-0.0296381
-0.0305204
-0.0314028
-0.0273304
-0.0233032
-0.0242761
-0.0253168
-0.0264254
-0.027534
-0.0337105
-0.0400227
-0.0364028
-0.0328281
-0.0343213
-0.0358145
-0.0373077
-0.0388462
-0.0354525
-0.0221494
-0.00891407
0.00434386
0.0176244
0.0209049
0.0242081
0.0375565
0.0509502
0.0844344
0.113032
0.116652
0.120339
0.104208
0.0882805
0.0774887
0.0667873
0.0361765
0.0156561
-0.00477376
-0.0251358
-0.0404299
-0.0556335
-0.0757692
-0.0858597
-0.0859276
-0.0860634
-0.076267
-0.0664706
-0.061629
-0.0467195
-0.0217647
-0.00185522
0.00800904
0.127896
0.327828
0.60276
0.91267
1.14756
1.34742
0.902285
0.222149
-0.203054
-0.553326
-0.593507
-0.553597
-0.433665
-0.30371
-0.198801
-0.0939366
-0.0890498
-0.0791403
-0.0842081
-0.0892534
-0.0993213
-0.109412
-0.099457
-0.089457
-0.0895023
-0.0895701
-0.0845701
-0.0795023
-0.0744118
-0.0693213
-0.069276
-0.0692534
-0.0691855
-0.0690724
-0.0689367
-0.0737783
-0.0886199
-0.0884615
-0.0632805
-0.0480996
-0.0429186
-0.0377149
-0.0374661
-0.032172
-0.0218552
-0.011629
-0.00144798
0.00375565
0.00398189
0.00425338
0.00457012
0.00488686
0.0102036
0.0155203
0.0108145
0.0260633
0.0512896
0.0565611
0.0568778
0.0871945
0.107511
0.112805
0.118077
0.123371
0.128688
0.149027
0.169389
0.174728
0.185068
0.21043
0.230769
0.241086
0.251403
0.256719
0.262059
0.272421
0.28776
0.3031
0.313484
0.313914
0.314412
0.314977
0.310588
0.296244
0.281968
0.26776
0.248688
0.234729
0.210792
0.181878
0.147896
0.113846
0.0897285
0.070543
0.0512443
0.0318778
0.0174208
0.00287329
-0.0167647
-0.0364706
-0.0512217
-0.0610181
-0.0508597
-0.040724
-0.045543
-0.0503168
-0.0600679
-0.0697511
-0.0593439
-0.0488688
-0.0533484
-0.0572851
-0.0502941
-0.0420362
-0.0373756
-0.031629
-0.0249548
-0.0203394
-0.0138462
-0.00927604
-0.0162896
-0.0234842
-0.0304978
-0.0370362
-0.0330543
-0.0286878
-0.0289367
-0.0291629
-0.0343666
-0.0396833
-0.0401132
-0.0406788
-0.0463801
-0.0521267
-0.0478733
-0.0435521
-0.0491629
-0.0597059
-0.0701584
-0.0754978
-0.0707014
-0.0657919
-0.0657919
-0.0707014
-0.075543
-0.0803394
-0.0851358
-0.0899774
-0.094819
-0.0945928
-0.0943213
-0.0940272
-0.0937331
-0.0984842
-0.103348
-0.0983032
-0.0937331
-0.0896607
-0.0870136
-0.100815
-0.116131
-0.122534
-0.126109
-0.131968
-0.130837
-0.118122
-0.110226
-0.11224
-0.114774
-0.112851
-0.111335
-0.105136
-0.0990272
-0.0979865
-0.0968779
-0.100701
-0.104434
-0.0980769
-0.0966969
-0.105294
-0.103824
-0.0922851
-0.0856788
-0.0840046
-0.0873077
-0.0905883
-0.0838462
-0.0770589
-0.0702263
-0.0633711
-0.0615159
-0.0596607
-0.0627828
-0.0659276
-0.0641856
-0.062534
-0.0559729
-0.0495475
-0.0481674
-0.0470136
-0.0460181
-0.045181
-0.0395023
-0.0339819
-0.0385973
-0.0433258
-0.0431674
-0.0430543
-0.0379864
-0.0380769
-0.0483258
-0.0486878
-0.0391403
-0.0345928
-0.0350452
-0.0355656
-0.0361539
-0.0368326
-0.0326018
-0.0283937
-0.0291855
-0.0300679
-0.0360181
-0.0419457
-0.042896
-0.0489367
-0.0550679
-0.046267
-0.0375113
-0.0387783
-0.0400679
-0.0414254
-0.0428507
-0.0293439
-0.0158824
0.00260179
0.0211086
0.019638
0.0232353
0.0418778
0.0605882
0.0793665
0.0982353
0.117172
0.126199
0.110362
0.0946832
0.0841402
0.0686878
0.0483031
0.0229864
-0.00221723
-0.022353
-0.0424435
-0.0574661
-0.0674661
-0.0724435
-0.0773982
-0.0773982
-0.0674435
-0.0624661
-0.0624661
-0.0574661
-0.0474661
-0.0174887
0.012466
0.127443
0.247443
0.567443
0.887443
1.22242
1.46238
0.83733
0.242285
-0.192805
-0.547919
-0.572986
-0.568032
-0.448122
-0.328258
-0.208371
-0.118462
-0.0934842
-0.0734842
-0.0834842
-0.0934615
-0.0934389
-0.0934615
-0.0934842
-0.0885068
-0.0785747
-0.0736199
-0.0785973
-0.083552
-0.0835068
-0.0834841
-0.0784841
-0.0734389
-0.0683484
-0.0632353
-0.0630995
-0.0629185
-0.0676923
-0.0675566
-0.0574661
-0.0523529
-0.0472172
-0.0370815
-0.0419457
-0.01681
-0.0116742
-0.0115385
-0.0114027
-0.00124435
0.00893665
0.014095
0.019276
0.0145249
0.00977375
0.025
0.0402036
0.0503394
0.0604525
0.0706109
0.0807919
0.0909729
0.101154
0.111335
0.121516
0.136719
0.146946
0.162172
0.172421
0.17267
0.182896
0.203122
0.223303
0.238439
0.24862
0.258846
0.26905
0.279231
0.289412
0.299593
0.304864
0.305226
0.305679
0.301222
0.286787
0.272398
0.2531
0.238891
0.219751
0.200679
0.176674
0.152692
0.123665
0.0895701
0.0603846
0.0361086
0.0167647
-0.00266969
-0.0122172
-0.0218552
-0.0415611
-0.0513348
-0.0611765
-0.0710407
-0.0659276
-0.0608371
-0.065724
-0.070543
-0.0703167
-0.0701131
-0.0699095
-0.0695701
-0.069095
-0.0680995
-0.0615611
-0.0536199
-0.054276
-0.0534615
-0.0466064
-0.0426245
-0.0364027
-0.0322398
-0.0347964
-0.0375566
-0.0353846
-0.0327602
-0.0396154
-0.0458824
-0.0566969
-0.057353
-0.0578507
-0.0633032
-0.0686426
-0.0638236
-0.0589593
-0.0590724
-0.0590724
-0.0639367
-0.0687557
-0.0685747
-0.0684163
-0.0683032
-0.0682127
-0.0730995
-0.078009
-0.0779412
-0.0779638
-0.0880995
-0.0983258
-0.0838688
-0.0808371
-0.0891855
-0.0990724
-0.0999321
-0.0999774
-0.103756
-0.104864
-0.103891
-0.101787
-0.0990724
-0.0966063
-0.094457
-0.102805
-0.116561
-0.115679
-0.105023
-0.0993439
-0.0936199
-0.087828
-0.0869683
-0.0860633
-0.0851357
-0.0842081
-0.0832579
-0.0822398
-0.0811538
-0.08
-0.0788009
-0.0825565
-0.0862895
-0.085
-0.0836877
-0.0773529
-0.0709502
-0.0694796
-0.0679185
-0.0613122
-0.0547285
-0.0531674
-0.0515611
-0.0549095
-0.0582353
-0.0565611
-0.0549321
-0.0583711
-0.0618552
-0.0604073
-0.0591403
-0.0530091
-0.0469683
-0.0410181
-0.0352036
-0.0395475
-0.039095
-0.0288462
-0.0238009
-0.0288914
-0.0340724
-0.0343666
-0.0347512
-0.0402036
-0.0407693
-0.036448
-0.0372625
-0.0381901
-0.0341403
-0.0301358
-0.0412217
-0.0524208
-0.0437104
-0.0350226
-0.0363575
-0.0377376
-0.0391629
-0.0406109
-0.0320362
-0.0234389
-0.0148643
-0.0063801
0.0020362
0.0154751
0.0339593
0.057534
0.0761765
0.0948643
0.113643
0.117579
0.106629
0.0957919
0.0850453
0.0694118
0.0489141
0.0135521
-0.0217194
-0.031923
-0.0370362
-0.0570814
-0.0770588
-0.0820135
-0.0869683
-0.0869457
-0.0769457
-0.0719231
-0.0718778
-0.0618325
-0.0517873
-0.026742
-0.0016968
0.0183032
0.0832579
0.398258
0.713258
1.05824
1.27819
1.10819
0.823213
0.25819
-0.196855
-0.4469
-0.5819
-0.516855
-0.436833
-0.321833
-0.226855
-0.151923
-0.107036
-0.0971493
-0.0922172
-0.0972398
-0.102217
-0.102172
-0.0971493
-0.0871493
-0.0821493
-0.0871493
-0.0921267
-0.0920815
-0.0920362
-0.086991
-0.0819005
-0.08681
-0.0817421
-0.0666969
-0.0616063
-0.0614706
-0.0713122
-0.0711765
-0.056086
-0.0409955
-0.0408824
-0.0407466
-0.0406109
-0.0404751
-0.030362
-0.0202263
-0.0250453
-0.0248869
-0.00477376
0.0103167
0.0104299
0.010543
0.0157013
0.0258597
0.0409728
0.051086
0.0662443
0.0714253
0.0715837
0.0767421
0.0869231
0.0921267
0.0973303
0.112489
0.132624
0.14776
0.157896
0.173054
0.188235
0.208348
0.228394
0.233507
0.238688
0.248891
0.259118
0.264321
0.264502
0.264751
0.265045
0.280339
0.295656
0.291018
0.286448
0.271991
0.25767
0.248416
0.234231
0.205113
0.175996
0.146855
0.117692
0.0934842
0.0642308
0.0299096
0.00538467
-0.00434384
-0.0191176
-0.033914
-0.0487782
-0.0587103
-0.0636877
-0.0587103
-0.053733
-0.0587103
-0.0636877
-0.0686877
-0.073733
-0.0737782
-0.073733
-0.0735972
-0.0734162
-0.0680316
-0.0613574
-0.058371
-0.0538913
-0.0535067
-0.0489819
-0.0357692
-0.0300452
-0.0313122
-0.0436199
-0.0564479
-0.0538687
-0.0507918
-0.0570588
-0.0628506
-0.0532805
-0.0434615
-0.048552
-0.0535972
-0.0586651
-0.0637556
-0.0588687
-0.0540044
-0.0541628
-0.0543891
-0.0597285
-0.0651357
-0.0657239
-0.0675791
-0.0857239
-0.0952941
-0.0960407
-0.0965837
-0.106244
-0.113167
-0.117805
-0.111244
-0.093914
-0.0867421
-0.0898642
-0.0935068
-0.0976018
-0.102059
-0.0967194
-0.101448
-0.116154
-0.115837
-0.105498
-0.10009
-0.099638
-0.0942081
-0.0988009
-0.093371
-0.0878959
-0.0873303
-0.0866968
-0.0860181
-0.0853393
-0.0896606
-0.0939819
-0.0983032
-0.102624
-0.0919231
-0.0811538
-0.0802941
-0.0794344
-0.078552
-0.0776244
-0.0716515
-0.0655882
-0.0694343
-0.0732805
-0.0771266
-0.0809275
-0.0746832
-0.0684841
-0.0723529
-0.0712443
-0.0601583
-0.0540497
-0.0529185
-0.0518325
-0.0557918
-0.0598415
-0.0540044
-0.0482804
-0.0426696
-0.0372171
-0.041923
-0.0467872
-0.0468325
-0.0520587
-0.0575112
-0.04819
-0.0390271
-0.0399547
-0.041018
-0.0472171
-0.053552
-0.0499999
-0.0464931
-0.0479863
-0.0494796
-0.046018
-0.042647
-0.0243664
-0.0160859
-0.0127601
-0.00943433
-0.00110854
0.0172399
0.0456335
0.0691629
0.0828055
0.101539
0.120362
0.124299
0.108394
0.0926471
0.0720362
0.0515385
0.0261086
-0.00423077
-0.0345023
-0.0447738
-0.0500453
-0.0602489
-0.070362
-0.0754525
-0.075543
-0.0756561
-0.0707919
-0.060905
-0.0459955
-0.026086
-0.00617646
0.00371041
0.0435747
0.323439
0.613303
0.933077
1.18781
1.14756
0.96733
0.367104
-0.138122
-0.413394
-0.583665
-0.533869
-0.454072
-0.339321
-0.239593
-0.159887
-0.115158
-0.090362
-0.0856109
-0.0959503
-0.101312
-0.0966516
-0.0919231
-0.0871494
-0.0823756
-0.0826471
-0.0828959
-0.0881222
-0.0933258
-0.0885068
-0.0836878
-0.0838688
-0.0790498
-0.0692308
-0.064457
-0.0647285
-0.0649321
-0.0650679
-0.0502036
-0.0453394
-0.0404977
-0.0356787
-0.0358145
-0.0359049
-0.0309954
-0.026086
-0.0262217
-0.0264027
-0.0115384
0.00334844
0.00816745
0.0129638
0.0228055
0.0326923
0.0376019
0.0424887
0.0473304
0.0571494
0.071991
0.0818779
0.08681
0.0917421
0.096629
0.106516
0.121425
0.14129
0.156109
0.165973
0.175882
0.190792
0.205701
0.220566
0.235385
0.240226
0.245091
0.249955
0.254819
0.269683
0.28457
0.279593
0.269661
0.269706
0.269751
0.264842
0.260023
0.235362
0.210815
0.19129
0.166833
0.142443
0.118054
0.0886199
0.0591403
0.0245702
-6.7845e-05
-0.0147964
-0.0247059
-0.0297964
-0.0349095
-0.0400226
-0.050181
-0.0603846
-0.0656561
-0.0659728
-0.0663122
-0.0666516
-0.0669231
-0.0671267
-0.0673303
-0.0675113
-0.0676697
-0.0676923
-0.0665384
-0.0591855
-0.0504977
-0.0457466
-0.0412443
-0.0426018
-0.0466968
-0.0430769
-0.0406334
-0.0438687
-0.0417873
-0.0392534
-0.0411086
-0.0423982
-0.0532127
-0.0637783
-0.0592081
-0.0545928
-0.05
-0.0454072
-0.0557918
-0.0661538
-0.0615158
-0.0569004
-0.0573529
-0.0579412
-0.0636878
-0.0695475
-0.0705882
-0.0727828
-0.0812217
-0.0912217
-0.0924208
-0.0934163
-0.103529
-0.110701
-0.11043
-0.108846
-0.101516
-0.0945023
-0.0978959
-0.101855
-0.10629
-0.111109
-0.106109
-0.101109
-0.106109
-0.106063
-0.0959729
-0.0908597
-0.090724
-0.095543
-0.100339
-0.0951584
-0.0899774
-0.0897511
-0.089457
-0.0941177
-0.0987557
-0.0933711
-0.0879638
-0.092534
-0.0970815
-0.0916063
-0.0860634
-0.0854525
-0.0847964
-0.084095
-0.0833711
-0.0776245
-0.0718326
-0.0709955
-0.0701584
-0.0693213
-0.0685068
-0.0627149
-0.0618326
-0.0708597
-0.0699774
-0.0592082
-0.0534842
-0.0528054
-0.0521493
-0.0565385
-0.0561312
-0.045905
-0.0408371
-0.035905
-0.0311086
-0.0364706
-0.0420136
-0.0427149
-0.0485973
-0.0546833
-0.0459502
-0.0373303
-0.0437783
-0.0503167
-0.0519457
-0.0536652
-0.0454751
-0.0373529
-0.034276
-0.0312443
-0.0382579
-0.0402941
-0.0223529
-0.00938915
-0.0063801
0.00162895
0.019638
0.0427149
0.0658823
0.0841855
0.0976018
0.106109
0.109706
0.108416
0.092285
0.0713122
0.0504751
0.0297737
0.00920813
-0.0162896
-0.0417421
-0.0522172
-0.0576923
-0.063077
-0.0683937
-0.0736652
-0.0738914
-0.0741629
-0.0694797
-0.0597738
-0.0450453
-0.0153168
0.0144117
0.0341402
0.0788687
0.338575
0.613258
0.962896
1.23749
1.1971
1.00174
0.351357
-0.18905
-0.46448
-0.624932
-0.550362
-0.455747
-0.331131
-0.226538
-0.136968
-0.0923982
-0.0927828
-0.0931674
-0.0885973
-0.0840271
-0.0844118
-0.0847511
-0.0850679
-0.0804072
-0.0707692
-0.0661086
-0.0714253
-0.0767421
-0.0720588
-0.0673529
-0.0676244
-0.0678733
-0.0680995
-0.063371
-0.0536878
-0.0489819
-0.0492534
-0.0495023
-0.0497285
-0.0399774
-0.0302489
-0.0254751
-0.0206561
-0.0158371
-0.0110181
-0.00117646
0.00868779
0.00355205
-0.00160633
0.0131674
0.0279186
0.0377149
0.0475792
0.0474434
0.0522851
0.0720815
0.0868778
0.101719
0.106606
0.111538
0.121471
0.131357
0.136267
0.141222
0.161086
0.18586
0.200679
0.210543
0.225407
0.240271
0.250113
0.259932
0.269819
0.279774
0.289751
0.299751
0.304706
0.309661
0.304751
0.294909
0.295045
0.295204
0.280452
0.265814
0.241312
0.216923
0.197579
0.173258
0.143959
0.114661
0.0852941
0.0558371
0.0312896
0.00669684
-0.00794117
-0.0177602
-0.0227602
-0.0327828
-0.0478054
-0.0578507
-0.0629186
-0.0680543
-0.0682353
-0.0683937
-0.0685068
-0.0685521
-0.0685068
-0.0683258
-0.0730091
-0.0775792
-0.0719457
-0.0652036
-0.0572624
-0.0477602
-0.0420814
-0.0366742
-0.0322172
-0.0307466
-0.0267873
-0.0241629
-0.0273303
-0.0352489
-0.0427828
-0.0447964
-0.0463122
-0.0523529
-0.0581674
-0.0539819
-0.0497285
-0.050362
-0.0508371
-0.0561765
-0.0614706
-0.0617195
-0.0619005
-0.0619683
-0.0619457
-0.0618778
-0.0618552
-0.0718326
-0.0817647
-0.0816742
-0.0817421
-0.0769457
-0.0722398
-0.0726018
-0.0730769
-0.0790724
-0.086448
-0.0853167
-0.0858371
-0.0968552
-0.106561
-0.109321
-0.109344
-0.112534
-0.114819
-0.106946
-0.099638
-0.0929412
-0.08681
-0.0859955
-0.095362
-0.0947738
-0.0892082
-0.0836199
-0.0828959
-0.0820814
-0.0861991
-0.0902941
-0.0843665
-0.0783937
-0.0873529
-0.0962896
-0.0802489
-0.0641403
-0.0629186
-0.061629
-0.0652941
-0.0689366
-0.0625565
-0.0561312
-0.0596606
-0.0631448
-0.0615837
-0.0600226
-0.0534615
-0.0518552
-0.0602036
-0.0586425
-0.0471946
-0.0407466
-0.0392986
-0.0379412
-0.0416742
-0.0455656
-0.0396154
-0.0338235
-0.0331674
-0.0326697
-0.0323303
-0.0321493
-0.0321267
-0.0422398
-0.052534
-0.0379638
-0.0234842
-0.0290724
-0.0347511
-0.035543
-0.036448
-0.0274435
-0.0185068
-0.0246154
-0.0307919
-0.0370362
-0.0433484
-0.0447285
-0.0461539
-0.0526244
-0.0541855
-0.0407919
-0.0323982
-0.0290045
-0.0155882
0.00282805
0.0162217
0.0245928
0.0380317
0.0565611
0.070181
0.0888914
0.0976923
0.106606
0.100679
0.0849095
0.0792308
0.0786199
0.0631222
0.0427602
0.0125113
-0.0176471
-0.0277828
-0.0378959
-0.0479412
-0.0629186
-0.0778507
-0.0927602
-0.0876697
-0.0825566
-0.0874434
-0.0923756
-0.0573529
-0.0273529
-0.0023077
0.0227828
0.0528733
0.167941
0.472941
0.802896
1.17787
1.29787
1.01285
0.587783
-0.0123077
-0.412353
-0.602376
-0.627443
-0.507511
-0.377557
-0.237579
-0.152557
-0.102511
-0.0825339
-0.0775792
-0.0775792
-0.0875339
-0.0924887
-0.0924434
-0.0924208
-0.0924208
-0.0923303
-0.0972172
-0.0971946
-0.0872172
-0.0821267
-0.0819457
-0.0817647
-0.0815837
-0.0714253
-0.0612896
-0.0611086
-0.0608824
-0.0606561
-0.0604299
-0.0502036
-0.0399774
-0.0447059
-0.0494344
-0.0342534
-0.019095
-0.0188914
-0.0186199
-0.0133484
-0.00809956
0.00210406
0.0123077
0.0275565
0.032828
0.0380995
0.043371
0.0486425
0.0539366
0.0592534
0.0745023
0.0896832
0.0999321
0.110249
0.120566
0.130882
0.146176
0.161448
0.171765
0.182127
0.197466
0.212783
0.228054
0.243303
0.253597
0.258891
0.274118
0.289321
0.294615
0.299977
0.300362
0.300814
0.306357
0.311968
0.297602
0.283281
0.269072
0.249955
0.225928
0.196946
0.163009
0.129027
0.104955
0.0858597
0.0667647
0.0426018
0.0183484
-0.00101811
-0.0104977
-0.0200453
-0.0346607
-0.0492987
-0.0589819
-0.0637557
-0.0636199
-0.0684163
-0.0781674
-0.0780091
-0.0679186
-0.0626471
-0.0672172
-0.0716516
-0.0709729
-0.0652036
-0.0539367
-0.046267
-0.0420815
-0.0361991
-0.0297738
-0.019638
-0.0114254
-0.020905
-0.0321946
-0.0293892
-0.0267195
-0.0285068
-0.0297059
-0.0352942
-0.0405883
-0.0357466
-0.0308371
-0.035905
-0.041086
-0.0414254
-0.0419005
-0.0424887
-0.0430996
-0.0587331
-0.0593213
-0.0498869
-0.0504299
-0.0608824
-0.0661539
-0.0662896
-0.0663575
-0.0663349
-0.0661765
-0.070905
-0.0755883
-0.0802263
-0.0848869
-0.0845702
-0.0841855
-0.0887557
-0.0883937
-0.0780996
-0.0728055
-0.072534
-0.082353
-0.0825113
-0.0781222
-0.0748869
-0.0830543
-0.0926923
-0.0988009
-0.10362
-0.106493
-0.107081
-0.110294
-0.11267
-0.104344
-0.0963801
-0.0928733
-0.0907693
-0.0940724
-0.0976018
-0.0913575
-0.0850679
-0.0837331
-0.0823077
-0.0807919
-0.0792082
-0.0725566
-0.0708145
-0.0789819
-0.0771494
-0.0653394
-0.0584616
-0.0615159
-0.0645475
-0.0625792
-0.0606788
-0.0588235
-0.0568778
-0.0499095
-0.0430543
-0.0462896
-0.0496154
-0.0480543
-0.0465837
-0.0452489
-0.0391177
-0.0331674
-0.0323303
-0.0315837
-0.0309503
-0.0304751
-0.0351584
-0.0399548
-0.034819
-0.0297512
-0.0347738
-0.0398869
-0.0350679
-0.0302715
-0.0404525
-0.0457466
-0.0311765
-0.021629
-0.0270589
-0.0324887
-0.0379638
-0.0385521
-0.0292308
-0.0249548
-0.0307014
-0.036448
-0.0372172
-0.0380769
-0.0389819
-0.0398643
-0.0457692
-0.0468326
-0.0380091
-0.0341629
-0.0353168
-0.0365159
-0.0327602
-0.014095
0.00450225
0.00814478
0.00685519
0.0305882
0.0543665
0.0782126
0.102149
0.106199
0.110317
0.0994117
0.0886425
0.0830995
0.0726923
0.0373755
0.00710404
-0.00809958
-0.0282353
-0.0482806
-0.0632579
-0.0731901
-0.0830996
-0.0779865
-0.0728507
-0.0776697
-0.0775113
-0.0673982
-0.0572851
-0.0421267
-0.0219457
-0.00176474
0.0733258
0.178371
0.438462
0.758597
1.09371
1.4338
1.15389
0.728982
0.229095
-0.290792
-0.470747
-0.620747
-0.525701
-0.630611
-0.310498
-0.210385
-0.150339
-0.0903394
-0.0853167
-0.0802489
-0.0901358
-0.1
-0.0998869
-0.0997738
-0.104593
-0.109389
-0.0992534
-0.0891403
-0.0889819
-0.088733
-0.0884842
-0.0832805
-0.0680995
-0.0578959
-0.0726697
-0.0724434
-0.0621946
-0.0569457
-0.0517421
-0.0465158
-0.0512443
-0.0509955
-0.0407692
-0.0354977
-0.035181
-0.0348643
-0.0295475
-0.0192534
-0.00898188
-0.00373301
0.00149323
0.0067421
0.0120136
0.0172851
0.0225566
0.0228507
0.0181675
0.0384163
0.0586199
0.0638914
0.0692308
0.0745928
0.0799322
0.100204
0.120453
0.135724
0.150996
0.156267
0.161539
0.181833
0.192127
0.192398
0.20267
0.227919
0.243167
0.243462
0.248756
0.259027
0.269299
0.284593
0.294977
0.290453
0.28095
0.271448
0.257082
0.242851
0.223733
0.199729
0.185724
0.176719
0.14767
0.108575
0.0794571
0.0502942
0.0359503
0.021448
0.00687788
-0.0127827
-0.0275339
-0.0423529
-0.0522171
-0.0621266
-0.0719909
-0.0818099
-0.0766741
-0.071561
-0.0714026
-0.071199
-0.0709275
-0.0705655
-0.0601357
-0.0493891
-0.0531673
-0.0557691
-0.051923
-0.0465383
-0.0395927
-0.0339366
-0.0352261
-0.0338008
-0.024751
-0.021561
-0.0290949
-0.0362669
-0.0439818
-0.045294
-0.0362216
-0.0319456
-0.0324886
-0.0381221
-0.0488234
-0.0546379
-0.0505203
-0.0513347
-0.062104
-0.0678958
-0.0636651
-0.0592985
-0.0597737
-0.075113
-0.0803393
-0.0754977
-0.0705882
-0.0755655
-0.080475
-0.0804524
-0.0804298
-0.0753619
-0.0702714
-0.0801583
-0.0901131
-0.0852036
-0.0804072
-0.0854751
-0.0910859
-0.092104
-0.0946153
-0.0936199
-0.0941629
-0.100747
-0.105249
-0.107602
-0.107647
-0.110769
-0.113281
-0.110452
-0.108167
-0.101425
-0.0950905
-0.094095
-0.0983258
-0.107692
-0.107059
-0.0964253
-0.0906787
-0.084819
-0.0788914
-0.0828959
-0.0869004
-0.090905
-0.089819
-0.0836878
-0.0825565
-0.0813801
-0.0801131
-0.0788009
-0.0724886
-0.0661538
-0.0647963
-0.0634162
-0.0619909
-0.0605429
-0.0591402
-0.0578053
-0.0615383
-0.0653393
-0.0641854
-0.0631673
-0.0573076
-0.0515384
-0.050837
-0.050294
-0.0499547
-0.0498189
-0.0448868
-0.0400451
-0.040294
-0.0406334
-0.0410859
-0.0416289
-0.0422623
-0.0429637
-0.0487556
-0.0546605
-0.0506786
-0.046742
-0.047828
-0.0489139
-0.0500452
-0.0512669
-0.0475565
-0.0438461
-0.0451357
-0.0464932
-0.0479411
-0.0544796
-0.0610633
-0.0576244
-0.0542307
-0.0509502
-0.0476923
-0.0394117
-0.0311312
-0.0178733
-0.00463799
0.00355206
0.0167421
0.0300452
0.0484163
0.0718326
0.0902941
0.103778
0.107398
0.0911991
0.0800679
0.0789819
0.0679864
0.0471267
0.0214254
-0.00916289
-0.0347964
-0.0504072
-0.0609276
-0.0713801
-0.0768326
-0.0772851
-0.0777149
-0.0781222
-0.0784842
-0.0788009
-0.0591855
-0.034638
-0.0100679
-0.0304751
0.0941177
0.183688
0.513213
0.847715
1.19722
1.43672
0.981244
0.510792
0.00531674
-0.415181
-0.545679
-0.616176
-0.496697
-0.38224
-0.27276
-0.178235
-0.123688
-0.0891855
-0.0847511
-0.0803167
-0.0858371
-0.0913122
-0.0917421
-0.092172
-0.0876471
-0.0830995
-0.0835294
-0.0839819
-0.0844344
-0.0848642
-0.0802715
-0.0756561
-0.0760181
-0.0763801
-0.0717421
-0.0670814
-0.0623982
-0.0577149
-0.0530317
-0.0483484
-0.0436652
-0.0439819
-0.0492986
-0.039638
-0.03
-0.0253394
-0.0206335
-0.0158823
-0.0111086
0.00364254
0.018371
0.0230995
0.0278281
0.0325792
0.0373529
0.0421267
0.0469005
0.0516742
0.061448
0.0761991
0.0909276
0.105679
0.115452
0.115226
0.124977
0.144706
0.159412
0.169118
0.178869
0.188643
0.203416
0.22319
0.232964
0.227738
0.237511
0.257285
0.262059
0.266833
0.271674
0.271584
0.271538
0.276538
0.276584
0.261697
0.251878
0.242149
0.227534
0.213032
0.178643
0.144253
0.129729
0.110136
0.0855656
0.0609728
0.0313122
0.00656108
0.00165158
-0.00839367
-0.0235068
-0.0336652
-0.0388688
-0.044095
-0.0493213
-0.0545475
-0.0597738
-0.0650226
-0.0602941
-0.0554751
-0.055543
-0.0554751
-0.0604751
-0.0599321
-0.0490045
-0.0415837
-0.0326471
-0.0221267
-0.0205204
-0.0209502
-0.0134842
-0.00832579
-0.0150905
-0.0224434
-0.0201131
-0.0172625
-0.0189367
-0.0251584
-0.0309955
-0.026629
-0.0221493
-0.0226923
-0.0232579
-0.0288914
-0.0346154
-0.0304072
-0.0263122
-0.0373077
-0.0483032
-0.0442986
-0.0402489
-0.0462443
-0.0520588
-0.0578054
-0.0633937
-0.0588462
-0.0542082
-0.059457
-0.064638
-0.0647511
-0.0647738
-0.0647059
-0.064638
-0.0695701
-0.0745249
-0.0695249
-0.0645249
-0.0645475
-0.0696833
-0.0798643
-0.0850679
-0.0808145
-0.0776018
-0.0756335
-0.075181
-0.085362
-0.0954525
-0.0986425
-0.0988009
-0.0971267
-0.0942082
-0.0911765
-0.0885294
-0.0863575
-0.0847285
-0.0834842
-0.0776018
-0.0717421
-0.0657919
-0.0597738
-0.0636878
-0.0675113
-0.0662444
-0.0649095
-0.0685068
-0.0720815
-0.0657014
-0.059276
-0.0527602
-0.0462444
-0.0497285
-0.0531901
-0.0466516
-0.0401131
-0.038552
-0.0370362
-0.0356335
-0.0342534
-0.0328959
-0.036629
-0.0454525
-0.039457
-0.0236426
-0.0179412
-0.0223756
-0.0269457
-0.0316516
-0.0365158
-0.0315385
-0.026629
-0.0267873
-0.0270136
-0.0272851
-0.0275792
-0.0279412
-0.0283937
-0.028914
-0.0245023
-0.0201358
-0.0207692
-0.021448
-0.0271946
-0.0329638
-0.0287783
-0.0246606
-0.0255882
-0.0265385
-0.0275113
-0.0285068
-0.0345702
-0.040724
-0.0369231
-0.0331674
-0.0345023
-0.035905
-0.0323303
-0.0237783
-0.0152715
-0.00680997
0.00160633
0.0100452
0.0185068
0.0269683
0.0354525
0.0489819
0.0625565
0.086267
0.11009
0.113959
0.112896
0.101991
0.111244
0.0706109
0.0600905
0.0296606
-0.000701359
-0.0209276
-0.0410407
-0.051086
-0.0611086
-0.076086
-0.0910181
-0.085905
-0.0807693
-0.0756788
-0.0706335
-0.0605656
-0.0454525
-0.015362
-0.000271514
0.00979636
0.134842
0.379909
0.669977
1.01005
1.15516
1.14027
0.725339
0.0603846
-0.339593
-0.609593
-0.624593
-0.524593
-0.404593
-0.269593
-0.174593
-0.0945928
-0.0795475
-0.079457
-0.0793439
-0.0841855
-0.0940045
-0.103824
-0.103665
-0.0985294
-0.0934389
-0.0883937
-0.0883032
-0.0881674
-0.083009
-0.0778281
-0.0776697
-0.0775339
-0.0773529
-0.0771267
-0.0669004
-0.0566516
-0.0613575
-0.0660633
-0.0607919
-0.055543
-0.0503394
-0.0451131
-0.034819
-0.0245023
-0.0192081
-0.0139366
-0.00868778
0.00153846
0.0117873
0.0170588
0.0173303
0.0176244
0.0179412
0.0282579
0.0435747
0.0538688
0.0641403
0.0694118
0.0746833
0.0899774
0.105294
0.110566
0.115792
0.131063
0.15138
0.161697
0.172014
0.182353
0.192715
0.208032
0.223303
0.238597
0.253914
0.264208
0.27448
0.284796
0.295181
0.300588
0.306018
0.306493
0.307014
0.307579
0.303213
0.288914
0.274683
0.25052
0.231448
0.212466
0.188507
0.159548
0.130566
0.101652
0.0725113
0.0482806
0.028914
0.00441178
-0.0151584
-0.0347964
-0.0444796
-0.0542081
-0.0640045
-0.0738688
-0.078733
-0.0735973
-0.0684163
-0.06819
-0.0729185
-0.0675792
-0.0721267
-0.076629
-0.076086
-0.0749774
-0.0677602
-0.0592307
-0.0591402
-0.058371
-0.0476923
-0.038914
-0.0331674
-0.0292533
-0.031561
-0.0338914
-0.0357692
-0.0371266
-0.0378959
-0.0382353
-0.0432126
-0.0480995
-0.0479638
-0.0528054
-0.062647
-0.0675792
-0.0626018
-0.057647
-0.0527149
-0.0478507
-0.0530317
-0.0582579
-0.0585294
-0.0588235
-0.0591629
-0.0596154
-0.0651584
-0.0707918
-0.071448
-0.0770136
-0.0875113
-0.088009
-0.0834615
-0.0838009
-0.0839819
-0.0840045
-0.083914
-0.0837104
-0.0834163
-0.0830543
-0.0826244
-0.0821267
-0.0815611
-0.0809729
-0.0803846
-0.0847964
-0.0892308
-0.0886878
-0.0882353
-0.0828507
-0.0774434
-0.0721267
-0.067828
-0.074638
-0.0829186
-0.0823529
-0.0819231
-0.0908371
-0.0967195
-0.0950679
-0.0920588
-0.0932805
-0.0948416
-0.0867873
-0.0792308
-0.0770814
-0.0752262
-0.0685068
-0.0617647
-0.065
-0.0681674
-0.0612669
-0.0543665
-0.0524434
-0.0504751
-0.0484841
-0.0515158
-0.0545927
-0.0527375
-0.0509728
-0.0443664
-0.0378732
-0.0364479
-0.035113
-0.0389139
-0.0428506
-0.0319456
-0.0212216
-0.0206787
-0.0202262
-0.0248868
-0.0296606
-0.0295475
-0.0294569
-0.0293891
-0.0294569
-0.0246606
-0.0198868
-0.0250904
-0.030294
-0.0305203
-0.0308144
-0.0261311
-0.0214931
-0.0219004
-0.0223302
-0.0227827
-0.0232352
-0.0286877
-0.0342307
-0.0298416
-0.0254977
-0.021199
-0.016923
-0.0176696
-0.0284615
-0.0293212
-0.0252488
-0.0212217
-0.0222398
-0.0233257
-0.0295022
-0.0357239
-0.0419457
-0.0482579
-0.0397059
-0.0311991
-0.0276923
-0.0191855
-0.000656106
0.0128281
0.021267
0.0297059
0.0381675
0.0516969
0.0752941
0.0939819
0.112738
0.116606
0.105588
0.0996606
0.0938009
0.0780543
0.0574434
0.0269457
-0.00343891
-0.023733
-0.0389366
-0.0490724
-0.0591402
-0.0691402
-0.079095
-0.0840498
-0.0789819
-0.0738461
-0.0736651
-0.0685294
-0.0634389
-0.033371
-0.00332579
0.00174208
0.0318326
0.261946
0.512082
0.852172
1.12222
1.15731
1.01744
0.362534
-0.177421
-0.467353
-0.627262
-0.542195
-0.447172
-0.322149
-0.217104
-0.137059
-0.0920136
-0.0869457
-0.0818326
-0.0867195
-0.0916516
-0.0865837
-0.0864706
-0.0963349
-0.101176
-0.0959955
-0.0908371
-0.0907014
-0.0855656
-0.0754299
-0.0702489
-0.0750226
-0.0797964
-0.0795701
-0.0793891
-0.0742534
-0.0640724
-0.0488461
-0.0485973
-0.0483258
-0.0430543
-0.0377828
-0.0425339
-0.0473077
-0.0270814
-0.0068552
-0.00660633
-0.00633483
-0.00106333
0.00420815
0.014457
0.0246833
0.0298869
0.0351358
0.0404073
0.0456788
0.0509502
0.0562444
0.0715385
0.0817873
0.0970362
0.112285
0.122534
0.132828
0.143145
0.158416
0.173688
0.183959
0.194231
0.209525
0.224842
0.230136
0.230407
0.245656
0.265882
0.271131
0.276403
0.281697
0.282036
0.297489
0.303009
0.298529
0.294072
0.279683
0.265385
0.246199
0.227104
0.198077
0.17405
0.15
0.12595
0.101855
0.0776697
0.0533937
0.0290046
0.00950229
-0.0101357
-0.0248868
-0.0396832
-0.0545248
-0.0643891
-0.064276
-0.0692081
-0.0841402
-0.0940045
-0.0888235
-0.0836651
-0.0785293
-0.0732579
-0.0728506
-0.0723981
-0.0717873
-0.0701809
-0.0624886
-0.0532578
-0.0528054
-0.0521945
-0.0422172
-0.0352036
-0.0406334
-0.0473529
-0.0497963
-0.0469004
-0.0435972
-0.0447058
-0.0453167
-0.0455429
-0.0455655
-0.0506108
-0.0556787
-0.0508144
-0.0460406
-0.0513121
-0.0566063
-0.0619682
-0.0673755
-0.0677601
-0.0683257
-0.0690949
-0.0699094
-0.0757465
-0.0815157
-0.0822623
-0.0830316
-0.0787782
-0.0744117
-0.0749094
-0.0752488
-0.0804072
-0.085475
-0.0904524
-0.0953393
-0.0901583
-0.0849999
-0.0848642
-0.0846605
-0.0843891
-0.0841402
-0.0889366
-0.0937556
-0.0886198
-0.0835293
-0.0737782
-0.0795248
-0.0864479
-0.0898189
-0.0945248
-0.105543
-0.114932
-0.111787
-0.106629
-0.0995248
-0.0918551
-0.0938461
-0.096199
-0.0940271
-0.0922171
-0.0857918
-0.0795022
-0.0833483
-0.0870587
-0.0856334
-0.084208
-0.0828053
-0.0813347
-0.0747736
-0.0682352
-0.0667193
-0.0651809
-0.0686424
-0.0670361
-0.0554071
-0.0488008
-0.0522171
-0.0557239
-0.0543212
-0.0530089
-0.0467872
-0.0407691
-0.0448868
-0.0491175
-0.0434614
-0.0379411
-0.0375791
-0.0423754
-0.0473076
-0.0373302
-0.0274433
-0.0276469
-0.027941
-0.0333257
-0.0387782
-0.034208
-0.0296831
-0.040294
-0.0509953
-0.0417193
-0.0324433
-0.0331447
-0.0339365
-0.0397962
-0.0457012
-0.0366514
-0.0276243
-0.0285972
-0.0295926
-0.030656
-0.0317646
-0.0328732
-0.034027
-0.0402714
-0.0416062
-0.0330316
-0.0295022
-0.0359954
-0.0425338
-0.0491175
-0.0507465
-0.0424207
-0.0341402
-0.0259049
-0.0126696
0.000588313
0.00386886
0.0071494
0.0104299
0.00873311
0.0520815
0.0954978
0.109005
0.122625
0.111312
0.100091
0.098982
0.0929865
0.0671268
0.0413802
0.015724
-0.00981895
-0.0302714
-0.0507013
-0.0661312
-0.076561
-0.0769457
-0.077285
-0.0726018
-0.0678959
-0.0631674
-0.0534615
-0.0438009
-0.0291629
-0.00950223
0.0751584
0.189842
0.45448
0.779072
1.07869
1.37333
1.01792
0.472466
0.0370588
-0.378303
-0.488643
-0.553959
-0.464321
-0.349729
-0.255113
-0.155475
-0.115814
-0.0761312
-0.0914706
-0.106833
-0.102172
-0.0975113
-0.0978959
-0.0983032
-0.0886652
-0.0789819
-0.079276
-0.0795475
-0.0798643
-0.0802036
-0.0804977
-0.0807466
-0.0759955
-0.071267
-0.0715385
-0.0717647
-0.0569231
-0.0521041
-0.052353
-0.0526018
-0.0478055
-0.0379638
-0.0280996
-0.0233032
-0.0235747
-0.0238009
-0.0189819
-0.0141403
-0.00927602
-0.0044344
-0.0096154
-0.00475114
0.0101584
0.02
0.0297738
0.0345928
0.034457
0.0593213
0.0741629
0.0839366
0.0936652
0.0984615
0.103326
0.11319
0.123054
0.127919
0.132805
0.147738
0.162647
0.177466
0.197262
0.212104
0.222014
0.2319
0.241742
0.251538
0.261335
0.266176
0.271086
0.276063
0.276086
0.266154
0.261267
0.256425
0.246561
0.236652
0.221946
0.202443
0.178032
0.15871
0.134299
0.109796
0.0852941
0.0607692
0.0411312
0.0213801
-0.00348419
-0.0284616
-0.0385068
-0.0436199
-0.0488009
-0.0540498
-0.0593439
-0.0646607
-0.0699321
-0.0751584
-0.0703846
-0.0655882
-0.0657466
-0.0658371
-0.0608371
-0.0554525
-0.0495475
-0.0424435
-0.0438688
-0.0439593
-0.0327376
-0.0231222
-0.0259729
-0.0307693
-0.0324209
-0.0345928
-0.0320815
-0.029163
-0.035724
-0.0418553
-0.042534
-0.0430544
-0.043439
-0.0439593
-0.0496154
-0.0503394
-0.0411086
-0.0368779
-0.0426923
-0.0485747
-0.0545475
-0.0606561
-0.0568326
-0.0530091
-0.0541629
-0.0602263
-0.0662444
-0.0671946
-0.0679865
-0.0786199
-0.0891629
-0.0795702
-0.0699095
-0.0752037
-0.0804299
-0.0855656
-0.0906335
-0.0806788
-0.070724
-0.0707693
-0.0708371
-0.075905
-0.0810408
-0.0812444
-0.0814932
-0.0869457
-0.0932353
-0.0904299
-0.0890272
-0.0938914
-0.0996833
-0.105317
-0.102964
-0.0930543
-0.0863349
-0.0884842
-0.0906561
-0.0880996
-0.0860634
-0.0845249
-0.088439
-0.0976245
-0.0918326
-0.0760181
-0.0701132
-0.0690951
-0.0779865
-0.07681
-0.0706109
-0.0643892
-0.0631448
-0.0618779
-0.0655657
-0.0692308
-0.0629186
-0.0566064
-0.0602942
-0.0640046
-0.0527829
-0.041629
-0.0405204
-0.0395023
-0.0435973
-0.0478281
-0.037172
-0.0266517
-0.026267
-0.0260182
-0.025905
-0.0259277
-0.026086
-0.0263123
-0.0316064
-0.0370136
-0.0375114
-0.0330544
-0.0236426
-0.0192761
-0.0249548
-0.0307014
-0.0265159
-0.0223304
-0.0231675
-0.0240724
-0.0250227
-0.0259729
-0.0269231
-0.0278507
-0.0288236
-0.0249322
-0.0211313
-0.022353
-0.0235973
-0.0299095
-0.0363123
-0.0327828
-0.0293213
-0.030905
-0.0325113
-0.0341855
-0.035905
-0.0326471
-0.0244344
-0.0112444
0.00187779
0.0199095
0.0329864
0.0311538
0.0393891
0.062647
0.0909276
0.119231
0.132579
0.131041
0.124706
0.103507
0.0924434
0.0814932
0.0507013
0.0150452
-0.00558826
-0.0211991
-0.0316969
-0.0420815
-0.0574208
-0.0727376
-0.0780543
-0.0733711
-0.0686199
-0.0688009
-0.0639593
-0.059095
-0.039276
-0.0195023
-0.00470589
0.0351131
0.224887
0.439615
0.759367
1.04914
1.25894
1.22373
0.588484
0.0382353
-0.351968
-0.592149
-0.582353
-0.517579
-0.392805
-0.273009
-0.16819
-0.103416
-0.0837104
-0.0739593
-0.0791176
-0.0842308
-0.0893213
-0.0945023
-0.0897285
-0.0849095
-0.0800452
-0.075181
-0.0803167
-0.0804525
-0.0705882
-0.0706335
-0.0806561
-0.0807692
-0.0709276
-0.0659955
-0.0659955
-0.0609955
-0.0559955
-0.0510181
-0.0460633
-0.041086
-0.036086
-0.0310633
-0.0260181
-0.0159729
-0.00590498
-0.0157919
-0.0256787
-0.0106335
0.00436651
0.00936651
0.0144118
0.0195249
0.0246154
0.034638
0.0446606
0.0497285
0.059819
0.0749095
0.0850226
0.0901584
0.0952941
0.0954299
0.11052
0.135566
0.150656
0.160792
0.17095
0.181131
0.196244
0.21129
0.226357
0.241448
0.251561
0.261697
0.266833
0.271968
0.282149
0.287398
0.302692
0.318032
0.308462
0.298959
0.289457
0.279977
0.270566
0.261267
0.247104
0.228009
0.188937
0.159864
0.125701
0.0965158
0.0623077
0.0329185
0.0183258
0.00364252
-0.0111086
-0.0258824
-0.0406787
-0.0505656
-0.055543
-0.0605656
-0.0655883
-0.0705656
-0.0755204
-0.0804525
-0.075362
-0.0701584
-0.0748416
-0.0795023
-0.0740272
-0.0676923
-0.0653846
-0.0616063
-0.0615158
-0.0555204
-0.0397059
-0.0317647
-0.0313122
-0.0326018
-0.0349548
-0.0372851
-0.0393439
-0.0458145
-0.0517195
-0.0471719
-0.0423529
-0.0474434
-0.0524887
-0.0575566
-0.0627376
-0.0530543
-0.0434389
-0.0488688
-0.0543213
-0.0547964
-0.0553846
-0.0611312
-0.0669231
-0.0827149
-0.0835068
-0.0693439
-0.0651357
-0.0758145
-0.0813801
-0.0818552
-0.082172
-0.0823303
-0.0823982
-0.0773756
-0.0722624
-0.0770815
-0.0819005
-0.0817195
-0.0864253
-0.0960634
-0.0957692
-0.0855656
-0.080362
-0.0801584
-0.085
-0.0899321
-0.0799548
-0.0709276
-0.0781901
-0.0869683
-0.0923756
-0.0975792
-0.107104
-0.113982
-0.112896
-0.110588
-0.0972624
-0.0841855
-0.0856109
-0.0883484
-0.0916063
-0.095181
-0.0840272
-0.0728054
-0.0715158
-0.0701357
-0.0736652
-0.0771493
-0.0755882
-0.0739819
-0.0773303
-0.0806787
-0.0740498
-0.067353
-0.0655882
-0.0638688
-0.0621946
-0.0555882
-0.0440498
-0.0375566
-0.0361086
-0.0347512
-0.0385068
-0.0424435
-0.0415159
-0.0457466
-0.0501358
-0.0397285
-0.0294797
-0.0293213
-0.0292534
-0.034276
-0.0394118
-0.0346607
-0.0299774
-0.0253168
-0.0206788
-0.026086
-0.0315611
-0.0321041
-0.0326923
-0.0382579
-0.0438688
-0.0345702
-0.0253394
-0.0261312
-0.0269231
-0.0327376
-0.0336199
-0.0245928
-0.0206109
-0.021629
-0.0226697
-0.0287557
-0.0349321
-0.0311539
-0.0273982
-0.0336878
-0.0400905
-0.0365837
-0.0330996
-0.034638
-0.0362217
-0.0378733
-0.0195928
0.00364254
0.0119231
0.0252489
0.0335747
0.0419231
0.0703168
0.0988009
0.107376
0.116018
0.114661
0.113439
0.102421
0.0865611
0.0657918
0.0450905
0.0144796
-0.0160181
-0.0313801
-0.0466742
-0.0618778
-0.0720362
-0.0671946
-0.0622851
-0.0772851
-0.0823303
-0.0774435
-0.0675566
-0.0526244
-0.0376471
-0.0226471
0.00228507
0.0271493
0.242059
0.537014
0.881946
1.24686
1.21176
1.07667
0.501629
-0.148439
-0.413552
-0.638688
-0.568778
-0.653824
-0.348869
-0.223914
-0.144005
-0.0741403
-0.0742308
-0.074276
-0.0792986
-0.0842986
-0.0843213
-0.0843439
-0.0893213
-0.094276
-0.084276
-0.0743213
-0.0743439
-0.0743213
-0.074276
-0.0742534
-0.0692534
-0.0642082
-0.064095
-0.0639593
-0.0588235
-0.0536652
-0.0535068
-0.0533484
-0.0531674
-0.0480091
-0.0378733
-0.0326923
-0.0274661
-0.0222398
-0.0170136
-0.00685522
0.00323528
0.00837103
0.00855202
0.00877826
0.0140498
0.0242986
0.0345475
0.0398416
0.0401357
0.055362
0.070543
0.0807692
0.0910407
0.0963122
0.101584
0.11681
0.132014
0.142285
0.152602
0.162941
0.173303
0.193643
0.203959
0.209299
0.219638
0.239932
0.255204
0.265498
0.275814
0.281131
0.291425
0.301697
0.307059
0.307534
0.308077
0.30371
0.294389
0.285113
0.265995
0.242036
0.2231
0.209186
0.180271
0.151357
0.122398
0.093371
0.0742308
0.0549774
0.0305882
0.00106333
-0.0135294
-0.0281901
-0.0328959
-0.0376245
-0.0573077
-0.0769683
-0.0717421
-0.0665611
-0.0663575
-0.0661086
-0.0707693
-0.0753846
-0.065
-0.0545023
-0.0538235
-0.052172
-0.0491855
-0.044638
-0.0384389
-0.0323756
-0.0419004
-0.0390724
-0.0292308
-0.0255882
-0.0279638
-0.03
-0.0373982
-0.0434616
-0.0390046
-0.0341629
-0.0339819
-0.0338009
-0.03862
-0.0434616
-0.0433258
-0.0481901
-0.0580996
-0.0631448
-0.0582806
-0.0533937
-0.0535068
-0.0586878
-0.0640498
-0.0596154
-0.0552489
-0.0608598
-0.0664254
-0.0669457
-0.0674209
-0.0728281
-0.078077
-0.0831901
-0.0882127
-0.0881448
-0.0879638
-0.0878055
-0.0873982
-0.0869231
-0.0864706
-0.0760408
-0.065543
-0.0699774
-0.0744344
-0.0789367
-0.0834842
-0.0830543
-0.0876245
-0.0974435
-0.0981675
-0.0900001
-0.088258
-0.092715
-0.098077
-0.102738
-0.10448
-0.0988915
-0.0916064
-0.0933937
-0.0950453
-0.0969231
-0.0993439
-0.0972173
-0.0954525
-0.0938688
-0.087353
-0.0807919
-0.0790724
-0.0772625
-0.0754073
-0.0735068
-0.0666064
-0.0596833
-0.057715
-0.055724
-0.0587557
-0.06181
-0.0599095
-0.0580543
-0.0612218
-0.0645023
-0.0579186
-0.051448
-0.0500679
-0.0488462
-0.0477828
-0.0468552
-0.0410634
-0.0353847
-0.034819
-0.0343666
-0.0340498
-0.0338462
-0.0387557
-0.0436878
-0.0486426
-0.0487331
-0.0389593
-0.0342082
-0.0344797
-0.0347512
-0.0400453
-0.0354073
-0.0208145
-0.0211991
-0.0365838
-0.0370589
-0.0375566
-0.038077
-0.03862
-0.044163
-0.0497738
-0.040543
-0.0313575
-0.032172
-0.0330091
-0.0388914
-0.0448643
-0.0359503
-0.0270815
-0.0332353
-0.0394118
-0.0406335
-0.0419231
-0.0433032
-0.0447059
-0.0461086
-0.0375792
-0.0141403
-0.000701401
0.00278276
0.0113348
0.0249321
0.0635746
0.107285
0.121131
0.120113
0.114163
0.103303
0.0925565
0.0819457
0.0514705
0.0210859
0.000746563
-0.0195476
-0.0397738
-0.0249322
-0.0750227
-0.0850679
-0.0750905
-0.0650906
-0.0700453
-0.0749548
-0.0648869
-0.0548417
-0.0447964
-0.0347512
-0.0246833
0.040362
0.245317
0.490249
0.820226
1.10023
1.31023
1.1652
0.525158
0.0151131
-0.34491
-0.53491
-0.554932
-0.494955
-0.364977
-0.254977
-0.154932
-0.104932
-0.0849774
-0.0849774
-0.0999321
-0.104887
-0.104842
-0.104819
-0.099819
-0.0947738
-0.0946833
-0.0945701
-0.0894344
-0.0842987
-0.0791629
-0.0790272
-0.0838914
-0.0788009
-0.0737557
-0.0686652
-0.0635294
-0.0583937
-0.0532579
-0.0531448
-0.0530317
-0.0478507
-0.0426244
-0.0423756
-0.0421041
-0.0318552
-0.0216063
-0.0213575
-0.0211765
-0.0110633
-0.00092759
0.00927603
0.0195249
0.0197964
0.0250453
0.0352489
0.0404751
0.0457692
0.056086
0.0763575
0.081629
0.0869005
0.0921946
0.0925113
0.10776
0.127941
0.138167
0.148439
0.158733
0.16905
0.189321
0.209548
0.214842
0.225204
0.23552
0.245792
0.261063
0.276358
0.276697
0.277036
0.28733
0.297647
0.293077
0.288575
0.279118
0.269706
0.255317
0.236086
0.212059
0.1881
0.16914
0.145181
0.121199
0.0921946
0.0581674
0.0339593
0.0195702
0.00506789
-0.00954749
-0.0242308
-0.0388235
-0.0486425
-0.0535068
-0.058371
-0.0582353
-0.0580769
-0.0578959
-0.0576923
-0.0624661
-0.0671267
-0.0717421
-0.0713575
-0.0607014
-0.0541403
-0.0514932
-0.0473303
-0.0418778
-0.0304977
-0.0197963
-0.0170135
-0.016561
-0.0177375
-0.019819
-0.0270588
-0.0340497
-0.0454751
-0.0564706
-0.0470814
-0.0376018
-0.0429185
-0.0485973
-0.0494344
-0.0502941
-0.0461538
-0.0419683
-0.0477149
-0.0533484
-0.0588914
-0.0642986
-0.0695701
-0.0747059
-0.0747285
-0.0747285
-0.0697285
-0.0646833
-0.0695928
-0.0744796
-0.0743665
-0.0742986
-0.0692534
-0.069276
-0.0793665
-0.0845475
-0.09
-0.0958597
-0.0927828
-0.0961538
-0.106018
-0.102466
-0.0980543
-0.106697
-0.113009
-0.116833
-0.119615
-0.111742
-0.104163
-0.102081
-0.100498
-0.104389
-0.108507
-0.107783
-0.107036
-0.111244
-0.115452
-0.104683
-0.0938235
-0.0928507
-0.0918326
-0.0957692
-0.0997059
-0.0936425
-0.0874887
-0.0912443
-0.0949774
-0.0886652
-0.0823303
-0.0809729
-0.0845249
-0.0929864
-0.0914932
-0.0800453
-0.0735747
-0.0720815
-0.0705883
-0.0741177
-0.0727376
-0.061448
-0.0552715
-0.0542082
-0.0532805
-0.0525113
-0.0568778
-0.0613801
-0.0659728
-0.070724
-0.0607014
-0.0508145
-0.0460181
-0.0413122
-0.0466968
-0.0522172
-0.0528733
-0.0535973
-0.0443892
-0.0352489
-0.0461539
-0.0571041
-0.0530996
-0.0491403
-0.0652489
-0.0664706
-0.0578054
-0.0541855
-0.0505656
-0.046991
-0.0534842
-0.0600227
-0.0566064
-0.0531901
-0.0497738
-0.0463801
-0.0480091
-0.0396833
-0.0264027
-0.0230769
-0.0197511
-0.00644799
0.00685518
0.0352489
0.00877828
0.0873982
0.106086
0.104864
0.103756
0.0927828
0.0819457
0.0612217
0.040543
0.00990951
-0.0156335
-0.041086
-0.0615384
-0.0669683
-0.0723756
-0.0777602
-0.0830317
-0.0832805
-0.0785747
-0.0638914
-0.0542081
-0.0395022
-0.0247964
-0.00013572
0.0644797
0.15405
0.38862
0.718235
1.05783
1.40738
1.21697
0.796606
0.291222
-0.249186
-0.469638
-0.615136
-0.545611
-0.426063
-0.311493
-0.2019
-0.142353
-0.087828
-0.0882579
-0.0936652
-0.0891176
-0.0846154
-0.0900679
-0.0954751
-0.0958597
-0.0962217
-0.086629
-0.0770814
-0.0774887
-0.0778507
-0.0782127
-0.0785747
-0.0739367
-0.0692534
-0.0745249
-0.0798416
-0.0702263
-0.0605883
-0.0558824
-0.0511539
-0.0564254
-0.0567195
-0.0470588
-0.0373982
-0.0276923
-0.0229412
-0.0181674
-0.00841629
0.00131221
0.00606334
0.000837099
0.00554298
0.020181
0.0248869
0.0296606
0.0344796
0.0393213
0.054095
0.0688235
0.073552
0.0832805
0.0930543
0.102873
0.112647
0.122376
0.132149
0.141968
0.161697
0.181403
0.191154
0.200928
0.215724
0.230543
0.240339
0.250113
0.254909
0.259729
0.26457
0.269389
0.279163
0.289027
0.274005
0.268982
0.263959
0.254005
0.244118
0.224389
0.19957
0.180091
0.160679
0.136267
0.111855
0.0873756
0.0578281
0.04319
0.0284615
0.00366515
-0.0212443
-0.0263122
-0.0314932
-0.0366968
-0.0369231
-0.0571719
-0.0674434
-0.0627376
-0.0580317
-0.0582579
-0.0584389
-0.0585294
-0.0585294
-0.0534163
-0.0480091
-0.052172
-0.0552941
-0.046991
-0.037172
-0.0307693
-0.025181
-0.0214932
-0.0201584
-0.0163349
-0.0135747
-0.0165385
-0.0192082
-0.0263575
-0.0330543
-0.0293213
-0.0303846
-0.0412896
-0.0473077
-0.0434389
-0.0395475
-0.0406109
-0.0416064
-0.0475566
-0.0534842
-0.0493439
-0.045
-0.0504977
-0.0558823
-0.0611765
-0.0664027
-0.0615611
-0.0666516
-0.0767195
-0.0718552
-0.0670362
-0.0721719
-0.0773077
-0.0774887
-0.0777602
-0.0732127
-0.068733
-0.069276
-0.070905
-0.078733
-0.0881222
-0.0890724
-0.0895249
-0.104344
-0.116176
-0.105226
-0.0931901
-0.095181
-0.0975792
-0.100453
-0.0989593
-0.0880543
-0.0823982
-0.0819231
-0.0814027
-0.0808145
-0.0801358
-0.0793665
-0.0785294
-0.0826244
-0.0867195
-0.0808145
-0.074819
-0.073733
-0.0726018
-0.071448
-0.0702715
-0.0690498
-0.0678054
-0.0665385
-0.0652489
-0.0639367
-0.0526018
-0.0412444
-0.049819
-0.0583711
-0.0520589
-0.0457919
-0.0445702
-0.0434163
-0.0473077
-0.0513123
-0.0454751
-0.0397738
-0.0392308
-0.0388009
-0.0334842
-0.0283032
-0.0282806
-0.0283258
-0.043439
-0.0437557
-0.0342761
-0.0298643
-0.0305204
-0.0312218
-0.0319457
-0.0328281
-0.0288236
-0.0248417
-0.0258824
-0.0269457
-0.0330543
-0.0392308
-0.0404525
-0.0416742
-0.0479412
-0.0443439
-0.0308598
-0.0273982
-0.0289593
-0.0405657
-0.0422399
-0.0290046
-0.0158145
-0.00260185
0.0106334
0.0138914
0.0171719
0.0304524
0.0438009
0.0572624
0.0757918
0.0993439
0.117986
0.116561
0.110566
0.0897511
0.0740271
0.068371
0.0528054
0.0173755
-0.00794121
-0.0331901
-0.0533937
-0.0685521
-0.0836652
-0.0936878
-0.0937557
-0.0838914
-0.0789819
-0.0790272
-0.0690498
-0.0540498
-0.029095
0.00581447
0.0207466
0.0357013
0.285679
0.560679
0.910634
1.26054
1.1605
1.03048
0.375362
-0.244819
-0.479955
-0.680045
-0.585136
-0.475226
-0.330362
-0.19552
-0.125633
-0.070724
-0.0757919
-0.0808371
-0.0908824
-0.100905
-0.105905
-0.110905
-0.100928
-0.0909728
-0.0909955
-0.0909728
-0.0909276
-0.085905
-0.075905
-0.070905
-0.065905
-0.0608824
-0.0608371
-0.0607692
-0.0606787
-0.0605204
-0.0652941
-0.0601357
-0.0450453
-0.0399321
-0.0347964
-0.029638
-0.0294796
-0.0243891
-0.0143439
-0.0042534
0.0108823
0.0110181
0.0111538
0.0162896
0.0214706
0.0217194
0.0219683
0.0421041
0.0622172
0.0723756
0.0825792
0.087828
0.0930543
0.108213
0.123348
0.133552
0.143778
0.149005
0.159231
0.174434
0.184638
0.189864
0.205068
0.230226
0.250407
0.260656
0.270928
0.281199
0.296403
0.316584
0.326855
0.327217
0.327647
0.323145
0.318643
0.31414
0.294774
0.275475
0.261199
0.246991
0.222896
0.243891
0.154887
0.11586
0.0967421
0.0775566
0.0533484
0.0290724
0.00963799
-0.00990951
-0.0245702
-0.0393213
-0.0541403
-0.0690272
-0.0639593
-0.0588914
-0.0637783
-0.0686652
-0.0785294
-0.0883711
-0.0781674
-0.0678507
-0.0673756
-0.06681
-0.0711539
-0.0744118
-0.0664706
-0.0569005
-0.0557014
-0.0499774
-0.0348643
-0.027715
-0.0283711
-0.0300905
-0.0377149
-0.0449547
-0.0417647
-0.0380317
-0.038733
-0.0391403
-0.0443665
-0.0497059
-0.0501584
-0.0557466
-0.0614706
-0.0622851
-0.0631222
-0.0638688
-0.0645249
-0.0701358
-0.0756561
-0.071086
-0.0663801
-0.0665159
-0.0665611
-0.0715159
-0.0763801
-0.0811765
-0.0859276
-0.0906561
-0.0954073
-0.0902037
-0.085
-0.0847512
-0.0845475
-0.0893892
-0.0893439
-0.0794571
-0.0748643
-0.0808598
-0.0883258
-0.0922625
-0.0978507
-0.0987557
-0.107534
-0.124072
-0.123213
-0.110815
-0.102783
-0.0996607
-0.102036
-0.109955
-0.103416
-0.0872172
-0.0811539
-0.0901132
-0.0890046
-0.0878281
-0.0866064
-0.0853168
-0.0889593
-0.0925566
-0.0861539
-0.0797059
-0.0781448
-0.0764932
-0.0747738
-0.0730091
-0.0662444
-0.0594344
-0.062534
-0.0656109
-0.0637104
-0.06181
-0.0549322
-0.048077
-0.0612444
-0.0595476
-0.0479865
-0.0415159
-0.0401358
-0.0388689
-0.0375114
-0.0366064
-0.0359277
-0.0353394
-0.0348417
-0.0344797
-0.0342535
-0.034163
-0.0342082
-0.034344
-0.0345928
-0.0349548
-0.0354073
-0.0358598
-0.0363349
-0.0318779
-0.0375114
-0.033258
-0.0290951
-0.0299322
-0.0307919
-0.0367195
-0.0426924
-0.0337331
-0.0248417
-0.0359729
-0.0471494
-0.0434163
-0.0397512
-0.0409955
-0.042353
-0.0437105
-0.0451584
-0.0367195
-0.0233032
0.000135694
0.00859723
0.0120588
0.0255429
0.0440271
0.0626018
0.0812443
0.0999321
0.11371
0.112624
0.101674
0.0908597
0.080181
0.0595927
0.039095
0.013733
-0.0114932
-0.026629
-0.0416969
-0.0567421
-0.0717647
-0.0817421
-0.0866968
-0.0816742
-0.0766742
-0.0716516
-0.0666063
-0.0515385
-0.036448
-0.0063801
0.0286878
0.0987783
0.238869
0.573937
0.913982
1.27903
1.3491
0.884208
0.394276
-0.135747
-0.475792
-0.595815
-0.595769
-0.475679
-0.345634
-0.220656
-0.140656
-0.0955883
-0.0754978
-0.0804525
-0.0853846
-0.0902941
-0.095181
-0.0950453
-0.0949774
-0.0899774
-0.0849095
-0.0847738
-0.084638
-0.0895023
-0.0893665
-0.0792082
-0.0739819
-0.0737104
-0.0684616
-0.0632353
-0.0630091
-0.0627828
-0.062534
-0.0622625
-0.0520588
-0.0418552
-0.0366063
-0.0313122
-0.0309729
-0.0306335
-0.0203394
-0.0100679
-0.00979638
-0.00950227
-0.00418552
0.0011086
0.0113801
0.0216968
0.0270588
0.0373756
0.0476471
0.0529185
0.05819
0.0685068
0.0788688
0.0942082
0.10948
0.119774
0.130091
0.14543
0.160792
0.171131
0.181448
0.19181
0.202217
0.217557
0.232828
0.248122
0.238462
0.268846
0.269208
0.289502
0.309774
0.310113
0.310543
0.311086
0.311674
0.307285
0.302964
0.278756
0.264661
0.250634
0.226674
0.197783
0.168891
0.139955
0.110973
0.0869457
0.0628054
0.038552
0.0141855
-0.00529412
-0.0197964
-0.0293213
-0.038914
-0.0535747
-0.0633258
-0.0631448
-0.0629638
-0.0627828
-0.0625792
-0.0673529
-0.0720588
-0.0716968
-0.0711765
-0.0654751
-0.0594796
-0.0578507
-0.054638
-0.0498642
-0.0484842
-0.0468099
-0.0372398
-0.0298868
-0.0249547
-0.0215837
-0.0337556
-0.0459502
-0.042647
-0.0388009
-0.0394344
-0.0397511
-0.0399095
-0.04
-0.0451131
-0.0503846
-0.0558145
-0.0613801
-0.0520588
-0.0427375
-0.0533936
-0.0640045
-0.0645927
-0.0650905
-0.0654977
-0.0707692
-0.0808597
-0.0858371
-0.085724
-0.0854977
-0.085181
-0.0848869
-0.0846154
-0.0843439
-0.0840724
-0.0837783
-0.0834842
-0.0882353
-0.0980543
-0.0979638
-0.0880769
-0.0834163
-0.0847511
-0.0925792
-0.101855
-0.102557
-0.102511
-0.115882
-0.127149
-0.116154
-0.104027
-0.100995
-0.0982127
-0.105882
-0.113959
-0.102466
-0.0911765
-0.0901131
-0.0890272
-0.0929186
-0.0966742
-0.0952941
-0.0938914
-0.0924661
-0.0910181
-0.0845475
-0.078009
-0.0764027
-0.0797737
-0.0882353
-0.0815384
-0.064819
-0.0580316
-0.0611764
-0.0643212
-0.062466
-0.0605882
-0.0586877
-0.0568778
-0.0601357
-0.063552
-0.0570588
-0.050656
-0.0493891
-0.0482805
-0.0473302
-0.0465384
-0.0459049
-0.0403845
-0.0349999
-0.0347737
-0.0346832
-0.0446606
-0.0547284
-0.0549094
-0.0551809
-0.0455655
-0.036018
-0.0314705
-0.0270135
-0.0276018
-0.0282352
-0.0289366
-0.0297058
-0.0355203
-0.04138
-0.0372624
-0.0381221
-0.0540045
-0.0599999
-0.0510859
-0.0472398
-0.0484841
-0.0497737
-0.0460859
-0.0424208
-0.0437782
-0.0401809
-0.0316289
-0.0231221
-0.0146153
-0.00613116
0.00235299
0.00590503
0.00452494
0.0331901
0.0619005
0.0856335
0.109412
0.108326
0.107421
0.101606
0.0958824
0.0752715
0.0497512
0.0193213
-0.0110407
-0.0313574
-0.0516289
-0.0718326
-0.0869683
-0.0820588
-0.0771493
-0.0772398
-0.0773303
-0.0724208
-0.0625113
-0.0476018
-0.0277149
-0.00787328
0.0369683
0.0968552
0.326765
0.656674
0.976584
1.29649
1.13638
0.796244
0.341086
-0.154095
-0.394276
-0.584457
-0.524638
-0.419796
-0.319955
-0.215136
-0.155271
-0.090362
-0.0854751
-0.0806108
-0.0957466
-0.110882
-0.106018
-0.101154
-0.0962895
-0.0914253
-0.0915384
-0.0916289
-0.0817194
-0.0718325
-0.0769909
-0.0821266
-0.0771493
-0.0721267
-0.072104
-0.0720588
-0.0769683
-0.0819004
-0.0668551
-0.0568325
-0.0468551
-0.0419004
-0.036923
-0.031923
-0.026923
-0.021923
-0.016923
-0.011923
-0.011923
-0.00690039
0.00314488
0.00823535
0.00337109
0.00839371
0.0233485
0.0333032
0.043258
0.048258
0.0482806
0.0682806
0.0782806
0.0883032
0.0983485
0.108416
0.118507
0.128552
0.138575
0.138665
0.143756
0.168733
0.188665
0.198643
0.213643
0.228643
0.238643
0.248665
0.25871
0.258756
0.258824
0.273937
0.279072
0.284231
0.284502
0.269887
0.255226
0.240498
0.225928
0.216516
0.202195
0.182964
0.15371
0.124434
0.0951584
0.0708824
0.0515158
0.0320362
0.0124208
-0.00730769
-0.0220814
-0.0369457
-0.0519457
-0.0620362
-0.0621267
-0.0622172
-0.0623077
-0.0623982
-0.0624887
-0.0625566
-0.0625792
-0.062534
-0.0623756
-0.061991
-0.0613349
-0.059638
-0.0614254
-0.0617647
-0.0456787
-0.0303393
-0.031561
-0.0348642
-0.0254298
-0.0171266
-0.0197285
-0.0271267
-0.0391176
-0.0456787
-0.0467873
-0.0476923
-0.0433937
-0.0391629
-0.045
-0.0510181
-0.0521946
-0.0533032
-0.0543439
-0.0553394
-0.0562444
-0.0570589
-0.0577602
-0.0582806
-0.0586652
-0.0590045
-0.0692987
-0.0745249
-0.0796833
-0.0897964
-0.0999095
-0.0950905
-0.0903168
-0.0854977
-0.080724
-0.0809955
-0.0813801
-0.0818778
-0.0826471
-0.0836878
-0.0861086
-0.0899548
-0.0952715
-0.101923
-0.106878
-0.120045
-0.130792
-0.114457
-0.107376
-0.104706
-0.102443
-0.100588
-0.0942534
-0.0833937
-0.0777602
-0.0823077
-0.0867873
-0.0911991
-0.095543
-0.089819
-0.0890498
-0.0982353
-0.0974208
-0.0866063
-0.080724
-0.0797738
-0.0787783
-0.0777149
-0.0765837
-0.0754073
-0.0742082
-0.0729864
-0.0717873
-0.0706109
-0.0643665
-0.0580996
-0.07181
-0.0855204
-0.0693213
-0.0532353
-0.0572625
-0.0613801
-0.055543
-0.049819
-0.0441855
-0.0387557
-0.0435294
-0.0484616
-0.0485294
-0.0486878
-0.0489367
-0.0543213
-0.0648416
-0.0654299
-0.0561086
-0.0519457
-0.0478959
-0.0438914
-0.0449321
-0.0459728
-0.0420362
-0.03819
-0.0344118
-0.0307014
-0.0370362
-0.0434163
-0.0448416
-0.0463122
-0.0528281
-0.0544118
-0.051086
-0.0478054
-0.0445475
-0.0413575
-0.0382127
-0.0300226
-0.0218099
-0.00864254
0.00447964
0.00757919
0.0106788
0.0238009
0.0420362
0.0604073
0.0788688
0.102353
0.120905
0.109548
0.0983258
0.0922398
0.0762444
0.0553394
0.0295701
-0.00110859
-0.0217194
-0.0372624
-0.0527602
-0.0632353
-0.0736425
-0.0840045
-0.0844344
-0.0749321
-0.0703846
-0.0657918
-0.0461991
-0.0266063
0.00300907
0.0326471
0.0972625
0.161855
0.471471
0.791086
1.12066
1.4152
1.04477
0.659367
0.128891
-0.336652
-0.497127
-0.612579
-0.513032
-0.413484
-0.293959
-0.189434
-0.119842
-0.0702036
-0.0755882
-0.0809955
-0.0864253
-0.09181
-0.0921041
-0.0924434
-0.0928733
-0.0883032
-0.0786878
-0.0740272
-0.0743439
-0.0746833
-0.0750453
-0.0753846
-0.0707014
-0.0660181
-0.0613349
-0.056629
-0.0569005
-0.0571041
-0.0572398
-0.0574661
-0.0527828
-0.0430317
-0.0332127
-0.0284163
-0.0286652
-0.0189367
-0.0192082
-0.0044344
0.0103846
0.0152036
0.0200226
0.019819
0.019638
0.0295249
0.0393891
0.0391629
0.043914
0.0637104
0.0785294
0.088371
0.0982127
0.0980317
0.102851
0.122692
0.137557
0.152443
0.162353
0.17224
0.182172
0.192172
0.202104
0.211946
0.226787
0.246652
0.261516
0.27138
0.276267
0.276176
0.281154
0.291199
0.296312
0.291493
0.286697
0.281946
0.257308
0.23276
0.218258
0.208824
0.18948
0.170204
0.140882
0.111516
0.0921267
0.0726697
0.0431222
0.0234615
0.00866516
-0.00622171
-0.0161991
-0.0312217
-0.0512217
-0.0662896
-0.061448
-0.0566063
-0.0617195
-0.0668326
-0.0619457
-0.0569909
-0.0619683
-0.06681
-0.0615158
-0.055905
-0.0599774
-0.0576471
-0.0438688
-0.0335747
-0.0319231
-0.031991
-0.0238462
-0.0180996
-0.0194571
-0.0215385
-0.0241403
-0.0262896
-0.0229864
-0.0191403
-0.0248416
-0.0302715
-0.0305204
-0.0308823
-0.0312896
-0.0467195
-0.0622398
-0.0528733
-0.0436199
-0.044457
-0.0453394
-0.0512444
-0.0571493
-0.0530543
-0.0489367
-0.0547738
-0.0604977
-0.0610633
-0.0615158
-0.0668552
-0.0720588
-0.0821493
-0.0921946
-0.0871946
-0.0821946
-0.0821719
-0.0821041
-0.081991
-0.0768778
-0.0667873
-0.0616742
-0.0666063
-0.0715837
-0.0766063
-0.0816742
-0.0771719
-0.0836425
-0.101357
-0.10552
-0.100543
-0.10095
-0.104796
-0.105588
-0.104299
-0.0965158
-0.0884163
-0.0856335
-0.0833711
-0.0816063
-0.0802036
-0.079095
-0.0780317
-0.0919005
-0.105701
-0.0894796
-0.0732353
-0.0719457
-0.0705882
-0.0641403
-0.0576471
-0.0561312
-0.0545928
-0.0580543
-0.0614932
-0.0598869
-0.058258
-0.0566516
-0.0600453
-0.068439
-0.066991
-0.0557014
-0.0495023
-0.0433711
-0.037353
-0.036448
-0.0357014
-0.0351132
-0.0346154
-0.0342082
-0.0340046
-0.0339141
-0.0339141
-0.0290046
-0.0341177
-0.0492987
-0.0446154
-0.0350679
-0.0355656
-0.0360634
-0.0316064
-0.0272172
-0.0228507
-0.0185068
-0.0192308
-0.02
-0.0257693
-0.0315611
-0.0324209
-0.0333032
-0.0391629
-0.0451132
-0.0361765
-0.0273304
-0.0285295
-0.0297738
-0.031086
-0.0324435
-0.0338462
-0.0353168
-0.0368326
-0.0333485
-0.0249095
-0.0165159
0.00185517
0.00524883
0.00366513
0.0169909
0.0402488
0.0636199
0.082104
0.0956787
0.109367
0.113122
0.111968
0.106018
0.0952262
0.0695475
0.0389593
0.0184615
-0.00190046
-0.0271493
-0.0523756
-0.0626244
-0.0728733
-0.0730543
-0.0731901
-0.0733032
-0.0733937
-0.0684842
-0.063552
-0.0585747
-0.0485747
-0.023552
0.00142533
0.0163575
0.116312
0.331335
0.60629
0.936131
1.13595
1.22079
0.880634
0.225452
-0.219729
-0.53991
-0.600068
-0.530204
-0.410317
-0.280407
-0.185498
-0.105588
-0.0856335
-0.0906335
-0.095724
-0.090905
-0.0860407
-0.0861312
-0.0861991
-0.0862443
-0.0812896
-0.0763348
-0.0763575
-0.0763575
-0.0763801
-0.0764253
-0.0764706
-0.0764932
-0.0814706
-0.086448
-0.0764706
-0.0664932
-0.0614706
-0.0564253
-0.0513575
-0.046267
-0.0411312
-0.0360407
-0.0359955
-0.0359276
-0.0208371
-0.0157466
-0.0106561
-0.00558824
-0.0105204
-0.0104525
-0.000429866
0.0145928
0.029638
0.0346833
0.0397285
0.049819
0.0599548
0.0700905
0.0802262
0.085362
0.0904977
0.100633
0.110769
0.115905
0.121041
0.146176
0.16629
0.181403
0.196538
0.211697
0.226878
0.237059
0.24724
0.262398
0.277534
0.28267
0.287828
0.293054
0.298348
0.29371
0.289095
0.294502
0.294932
0.28043
0.266063
0.24681
0.222647
0.203575
0.17948
0.140339
0.111176
0.0819683
0.0576471
0.03819
0.00866515
-0.0209276
-0.0306335
-0.0354525
-0.0453394
-0.0552941
-0.0602489
-0.0652036
-0.0701357
-0.0700453
-0.0699548
-0.0698643
-0.0697738
-0.0796606
-0.0744344
-0.0690498
-0.0785294
-0.0875566
-0.0756561
-0.0625339
-0.0529412
-0.0424661
-0.0316063
-0.0222851
-0.0209502
-0.0216516
-0.0237783
-0.0261539
-0.0332127
-0.0397285
-0.0406561
-0.0411312
-0.0512217
-0.0612444
-0.0563122
-0.0514253
-0.0465385
-0.0416968
-0.0469457
-0.0522851
-0.0476923
-0.0430769
-0.0484616
-0.0539367
-0.0545249
-0.0552263
-0.0559955
-0.0617421
-0.0724661
-0.0782127
-0.0789593
-0.0796154
-0.0801584
-0.080543
-0.0808145
-0.0809729
-0.0910181
-0.0809729
-0.0708597
-0.0757014
-0.0805204
-0.0802489
-0.0799095
-0.0745023
-0.069095
-0.0737783
-0.0785521
-0.0733711
-0.0682127
-0.0679186
-0.0681222
-0.0736878
-0.0806561
-0.0790272
-0.0789819
-0.085
-0.0888914
-0.0956109
-0.0999774
-0.0973982
-0.0943213
-0.0959955
-0.0930996
-0.0806561
-0.0737331
-0.077172
-0.0807466
-0.0793892
-0.0779638
-0.0714706
-0.0648869
-0.0632127
-0.0615159
-0.0647964
-0.0680317
-0.0612217
-0.059457
-0.0627376
-0.0510181
-0.0393213
-0.0427149
-0.0461991
-0.0497964
-0.0535294
-0.0423303
-0.0312217
-0.0303168
-0.0295701
-0.0289593
-0.0284615
-0.0330317
-0.0377828
-0.0377376
-0.0377828
-0.0328959
-0.0280543
-0.0282579
-0.0285294
-0.0338688
-0.0392534
-0.0346607
-0.0300905
-0.025543
-0.0210181
-0.0215611
-0.0320815
-0.0476018
-0.0482353
-0.0389819
-0.0347512
-0.0305204
-0.0262896
-0.0270815
-0.027896
-0.0237331
-0.019638
-0.0256109
-0.031629
-0.0326923
-0.0338236
-0.0350226
-0.041267
-0.0475566
-0.0439367
-0.0404525
-0.0370362
-0.0336426
-0.0202715
-0.00190048
0.0164479
0.0297737
0.0280995
0.0314706
0.0499095
0.073371
0.0968778
0.110543
0.104366
0.0982352
0.0971267
0.0911086
0.0802262
0.0644796
0.0338687
0.0133484
-0.00708148
-0.0274208
-0.042715
-0.052896
-0.0629864
-0.0680543
-0.0730996
-0.0830996
-0.0930543
-0.0879864
-0.072896
-0.0528507
-0.0328507
-0.0128281
-0.0277828
0.0872624
0.172308
0.49233
0.81233
1.17233
1.41733
0.952353
0.477398
-0.0325792
-0.452579
-0.557579
-0.607579
-0.487602
-0.367624
-0.237602
-0.142557
-0.0975339
-0.0675566
-0.0726018
-0.0776018
-0.0825339
-0.0874661
-0.0874208
-0.0873756
-0.0923529
-0.0973077
-0.0921946
-0.0871041
-0.0820588
-0.0769457
-0.0717647
-0.0665837
-0.0614027
-0.0562896
-0.0612443
-0.0661312
-0.0609502
-0.0557466
-0.0555204
-0.0552941
-0.0600679
-0.0498416
-0.0346154
-0.0244118
-0.0142308
-0.0140045
-0.013733
-0.00346154
0.00680996
0.0120362
0.0172172
0.0224208
0.0276471
0.0329186
0.0382353
0.0385294
0.0437557
0.058914
0.0740498
0.0892081
0.0994118
0.104661
0.114932
0.125204
0.135475
0.150769
0.166086
0.17638
0.186652
0.196923
0.207172
0.217398
0.227624
0.237851
0.2581
0.278371
0.288643
0.298914
0.304276
0.304751
0.305294
0.310882
0.306471
0.287081
0.277783
0.268597
0.234525
0.20052
0.186516
0.172489
0.148416
0.119299
0.0901358
0.0609276
0.041629
0.0222398
0.00271494
-0.0169231
-0.031629
-0.0413575
-0.0511086
-0.0608824
-0.0706787
-0.0805204
-0.0804072
-0.0802941
-0.0751358
-0.0698643
-0.0694796
-0.0690272
-0.0686652
-0.0677828
-0.0665158
-0.0638009
-0.054638
-0.0438461
-0.0419457
-0.0421493
-0.0395023
-0.0391403
-0.0406787
-0.0427376
-0.0450452
-0.04681
-0.0480317
-0.0486425
-0.0488235
-0.0438462
-0.0387557
-0.0486652
-0.0585747
-0.0535294
-0.048552
-0.0486199
-0.048733
-0.058914
-0.0691629
-0.0644344
-0.0597964
-0.0650453
-0.0705882
-0.0761991
-0.08181
-0.0724208
-0.0629864
-0.0685521
-0.0740498
-0.0794344
-0.0846607
-0.0847738
-0.0847512
-0.089638
-0.0944344
-0.0891177
-0.0837331
-0.0882806
-0.0928507
-0.0924435
-0.091991
-0.0864932
-0.0809955
-0.0805656
-0.0802489
-0.0850227
-0.0898643
-0.0855883
-0.082715
-0.0863801
-0.086629
-0.0865159
-0.0952037
-0.101765
-0.100882
-0.0986652
-0.0953847
-0.0921946
-0.0893439
-0.0869005
-0.0848869
-0.0831222
-0.0765837
-0.0700679
-0.0735521
-0.0769683
-0.0753168
-0.0735747
-0.0667421
-0.0598869
-0.0630091
-0.0661312
-0.059276
-0.0524208
-0.050543
-0.0486878
-0.0469231
-0.045181
-0.0434616
-0.0419231
-0.0455656
-0.0442987
-0.0331222
-0.0270815
-0.0261991
-0.0304751
-0.0399095
-0.039457
-0.0291177
-0.0238688
-0.0237331
-0.0287104
-0.0337557
-0.0338462
-0.0339819
-0.0341629
-0.0344344
-0.0297738
-0.0251358
-0.0304978
-0.0358597
-0.0312217
-0.0266516
-0.027172
-0.0277149
-0.0283032
-0.0289366
-0.0295928
-0.0302489
-0.0309502
-0.0317195
-0.0375339
-0.0384163
-0.0293665
-0.025362
-0.0264027
-0.0274661
-0.0335746
-0.0347738
-0.0260407
-0.0223303
-0.0286425
-0.0350226
-0.0314706
-0.0229412
-0.0144344
-0.00590497
0.00264706
0.0111538
0.019638
0.0432127
0.0218778
0.0905882
0.109344
0.113122
0.116991
0.111041
0.105271
0.0846154
0.0640498
0.033552
0.0081674
-0.0220815
-0.0472851
-0.0574661
-0.0676471
-0.0728055
-0.0778507
-0.0728733
-0.0679186
-0.0679638
-0.0680091
-0.0630317
-0.0430091
-0.0129638
0.0120588
0.0320362
0.231991
0.541968
0.886946
1.2519
1.18688
0.936878
0.476878
-0.0581222
-0.343167
-0.568258
-0.538326
-0.448371
-0.343416
-0.238462
-0.173484
-0.113484
-0.0984389
-0.0883711
-0.0933711
-0.0984163
-0.0984616
-0.0984842
-0.0934389
-0.0883484
-0.0833032
-0.0783032
-0.0782805
-0.0782353
-0.0781674
-0.0780769
-0.083009
-0.0879185
-0.0827828
-0.077647
-0.0725339
-0.0673982
-0.0621946
-0.0569683
-0.0517421
-0.0465611
-0.041448
-0.0363348
-0.0361765
-0.0309729
-0.0207466
-0.015543
-0.015362
-0.0151584
-0.0149321
-0.00475114
0.0103846
0.0155656
0.0207919
0.0259955
0.0261538
0.0412896
0.0614253
0.0665837
0.0767647
0.0869683
0.0971946
0.102443
0.107715
0.117964
0.12819
0.143371
0.158529
0.168733
0.178959
0.184163
0.194344
0.214502
0.229661
0.239909
0.250181
0.25543
0.260679
0.270973
0.28129
0.276629
0.272014
0.272443
0.267919
0.253439
0.239005
0.224412
0.210158
0.201018
0.1769
0.147805
0.11871
0.0896154
0.0654525
0.0462217
0.0167873
-0.0127828
-0.0224887
-0.0323077
-0.0371493
-0.0370362
-0.0569909
-0.0669909
-0.0669683
-0.0669231
-0.0668552
-0.0667873
-0.0717421
-0.076629
-0.0713575
-0.0659502
-0.0654751
-0.0641176
-0.0563348
-0.0469683
-0.0409502
-0.0352715
-0.035724
-0.0382579
-0.0282127
-0.0194796
-0.0267873
-0.0339593
-0.035724
-0.0370362
-0.042896
-0.0485294
-0.0539593
-0.0543665
-0.0447964
-0.0403394
-0.0410181
-0.0468326
-0.0577375
-0.0636651
-0.0596154
-0.0555204
-0.0563575
-0.0571493
-0.0628507
-0.0684163
-0.0638461
-0.0691855
-0.0794796
-0.0797059
-0.0798643
-0.0849548
-0.09
-0.0900453
-0.0900905
-0.0851131
-0.0801131
-0.0801131
-0.0801584
-0.0852715
-0.0904299
-0.0906109
-0.0913348
-0.0976244
-0.105362
-0.0995475
-0.0951584
-0.106742
-0.11595
-0.117851
-0.112624
-0.100679
-0.0931674
-0.0953394
-0.098009
-0.101176
-0.104819
-0.108824
-0.113009
-0.107285
-0.101516
-0.0957014
-0.0897964
-0.0888009
-0.0877828
-0.0817421
-0.0756788
-0.0745702
-0.0733937
-0.082172
-0.0808824
-0.0795249
-0.0831674
-0.08681
-0.0804073
-0.0739593
-0.0725566
-0.0711991
-0.0698643
-0.0685747
-0.0523756
-0.036267
-0.0402489
-0.0443439
-0.0435521
-0.0428734
-0.0473304
-0.0519457
-0.0567195
-0.061629
-0.0466516
-0.0418779
-0.0423077
-0.0428055
-0.0483711
-0.0490046
-0.0396833
-0.0354751
-0.0363349
-0.0372172
-0.0431222
-0.0440724
-0.0350679
-0.0311312
-0.0372625
-0.0434389
-0.039638
-0.035905
-0.0422398
-0.0486199
-0.0500453
-0.0415159
-0.0430543
-0.0446833
-0.0463801
-0.0430769
-0.0397738
-0.0415385
-0.0433484
-0.040181
-0.0370362
-0.023914
-0.0108145
-0.00276017
0.0102941
0.028371
0.051629
0.0799547
0.0983484
0.106787
0.115294
0.108914
0.0977149
0.086629
0.0656787
0.034819
0.00404977
-0.0216063
-0.0372398
-0.0478733
-0.0584615
-0.0689819
-0.074457
-0.0699095
-0.0653846
-0.0658824
-0.0663348
-0.0617421
-0.0471493
-0.0325566
-0.0180091
-0.00348416
0.121086
0.245656
0.565158
0.884615
1.20912
1.43867
0.91819
0.412692
-0.0528281
-0.433348
-0.543824
-0.594276
-0.479729
-0.360181
-0.245656
-0.156131
-0.111606
-0.0871493
-0.0877149
-0.0882353
-0.0937104
-0.0991403
-0.0945475
-0.0899774
-0.0904073
-0.0908145
-0.0862217
-0.0816064
-0.0870136
-0.0924208
-0.0878281
-0.0832353
-0.0836425
-0.0840498
-0.079457
-0.074819
-0.0701358
-0.0654525
-0.0607692
-0.0560407
-0.051267
-0.0415158
-0.0267873
-0.0270362
-0.0272624
-0.0225113
-0.0177828
-0.0130543
-0.00834842
0.00638009
0.0211086
0.0258597
0.0306335
0.0404072
0.050181
0.0549547
0.0597285
0.0645475
0.0693439
0.079095
0.0888462
0.0986425
0.108507
0.123394
0.13319
0.147941
0.162738
0.177534
0.192308
0.202081
0.2169
0.231719
0.241538
0.251357
0.261199
0.271063
0.275928
0.280792
0.285679
0.285588
0.285566
0.290611
0.290679
0.295792
0.260995
0.246312
0.226765
0.207308
0.187896
0.168529
0.13414
0.109706
0.0802489
0.055724
0.0310633
0.011267
0.00133484
-0.00868779
-0.0187557
-0.0338914
-0.0490498
-0.0592308
-0.0543891
-0.0495475
-0.0547285
-0.0599095
-0.0600679
-0.0601358
-0.0551131
-0.0550226
-0.0648643
-0.0641629
-0.0529186
-0.0452263
-0.041086
-0.0354751
-0.0288235
-0.0245249
-0.0175113
-0.0126018
-0.0144118
-0.0167195
-0.0242534
-0.0312443
-0.0326697
-0.0385747
-0.044095
-0.034457
-0.0247285
-0.03
-0.0352715
-0.0405656
-0.045905
-0.041267
-0.0366742
-0.0371493
-0.0376697
-0.0432127
-0.0487557
-0.0493439
-0.0501358
-0.0560633
-0.0620362
-0.0580769
-0.0540724
-0.065
-0.0758597
-0.0766516
-0.0773303
-0.0728733
-0.0682579
-0.0685068
-0.0686425
-0.0736199
-0.0785068
-0.0783258
-0.0781448
-0.0829638
-0.0827602
-0.072534
-0.0672624
-0.071991
-0.0767873
-0.0816516
-0.0815611
-0.0716063
-0.0668552
-0.0780543
-0.0756109
-0.0747285
-0.0804751
-0.0854299
-0.0986878
-0.109548
-0.0927602
-0.075
-0.0766063
-0.0784615
-0.0757466
-0.073552
-0.0719231
-0.0704299
-0.069095
-0.0676923
-0.0662217
-0.0646606
-0.063009
-0.0613575
-0.0597059
-0.0580543
-0.0564253
-0.0547964
-0.0481448
-0.0414932
-0.039819
-0.0383258
-0.0369231
-0.0356109
-0.0343892
-0.0332579
-0.0322172
-0.0313122
-0.0354977
-0.0398869
-0.0394118
-0.0390724
-0.0338462
-0.0286878
-0.0286199
-0.0236425
-0.0287557
-0.0289593
-0.0292308
-0.0244796
-0.0197285
-0.0200453
-0.0204072
-0.0257466
-0.031086
-0.031448
-0.0318552
-0.027353
-0.0229186
-0.0233937
-0.0240045
-0.024638
-0.0253168
-0.0260407
-0.02681
-0.0276018
-0.0284389
-0.0293439
-0.0302715
-0.0362444
-0.0423077
-0.0434389
-0.0396606
-0.0309729
-0.0272851
-0.0285973
-0.0299548
-0.0313801
-0.0278959
-0.0194796
-0.00606336
0.00735294
0.0157919
0.0242534
0.0276697
0.031086
0.0695928
0.10319
0.116833
0.130566
0.119457
0.108507
0.0976471
0.0868552
0.0661538
0.0405656
0.0101131
-0.0152262
-0.0304751
-0.0506335
-0.070724
-0.0857466
-0.0807014
-0.0756561
-0.0756335
-0.0755882
-0.0704751
-0.0553167
-0.0351584
-0.0150452
0.00502262
0.0450905
0.0952036
0.310339
0.61543
0.96552
1.33561
1.17072
0.80586
0.285905
-0.28414
-0.489095
-0.613959
-0.543846
-0.433756
-0.303688
-0.168643
-0.123575
-0.0734842
-0.078371
-0.0832353
-0.0930995
-0.102964
-0.0978054
-0.0926244
-0.0874661
-0.0823303
-0.0821719
-0.0819909
-0.0817873
-0.0815611
-0.0763575
-0.0711539
-0.0708824
-0.0705882
-0.0702715
-0.0699548
-0.074638
-0.079276
-0.0638914
-0.0585973
-0.053371
-0.0481222
-0.0428281
-0.0324887
-0.0221267
-0.0167873
-0.0115158
-0.00622173
-0.00590499
-0.000542998
0.00986425
0.0152715
0.0106787
0.0111312
0.0215611
0.0319457
0.0423077
0.0576697
0.0480543
0.0834842
0.088914
0.0992986
0.109661
0.120045
0.130452
0.14586
0.161267
0.166652
0.172036
0.187443
0.202851
0.218235
0.23362
0.24405
0.254525
0.260023
0.270475
0.285882
0.296312
0.301787
0.307353
0.303009
0.298688
0.304389
0.300136
0.280928
0.261878
0.247964
0.224118
0.195339
0.166538
0.137715
0.113824
0.0948643
0.0708145
0.0466516
0.0273756
0.00800905
-0.011448
-0.0309955
-0.0505882
-0.0652489
-0.0649321
-0.0646154
-0.069276
-0.073914
-0.0785294
-0.0830769
-0.0775566
-0.0719683
-0.0712896
-0.0704299
-0.0693439
-0.0672851
-0.0588462
-0.0488009
-0.0470588
-0.0460859
-0.0317873
-0.0198416
-0.0254751
-0.0320135
-0.034095
-0.0358823
-0.0321945
-0.0279185
-0.0330316
-0.0379411
-0.0426244
-0.0473303
-0.0470588
-0.0467873
-0.0515158
-0.0562669
-0.0510407
-0.0457918
-0.0505203
-0.0552488
-0.055
-0.0547963
-0.049638
-0.0495248
-0.0644343
-0.0693665
-0.0743665
-0.0744344
-0.0745927
-0.0848642
-0.0952715
-0.0807239
-0.0661538
-0.0715158
-0.0767873
-0.0819683
-0.0870362
-0.0769909
-0.0667873
-0.0714027
-0.075905
-0.0803167
-0.0847059
-0.0840497
-0.0833031
-0.0975113
-0.0967647
-0.0860181
-0.0802488
-0.074457
-0.0736199
-0.0828733
-0.082104
-0.0715837
-0.0665384
-0.0723303
-0.0795249
-0.0831448
-0.0881447
-0.087647
-0.0896606
-0.099457
-0.10224
-0.0938913
-0.0850452
-0.0812895
-0.0830316
-0.0852262
-0.0728732
-0.0607692
-0.0588008
-0.0568099
-0.0597284
-0.0626017
-0.0554976
-0.0484162
-0.0513121
-0.0542307
-0.0472624
-0.0404072
-0.0386198
-0.0369456
-0.0404072
-0.0440497
-0.0378732
-0.0318099
-0.030837
-0.0299773
-0.0342307
-0.038552
-0.0329411
-0.032466
-0.0421266
-0.0419004
-0.0317646
-0.0266515
-0.031561
-0.0364931
-0.0364479
-0.0364705
-0.031561
-0.0266515
-0.026742
-0.0268551
-0.0269909
-0.0271492
-0.0273302
-0.0324886
-0.0376696
-0.0329411
-0.0282804
-0.0286198
-0.0289366
-0.0342985
-0.039751
-0.0352714
-0.030837
-0.0314252
-0.0320135
-0.032647
-0.0333936
-0.0342533
-0.0351583
-0.0460632
-0.0570587
-0.0481673
-0.0393438
-0.0405429
-0.041742
-0.0429863
-0.0393212
-0.0307239
-0.0221492
-0.00857456
1.04308e-07
0.00350688
0.0170137
0.0305431
0.0491856
0.0679413
0.0917195
0.11552
0.11448
0.103643
0.0879413
0.0723304
0.0567648
0.0412897
0.0109729
-0.0242081
-0.0443212
-0.0643891
-0.0644343
-0.0644117
-0.0792986
-0.0941628
-0.084095
-0.0740271
-0.068914
-0.0637782
-0.0585972
-0.0484162
-0.0183257
0.0417422
0.156855
0.352014
0.672172
0.997285
1.31738
1.22249
0.677647
0.19276
-0.237217
-0.472217
-0.567195
-0.532104
-0.411968
-0.301878
-0.196833
-0.131742
-0.0866063
-0.0814479
-0.0962669
-0.101154
-0.101109
-0.100973
-0.100792
-0.100656
-0.0955656
-0.0904298
-0.0902488
-0.0900452
-0.089819
-0.079638
-0.0695022
-0.0693439
-0.0691629
-0.0689593
-0.068733
-0.0735294
-0.0783484
-0.0681448
-0.0579412
-0.0527828
-0.0476244
-0.0424208
-0.0371945
-0.0369909
-0.0368099
-0.0266289
-0.0164253
-0.0111765
-0.00592757
-0.000701338
0.00452492
0.00975116
0.0149774
0.0152036
0.0254073
0.0405883
0.0508145
0.061086
0.0663575
0.071629
0.0868552
0.102036
0.11224
0.122466
0.12767
0.132851
0.153032
0.173235
0.178484
0.178756
0.198959
0.219095
0.229253
0.239434
0.244615
0.249796
0.264977
0.280181
0.28543
0.290724
0.291086
0.291493
0.286923
0.277421
0.252986
0.22862
0.214321
0.200158
0.181131
0.152081
0.117964
0.0937783
0.0795249
0.055181
0.0307466
0.0111991
-0.00848414
-0.0232805
-0.03319
-0.0530543
-0.0728733
-0.0778054
-0.0778507
-0.0778507
-0.0778054
-0.0777375
-0.082647
-0.0825565
-0.0724434
-0.0671719
-0.0666063
-0.0705429
-0.0736199
-0.0652262
-0.0553393
-0.0540045
-0.0530995
-0.0396832
-0.0284841
-0.0292307
-0.0310407
-0.0432805
-0.0553619
-0.051923
-0.048009
-0.0486198
-0.0489592
-0.0541176
-0.059276
-0.0495248
-0.0398416
-0.0552036
-0.0606334
-0.0561312
-0.0516515
-0.0571945
-0.0628506
-0.0686425
-0.0745474
-0.0705429
-0.0664705
-0.0673302
-0.0681447
-0.0738913
-0.07957
-0.0801357
-0.0805655
-0.0809049
-0.0811312
-0.0812443
-0.0812895
-0.0812895
-0.0812443
-0.0811764
-0.0811538
-0.0811538
-0.0861085
-0.0910633
-0.0860633
-0.0811312
-0.0812669
-0.0818099
-0.0828054
-0.0850904
-0.0887782
-0.093914
-0.102557
-0.112285
-0.115113
-0.115633
-0.109004
-0.101584
-0.0985067
-0.0958597
-0.0886651
-0.0819683
-0.0807239
-0.0846153
-0.0935972
-0.0975791
-0.0915836
-0.085475
-0.0792533
-0.0729864
-0.0716742
-0.0703619
-0.0690497
-0.0676922
-0.0662895
-0.0648642
-0.0634162
-0.0619909
-0.0605882
-0.0592081
-0.0578732
-0.0516741
-0.0456108
-0.0496379
-0.0537556
-0.0479411
-0.0422624
-0.0417873
-0.0414479
-0.036199
-0.0310859
-0.0360859
-0.041199
-0.0364479
-0.0318099
-0.0422397
-0.0527827
-0.0434388
-0.0341402
-0.0348642
-0.0356108
-0.03638
-0.0372171
-0.0331447
-0.029095
-0.0350226
-0.0409502
-0.0369004
-0.0329638
-0.039095
-0.0452262
-0.0463801
-0.047647
-0.0440271
-0.0404299
-0.0418326
-0.0432353
-0.0446833
-0.046267
-0.0429638
-0.0396833
-0.0414253
-0.0382127
-0.0350226
-0.0318778
-0.0287783
-0.0206335
-0.0124435
0.000656068
0.0137104
0.0168099
0.0249999
0.0532352
0.0815384
0.104909
0.123371
0.116991
0.110747
0.0996153
0.0835746
0.0676018
0.0417194
0.00595018
-0.0197512
-0.0353847
-0.0509955
-0.0615611
-0.0670362
-0.0724435
-0.0728733
-0.0633258
-0.0587783
-0.0592308
-0.0496833
-0.0351358
-0.0155882
0.00395928
0.0985294
0.203122
0.492692
0.80224
1.13176
0.816267
1.06577
0.655226
0.149615
-0.321018
-0.481606
-0.612149
-0.50767
-0.398167
-0.28362
-0.179027
-0.129434
-0.0898642
-0.085362
-0.0809049
-0.0864253
-0.0918778
-0.0922624
-0.0926697
-0.0881222
-0.083552
-0.0789593
-0.0743665
-0.0747737
-0.075181
-0.0705882
-0.0659502
-0.066267
-0.066629
-0.0620362
-0.0573982
-0.0527149
-0.0480317
-0.0533484
-0.0536878
-0.0440498
-0.0393891
-0.0347059
-0.0299774
-0.0302036
-0.0254525
-0.0157014
-0.00588236
-0.00106335
0.00364252
0.00828053
0.0129864
0.0177602
0.0225339
0.0273077
0.0420588
0.0567873
0.0615385
0.0663122
0.0710633
0.0757919
0.095543
0.105339
0.110136
0.119864
0.139547
0.159253
0.174005
0.183801
0.18362
0.193394
0.213122
0.227828
0.237534
0.247308
0.257127
0.261968
0.266833
0.271742
0.271697
0.271652
0.276606
0.281606
0.276674
0.26181
0.246991
0.227262
0.207647
0.183145
0.153733
0.129321
0.104909
0.0854525
0.0659276
0.0413575
0.0166742
0.00178732
-0.0132353
-0.0183258
-0.0284842
-0.0486652
-0.0638688
-0.0591403
-0.0544344
-0.054638
-0.054819
-0.06
-0.0651358
-0.0602036
-0.0551584
-0.06
-0.0644344
-0.0584163
-0.051086
-0.042353
-0.0321041
-0.033258
-0.0233258
-0.00529414
0.000452459
-0.00592763
-0.0130091
-0.0206561
-0.0278507
-0.0345702
-0.0407466
-0.0414254
-0.0419005
-0.0372172
-0.032534
-0.0328507
-0.0431901
-0.0535973
-0.0440724
-0.0346154
-0.0402036
-0.0457919
-0.0463575
-0.0469683
-0.0476697
-0.0485068
-0.059457
-0.0704073
-0.0613801
-0.0523303
-0.0583032
-0.0640498
-0.0697059
-0.0752489
-0.065724
-0.0561086
-0.0613575
-0.0664932
-0.0715158
-0.0764706
-0.0763801
-0.081267
-0.0911086
-0.0859276
-0.0707466
-0.0655656
-0.0704072
-0.0753167
-0.0752941
-0.0753394
-0.0707014
-0.0666063
-0.0684615
-0.0716968
-0.0764027
-0.0826018
-0.0876244
-0.094638
-0.099276
-0.0868778
-0.0738235
-0.0756787
-0.0778507
-0.0805204
-0.0836878
-0.0724208
-0.0612443
-0.0550453
-0.0487783
-0.0574208
-0.0659955
-0.0645249
-0.0630317
-0.0665159
-0.07
-0.0585068
-0.0470136
-0.0404978
-0.0389819
-0.0475113
-0.0461086
-0.0347738
-0.0285295
-0.0273756
-0.0263575
-0.0304978
-0.0347512
-0.0341177
-0.0335973
-0.0381901
-0.0379186
-0.0277828
-0.0227376
-0.0227829
-0.0228507
-0.0279865
-0.028258
-0.0186199
-0.0139819
-0.0243439
-0.0247285
-0.0251584
-0.0256562
-0.0261991
-0.0317421
-0.0373077
-0.0329412
-0.0286426
-0.0293666
-0.0300905
-0.0358145
-0.0415838
-0.0324435
-0.0233032
-0.0241403
-0.0250227
-0.0309955
-0.0370589
-0.0332127
-0.0294118
-0.0356562
-0.0420136
-0.0384616
-0.0349548
-0.0314706
-0.0279865
-0.0295249
-0.0211765
-0.00794122
0.00533933
0.0186651
0.0219909
0.0203167
0.0336651
0.0520588
0.0805656
0.10914
0.112738
0.116403
0.110249
0.119276
0.0734163
0.0576471
0.0369457
0.0163348
-0.00411767
-0.0244118
-0.044638
-0.0648417
-0.0750227
-0.0851358
-0.0851584
-0.085181
-0.0802715
-0.075362
-0.0703846
-0.0603168
-0.0402489
-0.0202489
-0.00029413
0.0746606
0.209638
0.434661
0.744706
1.07473
1.40973
1.15477
0.509864
-0.00513575
-0.450226
-0.585272
-0.585272
-0.495249
-0.370204
-0.250226
-0.125317
-0.095362
-0.080362
-0.0803167
-0.0902262
-0.095181
-0.095181
-0.0951584
-0.0951131
-0.0901131
-0.0851584
-0.0851357
-0.0850452
-0.0799095
-0.0747511
-0.0746606
-0.0745928
-0.0744796
-0.0743439
-0.0691855
-0.0640045
-0.0638461
-0.0636878
-0.0585068
-0.0533484
-0.0482353
-0.0431222
-0.0379638
-0.0327602
-0.0325339
-0.0273303
-0.017172
-0.0120136
-0.00680996
-0.00158372
0.00359728
0.0138009
0.0240271
0.029276
0.0345475
0.0447511
0.0548869
0.0650679
0.0752941
0.0805204
0.0857466
0.100928
0.116063
0.121244
0.131471
0.146697
0.161923
0.177127
0.192308
0.197534
0.202783
0.222964
0.2431
0.253281
0.263507
0.268756
0.274027
0.289276
0.304548
0.304887
0.305294
0.300769
0.296267
0.291765
0.282376
0.258122
0.243937
0.229819
0.205747
0.176719
0.14767
0.118665
0.0944344
0.0751131
0.0507013
0.0261991
0.00162894
-0.0180091
-0.0277602
-0.0376245
-0.0575113
-0.0774208
-0.082353
-0.0773077
-0.0722398
-0.0721494
-0.0870136
-0.09181
-0.0815385
-0.0711991
-0.0707693
-0.07
-0.0736426
-0.0762896
-0.067534
-0.0572625
-0.0604299
-0.0647511
-0.0470362
-0.0316742
-0.0333258
-0.0355656
-0.0477828
-0.059638
-0.0509728
-0.0417647
-0.0419909
-0.0420588
-0.0470362
-0.0520362
-0.0521041
-0.0521946
-0.0572851
-0.0624435
-0.0576923
-0.0529865
-0.0583032
-0.0636199
-0.0689819
-0.074457
-0.0700453
-0.0657466
-0.0665159
-0.0673077
-0.0730996
-0.0788009
-0.0793892
-0.0848869
-0.0902941
-0.0856109
-0.0807919
-0.0808145
-0.0807014
-0.0854751
-0.0902036
-0.0849321
-0.079638
-0.0793213
-0.0790046
-0.0786426
-0.0782353
-0.0828281
-0.0874435
-0.0920589
-0.0967874
-0.0866742
-0.0771041
-0.0832127
-0.0907466
-0.0947059
-0.0999548
-0.100634
-0.0985295
-0.0988688
-0.0972625
-0.0942308
-0.0909503
-0.0876471
-0.0847738
-0.0873756
-0.085543
-0.0740498
-0.0675792
-0.0710633
-0.074457
-0.0727828
-0.0711086
-0.0644344
-0.0576923
-0.0558823
-0.0540724
-0.0522624
-0.0504751
-0.0487104
-0.0569457
-0.0652263
-0.0486652
-0.0321946
-0.0357919
-0.0395023
-0.0383485
-0.0373756
-0.0316064
-0.0259729
-0.0254299
-0.025
-0.0296833
-0.0345249
-0.0295023
-0.0245023
-0.0295249
-0.0347059
-0.0300453
-0.0254299
-0.0258145
-0.0261765
-0.0315385
-0.0370136
-0.0325566
-0.0280996
-0.0286426
-0.0292308
-0.0248643
-0.0205656
-0.0213349
-0.0270815
-0.0378281
-0.0386878
-0.0296606
-0.0256109
-0.0265385
-0.0325113
-0.038552
-0.0297285
-0.0210181
-0.0223077
-0.0236199
-0.03
-0.0364253
-0.0329186
-0.029457
-0.0310181
-0.0326018
-0.0192308
-0.000904977
0.0124434
0.0207919
0.0191403
0.0274887
0.0558371
0.0842534
0.107783
0.121425
0.125181
0.124072
0.108077
0.0872172
0.0665158
0.0458823
0.0303167
0.00486424
-0.0254751
-0.050724
-0.070905
-0.0760634
-0.0761991
-0.0762444
-0.0712444
-0.0662444
-0.0712444
-0.0762444
-0.0712444
-0.0562444
-0.0462444
-0.016267
0.0236878
0.153665
0.313665
0.638643
0.963597
1.25353
1.35344
0.753371
0.203326
-0.221697
-0.526697
-0.56672
-0.556742
-0.446742
-0.326765
-0.196833
-0.1169
-0.0919231
-0.0818778
-0.09181
-0.09681
-0.0918552
-0.0868778
-0.0868552
-0.0867874
-0.0866968
-0.086629
-0.0865611
-0.0864254
-0.0912444
-0.0911312
-0.081086
-0.0759729
-0.0757919
-0.0756109
-0.0754299
-0.0652715
-0.0501357
-0.0449548
-0.0447285
-0.0444796
-0.0442081
-0.0339819
-0.0238009
-0.0285747
-0.0333032
-0.0180543
-0.00282804
0.00242082
0.00769232
0.00796381
0.00821269
0.0183937
0.0285294
0.0387331
0.0489819
0.0592534
0.0695023
0.0797511
0.0900453
0.090362
0.0956109
0.110769
0.12595
0.136199
0.146493
0.15681
0.172081
0.192308
0.207579
0.217896
0.233213
0.248529
0.258824
0.269095
0.274412
0.279774
0.285113
0.29043
0.295814
0.29629
0.301855
0.297466
0.293032
0.28862
0.269367
0.250271
0.23129
0.207376
0.178484
0.149593
0.115656
0.081629
0.0624661
0.0431901
0.0238462
0.0044344
-0.0151131
-0.029819
-0.0396606
-0.0495023
-0.0643213
-0.0691176
-0.0688688
-0.0686199
-0.0684163
-0.0682127
-0.0729638
-0.0776923
-0.0774208
-0.0769909
-0.0713575
-0.0651357
-0.06319
-0.0597964
-0.0499547
-0.0387782
-0.0321266
-0.02819
-0.031742
-0.0372171
-0.0340723
-0.0360859
-0.0430316
-0.0395022
-0.0354524
-0.0358144
-0.035837
-0.0457918
-0.0557692
-0.0458597
-0.036018
-0.0411991
-0.04638
-0.0515837
-0.0568778
-0.0522624
-0.0527601
-0.0683484
-0.0790271
-0.074819
-0.0705429
-0.0711538
-0.0716742
-0.0771267
-0.0824434
-0.077647
-0.0726923
-0.0775565
-0.0823077
-0.0869909
-0.0916742
-0.0863574
-0.0809955
-0.0855882
-0.0902262
-0.0899095
-0.0895249
-0.0891176
-0.0887782
-0.0885068
-0.0833484
-0.0738688
-0.0704298
-0.0833032
-0.092647
-0.102602
-0.102738
-0.100882
-0.106222
-0.109796
-0.0969231
-0.0838688
-0.0858597
-0.0882127
-0.0910181
-0.0942534
-0.0879411
-0.0816063
-0.0802488
-0.0787783
-0.0772172
-0.0756108
-0.0739592
-0.0722172
-0.0753846
-0.0785746
-0.0717872
-0.0649999
-0.0632126
-0.06138
-0.0645248
-0.0626696
-0.0508596
-0.0440949
-0.0473755
-0.0507692
-0.0492759
-0.0478959
-0.0466515
-0.0455429
-0.0495927
-0.0488461
-0.0382805
-0.032828
-0.0324886
-0.0422398
-0.0420814
-0.0320361
-0.0220814
-0.0271945
-0.0323755
-0.037647
-0.0429864
-0.0383709
-0.0337782
-0.0391854
-0.0446379
-0.0351809
-0.0257691
-0.0313574
