ekg
0
0.00666667
0.00100001
0.00928572
0.0194445
0.00818183
-0.00307692
-0.003
-0.00264706
0.00263156
0.00857142
0.0113043
0.0158
0.0162963
0.0174138
0.0240323
0.0310606
0.0382857
0.0444595
0.0448718
0.045122
0.0346512
0.0286667
0.017234
0.00520408
-0.00205882
-0.0095283
-0.0172727
-0.0255263
-0.0341525
-0.0427049
-0.050873
-0.0592308
-0.0679851
-0.0717391
-0.0652817
-0.0589041
-0.0578667
-0.0568831
-0.0606329
-0.0642593
-0.0580121
-0.052
-0.0508621
-0.0498876
-0.0495055
-0.0446237
-0.0398421
-0.0402062
-0.0407576
-0.0416832
-0.0431068
-0.0447143
-0.0460748
-0.0416972
-0.0364414
-0.0306637
-0.0245652
-0.0235897
-0.022563
-0.0315289
-0.0404065
-0.03928
-0.0381102
-0.031938
-0.025916
-0.02
-0.0192963
-0.0285401
-0.0329496
-0.0324468
-0.0323776
-0.0352069
-0.0409524
-0.0534564
-0.0722517
-0.0814052
-0.0770323
-0.0765605
-0.0796541
-0.0786646
-0.0777914
-0.0718485
-0.0659581
-0.0650888
-0.0692105
-0.073526
-0.0678286
-0.0622034
-0.0467039
-0.031326
-0.0210656
-0.0108378
-0.010615
-0.0105026
-0.00557591
-0.000751293
0.00405128
0.00873096
0.0181658
0.0325124
0.0468473
0.056122
0.0602657
0.0641866
0.0580806
0.0419014
0.0206977
-0.000414746
-0.0315068
-0.0475792
-0.0629412
-0.0781901
-0.0884163
-0.0935747
-0.0886652
-0.0837783
-0.0888914
-0.093914
-0.0938462
-0.0936878
-0.0984163
-0.103054
-0.102624
-0.102172
-0.101697
-0.111176
-0.110633
-0.105068
-0.099457
-0.0988235
-0.0981901
-0.0876244
-0.0771041
-0.0816516
-0.086267
-0.0809502
-0.0757014
-0.0704751
-0.0652715
-0.0701131
-0.0599774
-0.0148643
0.085181
0.260158
0.550113
0.970091
1.42007
1.89502
1.74498
1.09991
0.359819
-0.445249
-0.715272
-0.695272
-0.530294
-0.305339
-0.185362
-0.105362
-0.080362
-0.070362
-0.0653394
-0.0702941
-0.0752489
-0.0752036
-0.0751131
-0.0699774
-0.0698416
-0.0747059
-0.0745475
-0.0743665
-0.0642081
-0.0540724
-0.0589367
-0.0638009
-0.0586425
-0.0534615
-0.0482805
-0.0431222
-0.038009
-0.0329186
-0.0278054
-0.0226697
-0.0225339
-0.0223756
-0.0221719
-0.021991
-0.0168778
-0.00683258
0.0031448
0.0080543
0.0129186
0.0177828
0.0176697
0.0175113
0.0222851
0.0370362
0.0517647
0.0564932
0.0611991
0.065905
0.0656335
0.0653846
0.0701584
0.0749095
0.0796833
0.0945701
0.109593
0.114751
0.115
0.120339
0.125814
0.131425
0.137104
0.132805
0.128529
0.129253
0.129932
0.130543
0.131086
0.131493
0.131833
0.132104
0.132308
0.127511
0.122715
0.117964
0.108213
0.0884163
0.0685747
0.0537104
0.0338688
0.0140272
-0.000882348
-0.0108371
-0.0207918
-0.0307466
-0.0357919
-0.0408823
-0.0509276
-0.0609276
-0.0659276
-0.0661086
-0.0666742
-0.0680543
-0.0707692
-0.0704299
-0.0725792
-0.0854751
-0.0978507
-0.102285
-0.107398
-0.110339
-0.102014
-0.0935747
-0.0902489
-0.0863348
-0.0761991
-0.0642534
-0.0553168
-0.0470588
-0.0416742
-0.0396154
-0.0461991
-0.0540045
-0.0517195
-0.0486878
-0.049638
-0.0500679
-0.0501584
-0.0501131
-0.055
-0.0599095
-0.0598869
-0.0599095
-0.0649548
-0.0700453
-0.0651584
-0.0602489
-0.0653394
-0.0704299
-0.0755204
-0.0805656
-0.0805656
-0.0806335
-0.0807692
-0.080905
-0.0760407
-0.0711539
-0.0712444
-0.0713349
-0.076448
-0.0815837
-0.0817195
-0.0818778
-0.0820588
-0.0772624
-0.0724887
-0.0626923
-0.0528733
-0.0430543
-0.0332353
-0.0334163
-0.0335973
-0.0188009
-0.00402715
-0.0042534
-0.00443439
0.000452483
0.0103394
0.0252262
0.0351357
0.0400452
0.0449321
0.049819
0.0447285
0.0246606
-0.000316747
-0.0252036
-0.0400453
-0.0498643
-0.0646833
-0.0795023
-0.0842986
-0.0840498
-0.0837557
-0.0884163
-0.0930091
-0.0975339
-0.101991
-0.10138
-0.100724
-0.100023
-0.099276
-0.108484
-0.11267
-0.116833
-0.110973
-0.105113
-0.0992987
-0.093552
-0.097896
-0.102353
-0.0919005
-0.0815159
-0.0811539
-0.0808145
-0.0705204
-0.0602489
-0.065
-0.069819
-0.0697059
-0.0296154
0.0654751
0.255566
0.545656
0.970769
1.52593
1.69609
1.5862
0.941312
-0.018552
-0.488462
-0.723416
-0.648326
-0.44819
-0.288077
-0.137986
-0.0878507
-0.0526697
-0.0524887
-0.0623077
-0.0671267
-0.0669457
-0.0667647
-0.0665837
-0.0663801
-0.0661539
-0.0609502
-0.0557693
-0.0605882
-0.0653846
-0.0551584
-0.0449321
-0.0397059
-0.0344797
-0.024276
-0.014095
-0.0188914
-0.0236652
-0.0234616
-0.0232806
-0.0230769
-0.0229412
-0.0128507
-0.00273756
0.00239819
0.00753394
0.00769231
0.00782806
0.0129186
0.0229412
0.0328733
0.0377828
0.0426923
0.0475792
0.0524435
0.0573529
0.0572851
0.062172
0.0720136
0.0768326
0.0816516
0.0864706
0.0912444
0.0959955
0.100837
0.105792
0.105837
0.110995
0.116312
0.11681
0.117443
0.123167
0.128937
0.129729
0.130498
0.126176
0.121742
0.117217
0.112647
0.118009
0.123303
0.123552
0.118824
0.10414
0.0894344
0.0746833
0.0599321
0.045181
0.0303846
0.0205656
0.0107466
0.000927616
-0.00893664
-0.0188914
-0.0288688
-0.0388688
-0.0488688
-0.0588688
-0.0638461
-0.0588009
-0.053733
-0.0537783
-0.0540724
-0.0599774
-0.0668326
-0.0703394
-0.075905
-0.0831674
-0.0869683
-0.08819
-0.0898643
-0.0887104
-0.0851584
-0.0806787
-0.0804072
-0.0789593
-0.0658145
-0.0522624
-0.0495023
-0.0497285
-0.0443439
-0.0411086
-0.0489819
-0.0564932
-0.0530769
-0.0489593
-0.0541855
-0.0591855
-0.0590271
-0.0588914
-0.0588235
-0.0587783
-0.063733
-0.0686878
-0.0686425
-0.0686199
-0.0636199
-0.0585973
-0.058552
-0.0635746
-0.0736651
-0.0787556
-0.0788461
-0.0788914
-0.0788914
-0.0788688
-0.0788235
-0.0788235
-0.0788688
-0.0788914
-0.0889366
-0.0790498
-0.0691855
-0.0742986
-0.0793891
-0.079457
-0.0795249
-0.069638
-0.0597738
-0.0449095
-0.0300226
-0.0300905
-0.0301584
-0.025181
-0.0202941
-0.0254072
-0.0254977
-0.00558823
0.0143439
0.0293213
0.0392986
0.039276
0.0492987
0.0693665
0.064457
0.0395702
0.0197512
-2.26088e-05
-0.0247964
-0.0495701
-0.0693213
-0.0840498
-0.0887557
-0.0884163
-0.0880091
-0.0875339
-0.0870362
-0.0915158
-0.0959502
-0.090362
-0.0897285
-0.0940271
-0.103281
-0.112511
-0.106765
-0.101063
-0.105407
-0.109796
-0.104231
-0.0987104
-0.0982353
-0.0978054
-0.0874208
-0.0770814
-0.07681
-0.0766063
-0.0714479
-0.0663348
-0.066267
-0.0662443
-0.0762217
-0.0561538
0.00893667
0.154005
0.364027
0.72905
1.1941
1.57912
1.91412
1.33912
0.334118
-0.25086
-0.685815
-0.700792
-0.585792
-0.420815
-0.24086
-0.16086
-0.0958145
-0.0807919
-0.0707919
-0.0657466
-0.0556561
-0.0605656
-0.0654751
-0.0603846
-0.0552941
-0.0552489
-0.0552263
-0.0501584
-0.0450679
-0.045
-0.0449548
-0.0449095
-0.0448643
-0.0398416
-0.0348416
-0.0347738
-0.0347059
-0.0246606
-0.0147059
-0.00486425
0.0049095
-0.000361994
-0.00563349
-0.000904985
0.00380089
0.00848415
0.0131448
0.00776017
0.0122851
0.0266968
0.0311086
0.0355203
0.0398869
0.0392081
0.043552
0.0529412
0.0574887
0.0621719
0.0670136
0.0669909
0.0720362
0.0671493
0.0923529
0.0976244
0.0978507
0.0980543
0.0983484
0.098733
0.104208
0.109751
0.105294
0.100882
0.101561
0.102217
0.0927828
0.0832805
0.0886878
0.0939819
0.0891629
0.0842308
0.0842082
0.0791403
0.0640498
0.0489593
0.0388688
0.028733
0.0135294
0.00325792
-0.00201356
-0.0121946
-0.0223982
-0.0328733
-0.0438235
-0.0504977
-0.0584163
-0.0683484
-0.0803394
-0.0944118
-0.102489
-0.106629
-0.107557
-0.105792
-0.0980995
-0.0906787
-0.0889593
-0.0881448
-0.087828
-0.0828733
-0.0780317
-0.0832805
-0.0884615
-0.0833484
-0.0775792
-0.0808597
-0.0824887
-0.0720136
-0.0597964
-0.046086
-0.035
-0.0384616
-0.0445928
-0.042715
-0.0409276
-0.0436425
-0.0456108
-0.0517647
-0.0576018
-0.05819
-0.0587104
-0.0641855
-0.069638
-0.0750453
-0.0805204
-0.0760634
-0.0715837
-0.0670814
-0.0676018
-0.0781448
-0.0836651
-0.0791855
-0.0747511
-0.080362
-0.0860181
-0.0816968
-0.0773529
-0.0879864
-0.0836425
-0.0793213
-0.0649774
-0.0506561
-0.0413574
-0.0320362
-0.0327375
-0.0334615
-0.0291855
-0.0249095
-0.0206108
-0.0112896
0.00798644
0.0222625
0.0316064
0.0409502
0.0452941
0.0496607
0.0440272
0.0334389
0.00791858
-0.0125792
-0.0330543
-0.0485068
-0.0639593
-0.0793439
-0.0947059
-0.104955
-0.100158
-0.0952941
-0.0953846
-0.0954298
-0.100407
-0.105294
-0.10509
-0.104842
-0.104547
-0.104208
-0.108846
-0.113507
-0.11319
-0.112828
-0.112421
-0.107036
-0.101674
-0.0962896
-0.090905
-0.0906108
-0.0904072
-0.0802488
-0.0701357
-0.0600905
-0.0550905
-0.0750905
-0.0751131
-0.025181
0.0696607
0.234457
0.514208
0.953914
1.40362
1.86833
1.65301
0.782692
0.072353
-0.513009
-0.708416
-0.648846
-0.494208
-0.289525
-0.174842
-0.0951584
-0.0704299
-0.0606561
-0.0559276
-0.0562443
-0.0565385
-0.05681
-0.0570814
-0.0573529
-0.0576018
-0.0528281
-0.0480317
-0.0482127
-0.0434163
-0.0386425
-0.0338235
-0.0289593
-0.0290724
-0.0291629
-0.0192986
-0.00947964
-0.00966064
-0.00984163
-0.0100452
-0.0102715
-0.000542985
0.00914027
0.00884616
0.00855205
0.0132579
0.0178959
0.0174208
0.0219231
0.031448
0.0409276
0.0503168
0.0546833
0.0540724
0.0534842
0.0578281
0.0621041
0.0663349
0.0806109
0.0949321
0.0992986
0.0987557
0.0983258
0.103009
0.107805
0.107692
0.107647
0.112692
0.117896
0.118213
0.123597
0.12905
0.129525
0.130023
0.125498
0.120928
0.121267
0.121538
0.121719
0.121855
0.111968
0.102014
0.101946
0.09681
0.0816968
0.0716063
0.0615158
0.0464027
0.0312443
0.0160407
0.000814481
-0.0144344
-0.0247059
-0.0299321
-0.0351584
-0.0404977
-0.0460407
-0.0521041
-0.0539819
-0.0572398
-0.0673982
-0.080181
-0.0836652
-0.0852941
-0.0890724
-0.0888914
-0.0866063
-0.0838914
-0.0865837
-0.0904298
-0.0899321
-0.0796154
-0.0790498
-0.0727828
-0.0652715
-0.0657692
-0.0642308
-0.0555882
-0.0479186
-0.0391855
-0.0336652
-0.0257919
-0.0188009
-0.0315385
-0.0435747
-0.0446833
-0.0452941
-0.0505656
-0.0557466
-0.050905
-0.0460407
-0.0461765
-0.0463348
-0.0515158
-0.0567195
-0.0569457
-0.0571719
-0.0573756
-0.0575792
-0.0578054
-0.0580091
-0.06319
-0.0683937
-0.0736199
-0.0788914
-0.0742082
-0.0694796
-0.0697059
-0.0699321
-0.070181
-0.0704751
-0.0658145
-0.0611538
-0.0614706
-0.05681
-0.0521719
-0.0375339
-0.0228959
-0.0232579
-0.0236425
-0.00904977
0.00556561
0.00522625
0.0049095
0.00457014
0.00920815
0.0288914
0.0435973
0.0483032
0.0530769
0.0529186
0.0427828
0.0176471
-0.00748869
-0.0276018
-0.0426697
-0.0527149
-0.0627602
-0.0777828
-0.0877376
-0.0926244
-0.0973982
-0.0970588
-0.0966516
-0.0961765
-0.0956561
-0.10009
-0.104457
-0.103756
-0.108009
-0.11724
-0.116493
-0.105747
-0.0999548
-0.0991629
-0.0984615
-0.0978281
-0.0922398
-0.0867195
-0.081267
-0.0758824
-0.070543
-0.0652489
-0.075
-0.0797738
-0.0595701
-0.0143891
0.100747
0.28086
0.591041
1.0162
1.60131
1.76138
1.35145
0.721516
-0.143439
-0.598371
-0.683281
-0.588167
-0.353054
-0.207941
-0.117805
-0.0776697
-0.0675792
-0.0624434
-0.0622624
-0.0620814
-0.0619005
-0.0617195
-0.0615385
-0.0613575
-0.0611765
-0.0609276
-0.0606109
-0.0603167
-0.0600452
-0.0547511
-0.0494344
-0.0441629
-0.0389367
-0.0386878
-0.0384163
-0.0331222
-0.0278054
-0.0225339
-0.0173077
-0.0170588
-0.0167873
-0.0115158
-0.00624434
-0.00597285
-0.00572398
0.00452489
0.0147285
0.0248869
0.035
0.0351131
0.0352036
0.0352489
0.0402489
0.0502036
0.0601131
0.07
0.0749548
0.0799548
0.0849321
0.0898643
0.0947964
0.0947511
0.104661
0.119525
0.124389
0.124344
0.124389
0.129525
0.134796
0.130158
0.130679
0.136357
0.137149
0.138009
0.138891
0.139751
0.140498
0.141131
0.136674
0.132149
0.132579
0.132964
0.123281
0.108575
0.0888914
0.0691855
0.054457
0.0397511
0.0250679
0.0103846
-0.00432126
-0.0190724
-0.0288462
-0.0336878
-0.0386199
-0.048552
-0.0584389
-0.0633032
-0.0581674
-0.053009
-0.0528733
-0.0528507
-0.0531448
-0.0540271
-0.0610633
-0.0699095
-0.0758371
-0.0841629
-0.0920588
-0.0970136
-0.093552
-0.0911086
-0.101538
-0.0904072
-0.0779864
-0.063914
-0.0497285
-0.0378507
-0.0289593
-0.0340271
-0.0411765
-0.0486878
-0.0557466
-0.0617195
-0.0670362
-0.056991
-0.0467873
-0.0514932
-0.0561991
-0.0609276
-0.0656561
-0.0653846
-0.0651584
-0.0599774
-0.0547738
-0.0595475
-0.0643439
-0.0691629
-0.0739593
-0.078733
-0.0835294
-0.0783484
-0.0731448
-0.0729185
-0.0727149
-0.0775339
-0.0823529
-0.0771719
-0.0719909
-0.07681
-0.0816516
-0.0815158
-0.0813575
-0.0811765
-0.0759729
-0.0807919
-0.0756335
-0.0704525
-0.0652489
-0.0600453
-0.0498869
-0.0397511
-0.029638
-0.0195249
-0.00938915
0.000769224
-0.00902716
-0.0188009
-0.00855204
0.0066742
0.0219231
0.0321719
0.0423982
0.0526923
0.0680769
0.0634841
0.0438914
0.024276
-0.00533939
-0.0199095
-0.0344797
-0.0540272
-0.0735294
-0.0830317
-0.0875113
-0.0919231
-0.0912896
-0.0906561
-0.09
-0.0892987
-0.0885294
-0.0876697
-0.0867421
-0.0908145
-0.0999095
-0.0990498
-0.0932353
-0.0974435
-0.101697
-0.100995
-0.100317
-0.0946607
-0.0890498
-0.0785068
-0.0680091
-0.0675339
-0.0671041
-0.0667195
-0.0663575
-0.0709955
-0.0656335
-0.0352715
0.0401131
0.17552
0.43595
0.84138
1.30676
1.82713
1.72744
1.09772
0.388032
-0.376584
-0.666199
-0.700882
-0.560588
-0.340317
-0.205023
-0.104706
-0.0743439
-0.0639367
-0.058552
-0.06319
-0.0678281
-0.0724661
-0.0721267
-0.06181
-0.056448
-0.0660408
-0.0606561
-0.0552715
-0.0548643
-0.0544571
-0.0440724
-0.0337104
-0.0383258
-0.0429186
-0.037534
-0.032172
-0.0368326
-0.0415159
-0.0312444
-0.0209955
-0.0206561
-0.0203394
-0.0150679
-0.00986425
-0.00475112
0.000316754
0.00538462
0.0104751
0.015543
0.0205656
0.0205656
0.020543
0.0154751
0.0203394
0.0351132
0.0398869
0.044638
0.0543439
0.0640272
0.0688009
0.0737104
0.0787783
0.0840046
0.0893892
0.0899095
0.0904525
0.0910181
0.101674
0.102421
0.108235
0.114095
0.11
0.10595
0.106968
0.107964
0.113891
0.119751
0.115498
0.111199
0.10681
0.102308
0.102715
0.0980996
0.0834842
0.0738236
0.0741403
0.0694797
0.0548417
0.0351358
0.015362
0.000588238
-0.00918552
-0.0190272
-0.0289367
-0.0387557
-0.048552
-0.0536199
-0.0591403
-0.0703846
-0.0828507
-0.0922172
-0.0935746
-0.0969909
-0.104457
-0.108167
-0.108688
-0.106493
-0.0982805
-0.090181
-0.0876697
-0.090905
-0.0943891
-0.0977149
-0.100045
-0.0906108
-0.0791403
-0.0603846
-0.0421041
-0.0466516
-0.0543891
-0.0555656
-0.0580317
-0.0506787
-0.0427828
-0.0439592
-0.0445022
-0.0495701
-0.0545248
-0.054457
-0.0543439
-0.0592307
-0.0642081
-0.064276
-0.0642986
-0.0642308
-0.0641855
-0.0642307
-0.069276
-0.0793212
-0.0843665
-0.0794117
-0.0744344
-0.0744344
-0.0744796
-0.0745701
-0.074638
-0.0747058
-0.0748416
-0.0700226
-0.0701583
-0.0852489
-0.075362
-0.0655204
-0.0507013
-0.0358823
-0.0310633
-0.0262443
-0.0264027
-0.0265611
-0.0217421
-0.0169231
-0.0121041
-0.00230768
0.0174208
0.0321493
0.036991
0.0468778
0.06181
0.0717647
0.0617421
0.0417421
0.0167647
-0.00814479
-0.0329864
-0.0527828
-0.0675566
-0.0823529
-0.0921719
-0.0969457
-0.0966968
-0.0963575
-0.0959502
-0.0955204
-0.0950679
-0.0945701
-0.0990271
-0.103394
-0.107692
-0.111946
-0.106176
-0.100407
-0.099638
-0.103869
-0.108122
-0.102421
-0.0967421
-0.101063
-0.105407
-0.0898416
-0.0743891
-0.0740271
-0.073733
-0.0634841
-0.0582805
-0.0781221
-0.078009
-0.0229411
0.0720815
0.232059
0.501968
0.92681
1.37163
1.83647
1.63636
0.806267
0.101177
-0.498914
-0.724027
-0.70414
-0.569208
-0.374253
-0.244321
-0.144412
-0.104525
-0.0896606
-0.0747963
-0.0599321
-0.0549999
-0.0599999
-0.0650452
-0.0701357
-0.0752036
-0.0702488
-0.0502714
-0.0352714
-0.0402488
-0.0452035
-0.0402035
-0.0352488
-0.0402714
-0.0452714
-0.0303167
-0.0154071
-0.025475
-0.0355655
-0.0257239
-0.0159275
-0.0111764
-0.0064931
-0.00687773
-0.00730758
-0.00273746
0.00181004
0.00631231
0.0107693
0.0101811
0.014525
0.023801
0.0280544
0.0273078
0.0265838
0.0308372
0.0402263
0.0497512
0.0544118
0.0592308
0.0641856
0.0642308
0.0692987
0.0793892
0.0845249
0.0847059
0.0898869
0.100113
0.105475
0.0959277
0.0914028
0.0869231
0.0925113
0.0981448
0.0987331
0.0992308
0.0896154
0.0798869
0.0750453
0.0701131
0.0751131
0.0800226
0.0798416
0.0746154
0.0593891
0.0491403
0.0388688
0.028552
0.01819
0.0078733
-0.00742084
-0.0178507
-0.0335521
-0.0450226
-0.0524887
-0.06181
-0.0681675
-0.0769684
-0.091086
-0.101448
-0.103326
-0.102263
-0.0946154
-0.0870815
-0.0850453
-0.083982
-0.0835973
-0.0835973
-0.0837557
-0.0840272
-0.0843213
-0.079344
-0.0739141
-0.0677829
-0.0604526
-0.0562218
-0.0500001
-0.0466742
-0.0442534
-0.0406108
-0.040181
-0.0374661
-0.0357693
-0.0439819
-0.0515838
-0.0533032
-0.0545023
-0.0552715
-0.0558824
-0.051448
-0.0469458
-0.0523756
-0.0578055
-0.0582806
-0.0588236
-0.0644345
-0.0700906
-0.0657467
-0.0613123
-0.06681
-0.072353
-0.0679412
-0.0635295
-0.0691177
-0.0747738
-0.0704978
-0.0661765
-0.07181
-0.0675114
-0.0532806
-0.0440272
-0.0347738
-0.025543
-0.0213122
-0.0171041
-0.0129186
-0.00373303
0.00545248
0.014638
0.0238235
0.0379864
0.0521493
0.0563575
0.0605883
0.0548417
0.044095
0.0233258
0.00260183
-0.0130543
-0.0336651
-0.0592308
-0.0747285
-0.080181
-0.0855656
-0.0908597
-0.096086
-0.0912669
-0.0913575
-0.101312
-0.106154
-0.105973
-0.105769
-0.105543
-0.105249
-0.104887
-0.104502
-0.104095
-0.10371
-0.103348
-0.102986
-0.102624
-0.0972398
-0.0868326
-0.0814479
-0.0811086
-0.0758371
-0.0706109
-0.0604298
-0.0502941
-0.0602036
-0.0701584
-0.045181
0.00975114
0.174615
0.399434
0.814208
1.26394
1.79867
1.86339
1.0381
0.272783
-0.382534
-0.737873
-0.698213
-0.573529
-0.358846
-0.209163
-0.11448
-0.0747964
-0.0701131
-0.0654073
-0.0706787
-0.0759276
-0.0711538
-0.0663575
-0.0615385
-0.0566968
-0.0568326
-0.056991
-0.052172
-0.047353
-0.047534
-0.0476697
-0.0477602
-0.0478733
-0.0480091
-0.0331448
-0.0282806
-0.0234389
-0.0186199
-0.0187783
-0.0189141
-0.0140724
-0.00925343
0.000565566
0.0103846
0.015181
0.0198868
0.0195248
0.0191628
0.0237782
0.0283258
0.0328959
0.037466
0.0469909
0.0564479
0.0608823
0.0652941
0.069638
0.0739366
0.0782353
0.0875565
0.0969004
0.101357
0.105928
0.110588
0.115339
0.120226
0.125249
0.130385
0.135633
0.141018
0.141516
0.142036
0.137579
0.138077
0.148507
0.148869
0.144185
0.13948
0.134706
0.124796
0.114796
0.104796
0.0947737
0.0846832
0.0745701
0.0595249
0.0395022
0.0194344
0.00432124
-0.00583714
-0.0160407
-0.026267
-0.0365159
-0.0417874
-0.0470362
-0.0522625
-0.0575113
-0.0628507
-0.0686199
-0.0700453
-0.0728054
-0.0721946
-0.0740498
-0.0824887
-0.0903846
-0.096267
-0.097534
-0.0957014
-0.0930317
-0.0903394
-0.0885068
-0.0872172
-0.0857693
-0.0786426
-0.0697512
-0.0638914
-0.0555883
-0.0469684
-0.0420815
-0.0406562
-0.0371946
-0.0353394
-0.0383259
-0.0407693
-0.0422172
-0.0429865
-0.0433711
-0.0435973
-0.0488009
-0.0539819
-0.0542082
-0.0544797
-0.0546833
-0.0548869
-0.0600905
-0.0652942
-0.0655204
-0.0657919
-0.066086
-0.0663349
-0.0715611
-0.07681
-0.0770815
-0.0773756
-0.0776923
-0.0779864
-0.0733032
-0.0686199
-0.0689367
-0.0692534
-0.0695702
-0.0699095
-0.0702715
-0.0706109
-0.0709502
-0.0563122
-0.0366742
-0.0320588
-0.0324661
-0.0228733
-0.0233032
-0.0187557
-0.0142082
-0.00461539
0.00502262
0.0146606
0.0242986
0.0389366
0.0535747
0.0582353
0.0629412
0.0476923
0.027466
0.0122624
-0.00291857
-0.0230769
-0.0432127
-0.0583258
-0.0733937
-0.0884163
-0.0983485
-0.0982127
-0.0980317
-0.0928281
-0.0875566
-0.0921494
-0.101652
-0.111086
-0.115475
-0.109842
-0.104208
-0.108575
-0.107986
-0.0974208
-0.0968326
-0.106244
-0.110701
-0.110249
-0.104932
-0.0947059
-0.0845249
-0.0793666
-0.0742082
-0.0690724
-0.073982
-0.0789367
-0.0739141
-0.0539141
0.0410633
0.186018
0.485973
0.855928
1.40591
1.75591
1.64088
1.20084
0.190792
-0.484231
-0.679231
-0.694231
-0.479231
-0.304231
-0.174231
-0.0992534
-0.074276
-0.0592534
-0.0642082
-0.0691856
-0.0691856
-0.0691856
-0.0691856
-0.0691403
-0.0640498
-0.0589593
-0.0638688
-0.0637783
-0.0536652
-0.0485068
-0.0483258
-0.0481901
-0.0430996
-0.0379865
-0.0478507
-0.0427376
-0.0376471
-0.0325566
-0.0274661
-0.0173756
-0.00728508
-0.0122172
-0.017172
-0.0121493
-0.00717195
-0.00223982
0.00264705
0.0124887
0.0223077
0.0271041
0.0318552
0.0315385
0.0312443
0.0409728
0.0506561
0.0552941
0.0648869
0.0744344
0.0790272
0.0836878
0.0883258
0.0929412
0.102738
0.11267
0.117715
0.117873
0.118167
0.123597
0.12914
0.134774
0.140453
0.141176
0.141923
0.142692
0.143416
0.144095
0.144751
0.145362
0.14586
0.146244
0.141584
0.136878
0.122104
0.107285
0.0974661
0.0876471
0.0728281
0.0530091
0.0331901
0.0133258
-0.00156108
-0.0115837
-0.0216063
-0.0316063
-0.0316289
-0.0366968
-0.0518326
-0.0624887
-0.0689366
-0.0719683
-0.0668552
-0.0694796
-0.0782353
-0.0890045
-0.101652
-0.105882
-0.0979412
-0.0900226
-0.0875566
-0.0861312
-0.085362
-0.0845023
-0.0831674
-0.0804977
-0.0761764
-0.0693665
-0.0559728
-0.0430769
-0.0371493
-0.0407919
-0.0474887
-0.0500679
-0.0527602
-0.0545475
-0.0555656
-0.0509955
-0.0460859
-0.0510407
-0.055905
-0.0508145
-0.0457692
-0.0457466
-0.0457466
-0.0507466
-0.0557692
-0.0557918
-0.0557918
-0.0558145
-0.0608597
-0.0708824
-0.075905
-0.0709502
-0.0660407
-0.0711538
-0.0762443
-0.0713801
-0.0665158
-0.0716516
-0.0767873
-0.0769231
-0.0770588
-0.0721946
-0.0673529
-0.0675339
-0.0627149
-0.0529185
-0.0431448
-0.033371
-0.0285747
-0.0187557
-0.0038914
0.0109955
0.00583711
0.000656109
0.0104977
0.020362
0.0302263
0.0401131
0.0450679
0.0500679
0.0601131
0.0652036
0.0352941
0.00540725
-0.0144344
-0.0342308
-0.0540045
-0.0737783
-0.0885294
-0.09819
-0.0927602
-0.0872398
-0.0866516
-0.0859955
-0.0902715
-0.0994796
-0.10862
-0.112715
-0.106765
-0.100769
-0.104728
-0.108688
-0.107647
-0.106674
-0.105769
-0.104842
-0.0989366
-0.0930995
-0.0973529
-0.0966968
-0.101131
-0.0756335
-0.070181
-0.0697964
-0.0694796
-0.0591402
-0.0338009
0.0814706
0.246674
0.59181
1.00192
1.61206
1.87219
1.22235
0.537511
-0.212376
-0.687262
-0.687104
-0.591923
-0.356742
-0.191584
-0.116448
-0.0763122
-0.0711764
-0.0660181
-0.0658371
-0.0656787
-0.0705203
-0.0753167
-0.0750905
-0.0749095
-0.0747737
-0.0645927
-0.0493665
-0.0441402
-0.043914
-0.0436651
-0.0483936
-0.0531221
-0.0478506
-0.0425791
-0.0373076
-0.0320361
-0.0317646
-0.0265384
-0.0214027
-0.0213348
-0.0212895
-0.0162669
-0.0113122
-0.00644791
-0.00162891
0.00821271
0.018077
0.0179186
0.0176471
0.0222851
0.0269005
0.0314706
0.0359729
0.0454299
0.055
0.0547059
0.0545249
0.0594344
0.0694344
0.0795475
0.0847964
0.090181
0.0956108
0.0911086
0.0916516
0.10224
0.107828
0.113416
0.11905
0.124729
0.130475
0.12629
0.122127
0.117986
0.113891
0.119819
0.125611
0.126267
0.121833
0.117262
0.117534
0.117692
0.102805
0.0878959
0.0730316
0.0581674
0.0432353
0.0282805
0.0133031
-0.00171947
-0.0117647
-0.0220815
-0.0326923
-0.044276
-0.0519683
-0.061991
-0.0691629
-0.0770362
-0.0997964
-0.108054
-0.107376
-0.105158
-0.101968
-0.0994118
-0.0975566
-0.0963801
-0.0907919
-0.0854977
-0.0904072
-0.0952941
-0.0950905
-0.0893891
-0.0779638
-0.07
-0.0602036
-0.0476471
-0.043914
-0.0431222
-0.0404299
-0.0461312
-0.0539819
-0.0568552
-0.0593213
-0.0557466
-0.051448
-0.05181
-0.051991
-0.057172
-0.0623756
-0.0576244
-0.0528959
-0.0581674
-0.0634389
-0.0587104
-0.0540272
-0.0643439
-0.0746833
-0.0750226
-0.075362
-0.075724
-0.0761086
-0.0815385
-0.0870136
-0.0824887
-0.0779638
-0.0784389
-0.078914
-0.0744118
-0.0598869
-0.0453394
-0.0408145
-0.0363122
-0.0268326
-0.0173756
-0.0129185
-0.0134842
-0.0140498
-0.0145928
0.00484163
0.0292534
0.0386878
0.0431448
0.0526244
0.0621267
0.0366742
0.0112669
-0.00911767
-0.0294797
-0.044819
-0.0601132
-0.080362
-0.100588
-0.105792
-0.110973
-0.106154
-0.101312
-0.106425
-0.111448
-0.11138
-0.111222
-0.115973
-0.120679
-0.120385
-0.120068
-0.119729
-0.119344
-0.118869
-0.118348
-0.117805
-0.107285
-0.0917874
-0.0863122
-0.0908597
-0.0954525
-0.100091
-0.094819
-0.079638
-0.0745023
-0.0744118
-0.0744118
-0.0795023
-0.024638
0.045181
0.264932
0.504615
1.01428
1.48891
1.64355
1.61819
0.622738
-0.24276
-0.578258
-0.798756
-0.659231
-0.509683
-0.335158
-0.200656
-0.136131
-0.0915611
-0.086991
-0.0824661
-0.0779638
-0.0734389
-0.0688688
-0.0642534
-0.0645928
-0.0648869
-0.065181
-0.0654978
-0.0658145
-0.0661765
-0.0615837
-0.0569683
-0.0523303
-0.0476471
-0.0479186
-0.0482127
-0.0435294
-0.0338688
-0.0242308
-0.0195701
-0.0249321
-0.0304072
-0.0309502
-0.0214932
-0.0220362
-0.00764707
0.0066742
0.0109728
0.0152489
0.0195023
0.0236425
0.0276471
0.0316063
0.0355882
0.0395701
0.0435068
0.0474661
0.0464027
0.0456561
0.0500905
0.0546154
0.0642308
0.0739593
0.0788009
0.0887104
0.0986652
0.10362
0.108575
0.11362
0.113778
0.113982
0.114208
0.114502
0.114864
0.115136
0.110317
0.105385
0.105339
0.105226
0.105045
0.104774
0.104412
0.104005
0.098552
0.0931222
0.0927149
0.0772624
0.0617421
0.0461765
0.0305883
0.0249774
0.0193665
0.00880091
-0.0020362
-0.0182579
-0.0353394
-0.0433484
-0.0535294
-0.0609502
-0.0697059
-0.0745928
-0.0750905
-0.0814027
-0.085543
-0.0778281
-0.0706335
-0.0739819
-0.0782127
-0.0732127
-0.0684389
-0.0688688
-0.0690498
-0.063914
-0.0578054
-0.0556335
-0.0511538
-0.0445249
-0.0372172
-0.0250452
-0.0173529
-0.018552
-0.0212896
-0.0300679
-0.0382579
-0.0357919
-0.0325113
-0.0335973
-0.0393891
-0.0449774
-0.0405656
-0.0361765
-0.03681
-0.0374434
-0.0430317
-0.0485747
-0.0541403
-0.0597285
-0.0603167
-0.0609502
-0.0566516
-0.0523756
-0.0581222
-0.0638462
-0.0695475
-0.0752715
-0.0710407
-0.0668326
-0.0676244
-0.0683937
-0.0691403
-0.0598643
-0.0406109
-0.0314027
-0.0272172
-0.0230543
-0.0189593
-0.014819
-0.0106335
-0.00644796
-0.00226244
0.0219005
0.0460407
0.0502036
0.0493891
0.0535973
0.0628281
0.0570588
0.0662896
0.010543
-0.015181
-0.030905
-0.046629
-0.0622851
-0.0778733
-0.0884389
-0.0989593
-0.0994344
-0.0998416
-0.100158
-0.100339
-0.100407
-0.100407
-0.105452
-0.110294
-0.115068
-0.119819
-0.11457
-0.109276
-0.108914
-0.108507
-0.108054
-0.107602
-0.102149
-0.0967195
-0.0963348
-0.0959502
-0.090543
-0.0802036
-0.0699321
-0.0647059
-0.0645475
-0.0694796
-0.0794796
-0.0195023
0.0654525
0.255339
0.460158
0.939955
1.43473
1.73948
2.00421
1.03898
0.108801
-0.376425
-0.791697
-0.671923
-0.537104
-0.33733
-0.167602
-0.117828
-0.078009
-0.0781674
-0.0783258
-0.0735068
-0.0686425
-0.068733
-0.0688235
-0.063914
-0.0589819
-0.0640045
-0.0689819
-0.0639366
-0.0539367
-0.0440045
-0.0390724
-0.044095
-0.049095
-0.049095
-0.0491176
-0.0441629
-0.0341855
-0.0241855
-0.0191855
-0.0241855
-0.0292081
-0.0242534
-0.0192986
-0.0193439
-0.00938914
0.00556561
0.010543
0.020543
0.0204977
0.0203846
0.0302036
0.0399321
0.0446154
0.0493213
0.0540724
0.0587783
0.0583937
0.0580317
0.0627828
0.0675566
0.0822851
0.0969909
0.101652
0.106335
0.111041
0.115679
0.125249
0.135023
0.135
0.135113
0.135339
0.135679
0.141154
0.146674
0.142308
0.137692
0.142964
0.14819
0.143371
0.138507
0.138597
0.13862
0.138575
0.128529
0.113484
0.0884615
0.0634615
0.0484842
0.0585294
0.013552
-0.00147059
-0.0065611
-0.0116968
-0.0267873
-0.0418326
-0.0519005
-0.061991
-0.0621041
-0.0622398
-0.0573756
-0.0525113
-0.0576697
-0.0628054
-0.0629638
-0.0631674
-0.0685747
-0.0698869
-0.0572398
-0.0517195
-0.0633032
-0.0763122
-0.0845249
-0.0876244
-0.0859729
-0.079819
-0.0648869
-0.0491403
-0.0428959
-0.0419231
-0.0357919
-0.0320362
-0.0402715
-0.0479864
-0.0451131
-0.0413122
-0.0467195
-0.0519004
-0.0569004
-0.0569231
-0.0469683
-0.0520136
-0.0620588
-0.0620814
-0.0620814
-0.0670588
-0.0720136
-0.0770136
-0.0820814
-0.0721719
-0.0622398
-0.0672398
-0.0721946
-0.0721719
-0.0721946
-0.0722624
-0.0723756
-0.0724887
-0.0725566
-0.0725792
-0.0726018
-0.0726697
-0.0727828
-0.0778959
-0.0830317
-0.0832127
-0.083371
-0.0834842
-0.0835747
-0.0786199
-0.0687104
-0.0588461
-0.0439819
-0.0291176
-0.0292308
-0.0393213
-0.0294118
-0.00950225
-0.00459275
-0.00970587
-0.00486424
0.00995476
0.0198643
0.0348643
0.0348643
0.0348643
0.0548643
0.0748643
0.0549095
0.035
0.0101131
-0.0147511
-0.034638
-0.0545249
-0.0693439
-0.0841177
-0.0839367
-0.0837783
-0.0885294
-0.0931901
-0.0978054
-0.102353
-0.09681
-0.0912217
-0.0905882
-0.0899321
-0.094276
-0.0986878
-0.103167
-0.10767
-0.107081
-0.101697
-0.0913801
-0.0860634
-0.0907466
-0.0954977
-0.0903168
-0.0852036
-0.0801584
-0.0751131
-0.0700679
-0.0649774
-0.0598416
-0.0647285
-0.054638
-0.0345701
0.0204751
0.225498
0.45552
0.920634
1.37581
1.75097
1.88111
0.941222
0.0963122
-0.418597
-0.758507
-0.633371
-0.47819
-0.278032
-0.137896
-0.0977376
-0.0725339
-0.0673303
-0.0621719
-0.0670136
-0.0717873
-0.0715385
-0.0713122
-0.0661086
-0.0609502
-0.0557919
-0.0506109
-0.0554299
-0.0602489
-0.0600679
-0.0598643
-0.054638
-0.044457
-0.0343213
-0.0291176
-0.0338462
-0.0385973
-0.038371
-0.0331448
-0.0229186
-0.0127149
-0.00753393
-0.00733032
-0.00710407
-0.00187782
0.00334842
0.00857466
0.0138009
0.0240045
0.0341855
0.0393891
0.0446154
0.0448416
0.0450679
0.0552941
0.065543
0.0758371
0.0861991
0.086629
0.0869683
0.0921719
0.0974208
0.0977602
0.103077
0.118326
0.128597
0.123937
0.119299
0.124683
0.129955
0.135136
0.140407
0.140769
0.141018
0.136154
0.131222
0.136267
0.136335
0.126403
0.121448
0.126493
0.126629
0.111833
0.0970588
0.0822851
0.0624887
0.0426697
0.0328733
0.0230995
0.00834841
-0.0063801
-0.0161312
-0.025905
-0.0356787
-0.0454525
-0.0452489
-0.0450453
-0.0497511
-0.0544344
-0.0541403
-0.0538914
-0.0486425
-0.0433711
-0.0430769
-0.0427828
-0.0474887
-0.0521946
-0.0519005
-0.0516516
-0.0463801
-0.0409729
-0.0403394
-0.0390498
-0.0421493
-0.0438688
-0.039819
-0.0361086
-0.0288235
-0.0277602
-0.0342534
-0.0389366
-0.0469909
-0.0520136
-0.0506109
-0.0486425
-0.0468099
-0.0507466
-0.0550452
-0.0496154
-0.0442534
-0.053914
-0.0636199
-0.063371
-0.0631448
-0.0528733
-0.0425566
-0.0522172
-0.0618552
-0.0615158
-0.0611991
-0.0708824
-0.0805882
-0.0752941
-0.0699774
-0.074638
-0.0792986
-0.0790045
-0.078733
-0.0784615
-0.0782127
-0.0729638
-0.0676471
-0.0722851
-0.0769683
-0.0766968
-0.0764253
-0.0761538
-0.0758597
-0.075543
-0.0752036
-0.0798416
-0.0844796
-0.0841177
-0.0837783
-0.0784842
-0.07319
-0.0728733
-0.0724887
-0.0720362
-0.0516063
-0.0312217
-0.0308597
-0.0304977
-0.0201584
-0.009819
-0.00941176
-0.00895928
-0.00352941
0.00687784
0.0323077
0.0527149
0.0530996
0.0535294
0.0589819
0.0644344
0.0548643
0.0352941
0.0107693
-0.00875562
-0.0183258
-0.0329185
-0.0524887
-0.0670135
-0.076561
-0.0811764
-0.0808597
-0.0805882
-0.0803619
-0.0801583
-0.0849773
-0.089819
-0.0896606
-0.0894796
-0.094276
-0.0990724
-0.0938687
-0.0886199
-0.0983258
-0.098009
-0.0976923
-0.0923755
-0.0870588
-0.086742
-0.0864253
-0.0810859
-0.0757239
-0.0703846
-0.0650678
-0.0597285
-0.0543891
-0.0640724
-0.0587556
0.00156113
0.0968553
0.257104
0.542376
0.992692
1.43799
1.87328
1.59357
0.678846
-0.0208823
-0.565633
-0.725385
-0.650113
-0.479842
-0.26957
-0.164321
-0.099095
-0.0788461
-0.0785747
-0.0733484
-0.0631674
-0.0579638
-0.0627376
-0.0674434
-0.0670814
-0.0667873
-0.0665611
-0.0663348
-0.0661086
-0.060905
-0.055724
-0.0505203
-0.0452941
-0.0400905
-0.0349095
-0.0347059
-0.0344796
-0.024276
-0.0140724
-0.0188009
-0.0234841
-0.01319
-0.00296379
0.00226245
0.00744345
0.0075792
0.0076697
0.0127149
0.0177376
0.0227149
0.0276471
0.0325566
0.0424435
0.0523303
0.0572172
0.0520588
0.0467873
0.0514254
0.0611539
0.0709729
0.0757466
0.0805204
0.0854525
0.0855204
0.0856561
0.0858824
0.0862217
0.0866742
0.0973077
0.1081
0.103937
0.0997964
0.100656
0.101516
0.0973303
0.0930543
0.0936652
0.0941855
0.0946833
0.0951358
0.0855204
0.0758597
0.0761312
0.0763349
0.0665158
0.0566968
0.0518778
0.0470588
0.0372172
0.0223529
0.0074887
-0.00742082
-0.0173982
-0.0274208
-0.0374434
-0.0473982
-0.0574661
-0.0628959
-0.0639366
-0.0660407
-0.0647511
-0.0659502
-0.0784615
-0.0908145
-0.0958145
-0.096267
-0.0991403
-0.0960633
-0.0830995
-0.076086
-0.0747964
-0.0688914
-0.0628507
-0.0712669
-0.0784389
-0.0685973
-0.0567647
-0.0429638
-0.0304072
-0.0269457
-0.0266515
-0.0338687
-0.0418325
-0.0444796
-0.0463801
-0.0473303
-0.0478506
-0.0481221
-0.0483031
-0.0484841
-0.0486199
-0.0536878
-0.0587783
-0.0639366
-0.0691177
-0.0642986
-0.0595023
-0.0597285
-0.0599774
-0.0652489
-0.0704977
-0.0707466
-0.0710407
-0.0713575
-0.0716516
-0.0769231
-0.0822172
-0.0775339
-0.0778054
-0.0880543
-0.093371
-0.093733
-0.0840724
-0.0843891
-0.0747059
-0.0650226
-0.055362
-0.045724
-0.0410633
-0.0364027
-0.0317647
-0.0271267
-0.0224887
-0.017828
-0.0131222
-0.00339364
0.0213122
0.0409955
0.0407014
0.0404525
0.0502489
0.0500905
0.0249774
0.00490952
-0.0101357
-0.0302262
-0.050362
-0.0654977
-0.0806335
-0.0956561
-0.105566
-0.110452
-0.105294
-0.100068
-0.0997964
-0.0995249
-0.0992308
-0.0988688
-0.103439
-0.107964
-0.112466
-0.116991
-0.111538
-0.101086
-0.0956335
-0.0952036
-0.0947964
-0.0944118
-0.0940498
-0.093733
-0.0934842
-0.0833258
-0.0732579
-0.0682353
-0.0632579
-0.0733032
-0.0583937
0.0214253
0.156222
0.396041
0.75586
1.3057
1.59554
1.56534
1.05011
0.0498869
-0.515339
-0.720588
-0.690837
-0.491041
-0.326199
-0.181335
-0.116471
-0.0766063
-0.0667873
-0.0620136
-0.0572172
-0.0573982
-0.0625339
-0.0726244
-0.0726923
-0.0627376
-0.057828
-0.0529638
-0.0480769
-0.0481674
-0.0382579
-0.0283484
-0.0284389
-0.0285294
-0.0336199
-0.0387104
-0.0288235
-0.0189593
-0.0191177
-0.0192987
-0.0144344
-0.00952491
-0.00463803
0.000180975
-0.000113152
0.00452486
0.0191176
0.0286878
0.0282353
0.0277602
0.0322398
0.0366742
0.0361086
0.0404977
0.0497964
0.0540271
0.0582127
0.0623756
0.0664932
0.070724
0.0750679
0.0795475
0.0791629
0.0838688
0.0936651
0.0985973
0.10362
0.10871
0.108846
0.109027
0.109276
0.109638
0.11009
0.110543
0.110995
0.106493
0.101991
0.0973982
0.0927375
0.103009
0.11319
0.113281
0.113303
0.0982579
0.0831448
0.0729864
0.0577602
0.0425113
0.032285
0.0270588
0.0167873
0.00147058
-0.0138009
-0.0240724
-0.0295475
-0.035362
-0.0419231
-0.0445475
-0.0491629
-0.0608371
-0.0746606
-0.0834389
-0.0884615
-0.0901131
-0.088914
-0.0812217
-0.073552
-0.0714027
-0.0702489
-0.0747511
-0.0747059
-0.0647964
-0.0645701
-0.0687557
-0.0668326
-0.0632579
-0.0521946
-0.039819
-0.0325566
-0.0276245
-0.0272625
-0.0294797
-0.0326245
-0.0356335
-0.0427376
-0.049095
-0.044819
-0.0402941
-0.0406109
-0.0408824
-0.0411312
-0.0413575
-0.0465837
-0.0518552
-0.0571946
-0.0625792
-0.0579638
-0.0533032
-0.0585973
-0.0638914
-0.0642082
-0.0645249
-0.0648416
-0.0652036
-0.0656109
-0.0660407
-0.0664932
-0.0669005
-0.0672625
-0.0676244
-0.0730317
-0.0785068
-0.0740045
-0.0594796
-0.0399321
-0.0304072
-0.020905
-0.0163801
-0.0118326
-0.0073077
-0.00282806
0.00162895
0.00608597
0.015543
0.0250226
0.0345475
0.044095
0.0586425
0.0681901
0.0527602
0.0373756
0.0170362
-0.00330317
-0.0186652
-0.0339819
-0.0592308
-0.0744344
-0.0845928
-0.0897059
-0.0947738
-0.0997511
-0.0996606
-0.0995023
-0.0992534
-0.0989366
-0.098552
-0.0981222
-0.10267
-0.107217
-0.106742
-0.106154
-0.105475
-0.104774
-0.10405
-0.103371
-0.102738
-0.0921719
-0.0816968
-0.0812896
-0.0809276
-0.0705882
-0.0602941
-0.0700452
-0.0748416
-0.0347059
0.0353846
0.19543
0.43543
0.885453
1.3455
1.82052
1.81057
0.980656
0.235679
-0.394367
-0.724389
-0.709367
-0.584321
-0.359276
-0.209253
-0.119276
-0.0742987
-0.064276
-0.0592308
-0.0641855
-0.0691403
-0.069095
-0.0690045
-0.0738688
-0.0737557
-0.0636652
-0.0585068
-0.0583258
-0.0581448
-0.0579638
-0.0578281
-0.0527376
-0.0426471
-0.0375339
-0.0373756
-0.0371946
-0.0370136
-0.0368326
-0.0316516
-0.0264706
-0.0163348
-0.00624434
-0.0111086
-0.0159276
-0.0107919
-0.00572399
0.00429865
0.0142308
0.024095
0.0339593
0.0338235
0.0336652
0.0334842
0.0332805
0.0330543
0.0427828
0.0624435
0.0720362
0.0716063
0.0711991
0.0758371
0.085543
0.0953394
0.100249
0.105272
0.115385
0.125611
0.130973
0.131448
0.132014
0.132647
0.133326
0.13905
0.144842
0.145679
0.141471
0.137217
0.142896
0.148507
0.14405
0.139525
0.134887
0.130181
0.125453
0.115724
0.0959502
0.0811312
0.0663122
0.0464932
0.031629
0.0167421
0.00183258
-0.00807692
-0.013009
-0.0229864
-0.0379864
-0.0479638
-0.0529864
-0.0583484
-0.0642308
-0.0711312
-0.0694118
-0.0699321
-0.0771946
-0.0853394
-0.0923529
-0.0950452
-0.099457
-0.102014
-0.0938914
-0.0862217
-0.0789593
-0.0717647
-0.0739593
-0.0743665
-0.0677828
-0.0690498
-0.070362
-0.0504525
-0.0339366
-0.0402489
-0.0480317
-0.050724
-0.052828
-0.0489366
-0.0443891
-0.044457
-0.0443439
-0.0491855
-0.0540045
-0.0538461
-0.053733
-0.0586425
-0.0635972
-0.0586199
-0.0536199
-0.068552
-0.0734615
-0.073371
-0.0733031
-0.0682579
-0.0632579
-0.0582805
-0.0582579
-0.0682127
-0.07319
-0.07319
-0.0732127
-0.0782579
-0.0833258
-0.0784163
-0.0734842
-0.0785294
-0.0835747
-0.0786425
-0.068733
-0.0588462
-0.0389819
-0.0241176
-0.0242081
-0.0242534
-0.0192986
-0.0143439
-0.00941176
-0.00452489
0.00531674
0.015181
0.0251357
0.0351357
0.0451357
0.0551358
0.0501358
0.040181
0.0202941
0.000429872
-0.0144118
-0.0342081
-0.0589593
-0.0786878
-0.0884163
-0.0931222
-0.0928054
-0.0924208
-0.0919457
-0.0913801
-0.0957466
-0.10009
-0.104389
-0.108575
-0.107647
-0.106652
-0.105611
-0.104547
-0.108461
-0.112398
-0.10638
-0.100452
-0.0995927
-0.0987783
-0.0880316
-0.0823303
-0.0766742
-0.0760859
-0.075543
-0.0700452
-0.0646154
-0.0692307
-0.0588688
0.016448
0.131719
0.356991
0.662262
1.16753
1.56281
1.75812
1.50842
0.563688
-0.151041
-0.570792
-0.725588
-0.585385
-0.425113
-0.249774
-0.144412
-0.0890724
-0.0687557
-0.0684389
-0.0681901
-0.063009
-0.0577149
-0.0623077
-0.0669231
-0.0715611
-0.0761991
-0.0708371
-0.0654751
-0.0600905
-0.0546606
-0.0542081
-0.0537783
-0.053371
-0.0479412
-0.0425113
-0.0321493
-0.0218326
-0.0264932
-0.0311312
-0.0308144
-0.0304977
-0.025181
-0.0198642
-0.00950224
0.000905007
0.00131225
0.00162899
0.00696835
0.0120815
0.017172
0.0222398
0.0322625
0.0422398
0.0472172
0.0521946
0.0471267
0.0469684
0.0567647
0.0665611
0.0813575
0.0911765
0.0910181
0.0909276
0.0909276
0.091086
0.0963801
0.106765
0.11724
0.122873
0.12362
0.124457
0.125362
0.12629
0.13224
0.133167
0.12905
0.129864
0.130611
0.131312
0.131946
0.132466
0.132896
0.128281
0.123643
0.109005
0.0943665
0.0797285
0.0650905
0.0554073
0.0406788
0.0209276
0.00113124
-0.0186878
-0.0335068
-0.0433258
-0.0531674
-0.0530543
-0.0529638
-0.0529185
-0.05319
-0.0589367
-0.0654977
-0.0732127
-0.0829638
-0.0893665
-0.0967647
-0.0982127
-0.0957466
-0.100294
-0.103032
-0.095
-0.0870362
-0.0891855
-0.091086
-0.0820814
-0.0710407
-0.0733484
-0.059819
-0.0474434
-0.0443665
-0.0445475
-0.041629
-0.0394118
-0.0515837
-0.0630543
-0.063733
-0.0639367
-0.0638688
-0.0637104
-0.0585973
-0.0535068
-0.0633937
-0.0732579
-0.0731448
-0.0730769
-0.0730543
-0.0730996
-0.0681674
-0.0682127
-0.0782353
-0.0832579
-0.0833032
-0.083371
-0.0884615
-0.0885294
-0.0785747
-0.0735746
-0.0735294
-0.0735068
-0.0785068
-0.083552
-0.0836652
-0.0838235
-0.0890045
-0.0941629
-0.0892986
-0.0694344
-0.0845701
-0.0396832
-0.034819
-0.03
-0.025181
-0.0203394
-0.0154751
-0.0105882
-0.00567871
0.00918554
0.0240272
0.033914
0.0438462
0.0588461
0.0688914
0.0539366
0.0340498
0.00418551
-0.0207014
-0.0355883
-0.0504299
-0.0752263
-0.0899774
-0.0997059
-0.104412
-0.099095
-0.0936652
-0.0931222
-0.0924887
-0.09681
-0.101086
-0.105294
-0.109434
-0.108529
-0.107602
-0.106652
-0.105724
-0.104819
-0.103959
-0.103145
-0.102398
-0.0967195
-0.0911086
-0.0905883
-0.0851358
-0.0797512
-0.079457
-0.0792308
-0.0740498
-0.0689141
-0.0687783
-0.0536426
0.0214932
0.126606
0.306652
0.571652
1.02665
1.39665
1.61665
1.40665
0.546674
-0.108303
-0.513326
-0.673371
-0.583394
-0.443394
-0.273416
-0.168462
-0.113484
-0.0834842
-0.0735294
-0.0685294
-0.0634842
-0.0584389
-0.0583937
-0.0583258
-0.0532353
-0.0481674
-0.0481222
-0.0480996
-0.0530996
-0.0530996
-0.0430996
-0.038077
-0.0380317
-0.0380091
-0.0380317
-0.0330996
-0.0282353
-0.018439
-0.0086652
-0.00886883
-0.00907245
-0.00434396
0.000339314
0.005
0.00959276
0.00909502
0.00855203
0.00798642
0.00742081
0.00683257
0.00617647
0.0154299
0.0297285
0.044095
0.053552
0.0580769
0.0626697
0.0623982
0.0623303
0.0622851
0.0723982
0.0874887
0.0926019
0.0977376
0.102941
0.103213
0.103484
0.108756
0.114118
0.11457
0.115068
0.115611
0.116222
0.116878
0.102466
0.0979638
0.103326
0.108575
0.108733
0.108801
0.103756
0.09862
0.0933937
0.0881222
0.0628507
0.0425792
0.0223077
0.00703623
-0.00325789
-0.0189593
-0.0351584
-0.0475339
-0.0561765
-0.0671493
-0.0751131
-0.08319
-0.095543
-0.103371
-0.102466
-0.100385
-0.0926244
-0.0855656
-0.0892534
-0.0936651
-0.0935973
-0.0937783
-0.094095
-0.0944117
-0.0947285
-0.0950226
-0.0952262
-0.0900905
-0.0794796
-0.0730769
-0.0755203
-0.0759502
-0.0697285
-0.0625113
-0.0562443
-0.0488914
-0.0445248
-0.0469683
-0.0501357
-0.0529412
-0.0551357
-0.0565837
-0.0575792
-0.0583258
-0.0589592
-0.0645927
-0.0702262
-0.0708371
-0.0714253
-0.0720136
-0.072647
-0.0783031
-0.0839819
-0.0797059
-0.0754525
-0.0762443
-0.0770362
-0.0777828
-0.0785294
-0.0842986
-0.0851131
-0.0759728
-0.0618552
-0.0477602
-0.0436199
-0.0444344
-0.0452715
-0.0411538
-0.0370588
-0.0329864
-0.0189366
-0.00488687
0.00416292
0.0182127
0.0222625
0.0263123
0.0403394
0.0543439
0.0384163
0.0225792
0.00178739
-0.0189818
-0.0397058
-0.0653845
-0.0910407
-0.111674
-0.102285
-0.0928054
-0.09319
-0.0934841
-0.103688
-0.113801
-0.108846
-0.103823
-0.10871
-0.113507
-0.113235
-0.112918
-0.112556
-0.112195
-0.111833
-0.111538
-0.111267
-0.11095
-0.105588
-0.100249
-0.0999321
-0.0946153
-0.0842986
-0.0790271
-0.0738008
-0.0686877
-0.0686651
-0.068733
-0.0688687
0.0159503
0.120679
0.375294
0.654842
1.16939
1.60894
1.63348
1.47303
0.472534
-0.353009
-0.613552
-0.759095
-0.599615
-0.435113
-0.270633
-0.151176
-0.0967194
-0.067285
-0.0628733
-0.0584389
-0.0639819
-0.0695022
-0.07
-0.0704751
-0.065905
-0.0563348
-0.0468099
-0.0422851
-0.0427375
-0.0431674
-0.0385747
-0.0339366
-0.039276
-0.0396833
-0.0301358
-0.0255204
-0.0208824
-0.0162444
-0.0166063
-0.0119683
-0.00233033
0.00226242
0.00180992
0.00135744
0.000882328
0.010362
0.0197964
0.0291629
0.0384841
0.042828
0.0471493
0.0464027
0.0456335
0.0498642
0.054095
0.0632805
0.0723756
0.081448
0.0905656
0.0897285
0.0888688
0.0929638
0.102149
0.111448
0.12086
0.130385
0.135045
0.134842
0.134751
0.134796
0.134887
0.140023
0.145249
0.140566
0.135837
0.141063
0.146176
0.141176
0.136109
0.13095
0.125679
0.120317
0.110023
0.0947738
0.0794796
0.0641629
0.0488235
0.0334615
0.0180995
0.00273756
-0.0126471
-0.0280543
-0.0384842
-0.0489593
-0.0494796
-0.05
-0.0504751
-0.0509955
-0.056629
-0.0627602
-0.059457
-0.0577828
-0.0678507
-0.0805882
-0.0851358
-0.08681
-0.0904751
-0.0906109
-0.0881222
-0.0856787
-0.0835747
-0.077172
-0.066086
-0.0591855
-0.0612217
-0.0609276
-0.0536425
-0.046267
-0.034638
-0.0275339
-0.0291629
-0.0319457
-0.035362
-0.0380543
-0.04
-0.0412217
-0.0419231
-0.0373982
-0.0327602
-0.0380995
-0.0434163
-0.0487557
-0.0541176
-0.0545023
-0.0549095
-0.0503167
-0.0457014
-0.0510633
-0.0564253
-0.0617873
-0.0672172
-0.0726471
-0.0730543
-0.0584842
-0.0489593
-0.0644344
-0.0699095
-0.0703846
-0.0708597
-0.0713575
-0.0718778
-0.0673982
-0.0628959
-0.0633937
-0.058914
-0.049457
-0.04
-0.030543
-0.026086
-0.026629
-0.0171719
-0.00271493
0.00171946
0.00113123
0.000542991
0.00495475
0.0243891
0.0388462
0.0433484
0.0478959
0.0574434
0.066991
0.0465611
0.0261765
0.00581448
-0.0145249
-0.0297964
-0.0450226
-0.0602262
-0.0753394
-0.080362
-0.0852941
-0.0901357
-0.0948869
-0.0995928
-0.104231
-0.0987557
-0.09319
-0.0975792
-0.101946
-0.10129
-0.100633
-0.104977
-0.104344
-0.0937557
-0.0882353
-0.0927828
-0.0973982
-0.0920814
-0.0868326
-0.0866516
-0.0865385
-0.0814932
-0.0714932
-0.0615385
-0.0616063
-0.0716968
-0.0617647
-0.0368099
0.0731222
0.203032
0.567941
0.952851
1.54774
1.9576
1.32751
0.667466
-0.107602
-0.687692
-0.67776
-0.602805
-0.362873
-0.187941
-0.112964
-0.0679638
-0.0679864
-0.068009
-0.063009
-0.0580317
-0.0580543
-0.0580317
-0.0629864
-0.0679412
-0.0678959
-0.0678054
-0.0626697
-0.0575792
-0.0525339
-0.0474661
-0.0473756
-0.0472851
-0.0471946
-0.0471267
-0.0420814
-0.0370362
-0.0319909
-0.0269004
-0.0217647
-0.0166742
-0.016629
-0.00158371
0.00346154
0.00346154
0.00343892
0.0135068
0.0236425
0.0286878
0.0336878
0.0386652
0.043552
0.0533484
0.0631222
0.0629186
0.0627149
0.0675339
0.0722625
0.0820136
0.0917873
0.101584
0.111357
0.116086
0.120837
0.125633
0.130385
0.135068
0.139819
0.144683
0.149751
0.15
0.150362
0.150837
0.151425
0.152104
0.152692
0.15819
0.163597
0.158914
0.154186
0.149412
0.129593
0.109729
0.0898416
0.0749321
0.0600226
0.0451131
0.0251584
0.00515837
-0.009819
-0.0247738
-0.0347511
-0.0447511
-0.0497511
-0.0547511
-0.0597964
-0.0648643
-0.0649095
-0.065
-0.0651584
-0.0652941
-0.065362
-0.0654525
-0.0656335
-0.0663348
-0.0676471
-0.0701357
-0.0690724
-0.0704072
-0.0835068
-0.0962217
-0.102217
-0.103258
-0.0954751
-0.0849548
-0.0773982
-0.0680543
-0.0626244
-0.0607014
-0.0521719
-0.0472851
-0.0550905
-0.0628507
-0.0602715
-0.0565837
-0.0570814
-0.0572172
-0.0571267
-0.0620588
-0.0670136
-0.0619683
-0.0569231
-0.0619004
-0.0669005
-0.0669005
-0.0669005
-0.0769005
-0.0869231
-0.0769683
-0.0670136
-0.0670362
-0.0670362
-0.0720362
-0.0770814
-0.0771719
-0.0772851
-0.0773982
-0.0774887
-0.0825566
-0.0876244
-0.0826923
-0.0777376
-0.0827828
-0.0878281
-0.0829186
-0.078009
-0.0830995
-0.0881674
-0.0832127
-0.0782805
-0.073371
-0.0534615
-0.033552
-0.0286199
-0.0286878
-0.0238009
-0.0289366
-0.00404977
0.000859732
0.00579186
0.0107014
0.0205882
0.0304977
0.0354072
0.0403167
0.0552489
0.0702036
0.055181
0.035181
0.0102262
-0.0146833
-0.0345928
-0.0545249
-0.0694344
-0.0793665
-0.0793213
-0.0792082
-0.0790045
-0.0787104
-0.0833711
-0.0879864
-0.0925566
-0.097172
-0.09681
-0.0964253
-0.100995
-0.105566
-0.100158
-0.094819
-0.0945475
-0.0943213
-0.0941403
-0.0939367
-0.0937557
-0.0935973
-0.0884615
-0.0833711
-0.0783258
-0.0632579
-0.0531674
-0.0630996
-0.0730543
-0.0629864
-0.0428959
0.0721719
0.212217
0.482285
0.812353
1.3424
1.72244
1.64749
1.29253
0.307579
-0.407376
-0.647308
-0.71224
-0.512195
-0.342104
-0.196991
-0.1069
-0.0767873
-0.0616516
-0.0615385
-0.061448
-0.0663348
-0.0712217
-0.0761312
-0.0810407
-0.0759502
-0.0708597
-0.0657692
-0.0606561
-0.0555204
-0.050362
-0.055181
-0.06
-0.059819
-0.0547059
-0.0446606
-0.0395701
-0.0394344
-0.039276
-0.039095
-0.0289367
-0.0188009
-0.0136878
-0.00859728
-0.00850678
-0.00841629
-0.00332579
0.00176471
0.00190046
0.00205883
0.0171493
0.0321946
0.0323077
0.0324434
0.0375566
0.0426244
0.0526923
0.0627602
0.0678281
0.0729412
0.0780995
0.0882579
0.0983937
0.103529
0.10362
0.103778
0.108914
0.124072
0.139231
0.144344
0.149434
0.154548
0.154661
0.154774
0.154955
0.155181
0.15043
0.145701
0.145928
0.151109
0.146267
0.151425
0.156561
0.141719
0.1269
0.112059
0.0971946
0.0823303
0.0674887
0.0576697
0.0428507
0.0180317
-0.00678734
-0.021629
-0.0315158
-0.0364027
-0.0412217
-0.0459955
-0.0507692
-0.065543
-0.070362
-0.0702262
-0.0701131
-0.065
-0.0598869
-0.0647738
-0.0695928
-0.0643665
-0.0591629
-0.0639819
-0.0688009
-0.0637557
-0.0586652
-0.0637783
-0.0639367
-0.0545249
-0.0502036
-0.0547285
-0.0585973
-0.0561539
-0.0540498
-0.0532127
-0.0476245
-0.0426923
-0.0527376
-0.0627149
-0.0626923
-0.0625113
-0.062353
-0.062172
-0.061991
-0.06181
-0.0566516
-0.0515159
-0.0514027
-0.0513349
-0.056267
-0.0611765
-0.0610634
-0.0609276
-0.0707693
-0.0805883
-0.0804299
-0.0803168
-0.0752263
-0.0701358
-0.0700227
-0.0699095
-0.074819
-0.0797512
-0.0797059
-0.0796154
-0.0744797
-0.0693213
-0.0691403
-0.0690046
-0.0739141
-0.0788009
-0.0836878
-0.0836199
-0.0735747
-0.0684616
-0.0782806
-0.0781222
-0.0780091
-0.0729186
-0.0678281
-0.0626923
-0.0575113
-0.0473303
-0.037172
-0.0320362
-0.0268779
-0.0216969
-0.0165159
-0.00635751
0.00377825
0.00393661
0.00916286
0.029457
0.0447285
0.0449773
0.0502262
0.0654524
0.0657239
0.0410407
0.0163574
-0.0133485
-0.0280317
-0.0376697
-0.052353
-0.0671267
-0.0718326
-0.0764706
-0.0811313
-0.0758145
-0.0705204
-0.0752263
-0.0849322
-0.094638
-0.0993439
-0.0990724
-0.0988462
-0.0986426
-0.0934163
-0.0881901
-0.0979865
-0.107805
-0.107624
-0.107443
-0.0973304
-0.0872399
-0.0821268
-0.076991
-0.0718326
-0.0666516
-0.0665159
-0.0664254
-0.0713123
-0.0761765
-0.0660634
-0.0159729
0.0891402
0.274276
0.554389
0.979502
1.52966
1.6548
1.43486
0.789932
-0.119977
-0.554887
-0.739796
-0.659683
-0.464548
-0.309434
-0.164344
-0.109276
-0.0742308
-0.0641856
-0.0641403
-0.0640725
-0.063982
-0.0638462
-0.0636652
-0.0585068
-0.0533485
-0.0531675
-0.0529865
-0.0528281
-0.0526924
-0.0526019
-0.0525566
-0.047534
-0.0425114
-0.0374209
-0.0323077
-0.0272399
-0.0221946
-0.017172
-0.012172
-0.012172
-0.0121494
-0.0120815
-0.0120136
-0.00196836
0.00800902
0.00789591
0.0127375
0.0225339
0.0273303
0.0271719
0.0269909
0.0317194
0.0414027
0.0510407
0.0557013
0.055362
0.0549547
0.0595022
0.069095
0.0787104
0.0833031
0.0879412
0.0927149
0.0976244
0.10267
0.102851
0.103122
0.103484
0.113982
0.12457
0.130158
0.135769
0.126471
0.117195
0.117805
0.118303
0.108688
0.0990271
0.114299
0.12948
0.119638
0.109774
0.0998869
0.0899321
0.0799548
0.0650226
0.0500905
0.0351131
0.0250905
0.0150453
7.45058e-09
-0.0200905
-0.0402262
-0.050362
-0.0504977
-0.0507013
-0.0559502
-0.0611312
-0.0613801
-0.0618552
-0.0678733
-0.0747737
-0.0782127
-0.0837556
-0.0861538
-0.0902715
-0.0973982
-0.100271
-0.100158
-0.0975792
-0.094457
-0.0914027
-0.0882805
-0.0847285
-0.0796606
-0.0624208
-0.0447059
-0.0430317
-0.0442987
-0.0446607
-0.0469683
-0.0501131
-0.0528959
-0.0597964
-0.0660181
-0.0616063
-0.0569457
-0.0571267
-0.0572851
-0.0624661
-0.0676923
-0.0729638
-0.0782353
-0.0735068
-0.0737557
-0.0839819
-0.0892308
-0.0845022
-0.0797737
-0.0800452
-0.080362
-0.075724
-0.0760633
-0.0863801
-0.0866968
-0.0770362
-0.0723982
-0.0727602
-0.0731222
-0.0734842
-0.0788688
-0.084276
-0.0796832
-0.0750905
-0.0604751
-0.0458823
-0.0413575
-0.0368326
-0.0372851
-0.0377375
-0.02819
-0.0186878
-0.00923075
0.000226263
-0.0002941
0.00420816
0.0237104
0.0382127
0.0377376
0.0423077
0.0519231
0.0465385
0.0211539
-0.0041855
-0.0244796
-0.0447511
-0.0650226
-0.0802941
-0.0905656
-0.0957692
-0.0958823
-0.0959049
-0.100837
-0.105724
-0.105543
-0.105271
-0.109932
-0.114593
-0.109253
-0.103801
-0.113235
-0.112624
-0.112036
-0.101493
-0.0909954
-0.0955203
-0.10009
-0.0997285
-0.0994344
-0.0991855
-0.0989819
-0.0888687
-0.0788687
-0.0739366
-0.0690271
-0.0641176
-0.0642307
-0.0793891
-0.0645927
-0.00481898
0.124955
0.324706
0.669457
1.13923
1.554
1.9338
1.4936
0.548371
-0.116878
-0.652149
-0.722398
-0.602624
-0.432851
-0.248077
-0.158281
-0.0884615
-0.0686652
-0.0588235
-0.0539593
-0.059095
-0.0642308
-0.0643665
-0.0644796
-0.0645701
-0.0597059
-0.0548642
-0.0549547
-0.055
-0.0500453
-0.0450905
-0.035181
-0.0253167
-0.0254525
-0.0255882
-0.0257014
-0.0258145
-0.0209729
-0.0161539
-0.0163122
-0.016448
-0.00658371
0.00328054
0.00316742
0.00305429
0.00789592
0.0177376
0.0276244
0.0325339
0.0374434
0.0423529
0.0472624
0.0521493
0.0520136
0.0519004
0.0568099
0.0717873
0.0868326
0.0919004
0.0969457
0.1019
0.101787
0.111674
0.126561
0.136448
0.141357
0.14129
0.141267
0.141312
0.14138
0.141403
0.141357
0.146267
0.151131
0.145882
0.140543
0.140158
0.139774
0.139389
0.139005
0.13362
0.123326
0.108145
0.0930317
0.0729638
0.0478733
0.0277828
0.0126697
0.00251132
-0.00766968
-0.0178281
-0.0279412
-0.0480769
-0.0532127
-0.0533484
-0.0534389
-0.0584842
-0.063552
-0.0636425
-0.063733
-0.0638235
-0.063914
-0.0590045
-0.0540724
-0.0591176
-0.0641629
-0.0642081
-0.0592534
-0.0543213
-0.0494344
-0.0444796
-0.0442986
-0.0438461
-0.0478959
-0.0516063
-0.0496154
-0.0481222
-0.0424435
-0.0380996
-0.0370815
-0.034819
-0.0406788
-0.0461765
-0.045543
-0.0451584
-0.0499095
-0.054819
-0.0398869
-0.0399095
-0.0499322
-0.0549095
-0.0548869
-0.0548643
-0.059819
-0.064819
-0.0598643
-0.0598869
-0.0698869
-0.0748643
-0.074819
-0.0747738
-0.0697285
-0.0646606
-0.0695701
-0.0744797
-0.0743892
-0.0743213
-0.074276
-0.0742082
-0.0741177
-0.0740272
-0.0739367
-0.0738235
-0.0736878
-0.0735747
-0.0734842
-0.0733937
-0.0732806
-0.0731448
-0.0730091
-0.0728733
-0.0727376
-0.0725792
-0.0724208
-0.0722851
-0.0721946
-0.0721267
-0.0720136
-0.0718552
-0.0616742
-0.0414706
-0.0263122
-0.0162217
-0.0061086
0.00404977
0.00923076
0.00441175
-0.000429872
0.00470587
0.0148416
0.0249774
0.0450679
0.0651131
0.070181
0.0702715
0.0653167
0.0553167
0.0353167
0.0153167
0.00031672
-0.00968328
-0.0346833
-0.0597059
-0.0747738
-0.0898417
-0.0899322
-0.0900905
-0.0852942
-0.0804978
-0.0806788
-0.0808145
-0.085905
-0.0909729
-0.0910634
-0.0911086
-0.0911086
-0.0910407
-0.0909276
-0.0908371
-0.0907466
-0.0906335
-0.0904978
-0.0903846
-0.0852715
-0.0801358
-0.0750226
-0.0699321
-0.0648416
-0.0597511
-0.0646607
-0.0645249
-0.0543439
0.0158371
0.106018
0.376199
0.69138
1.21656
1.77674
1.63192
1.4221
0.48233
-0.467398
-0.617172
-0.746991
-0.52181
-0.306629
-0.181471
-0.0763348
-0.0661086
-0.0558597
-0.0606561
-0.0654751
-0.0702941
-0.0751131
-0.0649774
-0.0548643
-0.0546606
-0.0544796
-0.0593665
-0.064276
-0.0591855
-0.0540724
-0.048914
-0.0437104
-0.0435068
-0.0433258
-0.0381448
-0.0329638
-0.0327828
-0.0326018
-0.0324208
-0.0322398
-0.0270588
-0.0218552
-0.016629
-0.0114253
-0.00624434
-0.00106334
0.00411766
0.00929866
0.0144797
0.0196606
0.0198643
0.0251131
0.0303846
0.0406335
0.0508597
0.0560634
0.0612444
0.0614254
0.0616516
0.0769683
0.092353
0.0977828
0.103258
0.108801
0.114389
0.119955
0.125475
0.126041
0.126606
0.137172
0.147783
0.148439
0.149072
0.154661
0.160181
0.160611
0.160905
0.161063
0.161154
0.156177
0.151018
0.145701
0.130317
0.114842
0.104299
0.0937331
0.0783032
0.0629865
0.0427602
0.0226018
0.00748871
-0.00757917
-0.0225792
-0.0325113
-0.0473982
-0.0622624
-0.0621267
-0.0619909
-0.0668552
-0.0717194
-0.0665837
-0.0614253
-0.0611991
-0.0609276
-0.0606561
-0.0603846
-0.0550679
-0.0497511
-0.0545023
-0.0592308
-0.0588914
-0.0582579
-0.0622398
-0.065
-0.0613348
-0.0553393
-0.0418552
-0.0290497
-0.0271945
-0.0295022
-0.0261312
-0.0238008
-0.0275791
-0.0312217
-0.0353167
-0.0410407
-0.0530769
-0.06638
-0.0731447
-0.0756334
-0.0750678
-0.0724886
-0.0643891
-0.0617873
-0.0749321
-0.0690045
-0.0635067
-0.0632353
-0.0630542
-0.067828
-0.0725565
-0.0772624
-0.0819457
-0.0816289
-0.0813122
-0.0809728
-0.0806108
-0.0802714
-0.0799547
-0.0795927
-0.0792533
-0.083914
-0.0885972
-0.0833031
-0.0779637
-0.0775791
-0.0771719
-0.076742
-0.0763122
-0.0758823
-0.0804298
-0.0899773
-0.0945475
-0.0891402
-0.0836651
-0.0781221
-0.0725791
-0.0720361
-0.0715158
-0.071018
-0.0704751
-0.0698868
-0.0692986
-0.0737104
-0.0781221
-0.0775339
-0.071923
-0.0763348
-0.0658144
-0.0553167
-0.0447737
-0.0341855
-0.0236199
-0.0130995
-0.00260175
0.007896
0.0183937
0.0288689
0.0292987
0.034706
0.0500906
0.0604752
0.0608598
0.0661765
0.0814254
0.086629
0.0617874
0.0418553
0.0218327
0.00674216
-0.00841621
-0.0236425
-0.0389366
-0.0542759
-0.0646379
-0.0700678
-0.0705429
-0.0709275
-0.0712216
-0.0714705
-0.0716741
-0.076742
-0.0867194
-0.0916289
-0.0864932
-0.0813348
-0.0861538
-0.0809276
-0.0706561
-0.0753846
-0.0801131
-0.0748416
-0.0695701
-0.0692986
-0.0690271
-0.0587782
-0.048552
-0.0432805
-0.0429638
-0.0626697
-0.0573982
0.0228733
0.138122
0.333348
0.648597
1.13387
1.52914
1.81939
1.48962
0.539842
-0.139955
-0.589774
-0.70957
-0.589321
-0.414072
-0.208891
-0.11371
-0.0685294
-0.0533258
-0.0580995
-0.0628733
-0.0626471
-0.0624434
-0.0622625
-0.0620815
-0.0619005
-0.0617195
-0.0565385
-0.0513349
-0.0611086
-0.0558824
-0.0506562
-0.0404525
-0.0302716
-0.0350679
-0.0398417
-0.0396154
-0.0393892
-0.0341403
-0.0288688
-0.02862
-0.0284163
-0.018258
-0.00812223
-0.0130091
-0.017896
-0.0127828
-0.00762448
-0.00244346
0.00273754
0.00791854
0.0130995
0.0182805
0.0234841
0.0286878
0.0338914
0.0341176
0.0443213
0.059457
0.064638
0.0648642
0.0651131
0.0703846
0.0806787
0.0909955
0.0962896
0.0966063
0.101991
0.112421
0.117805
0.11819
0.11362
0.10905
0.109434
0.109774
0.110113
0.110452
0.115679
0.120747
0.115633
0.11052
0.110452
0.110407
0.105385
0.100362
0.100249
0.0953167
0.0754525
0.0556109
0.0407919
0.0259955
0.00122172
-0.0135747
-0.0284163
-0.0382805
-0.0431222
-0.0479412
-0.0527828
-0.0575792
-0.0623077
-0.0670588
-0.0668326
-0.0665611
-0.0712669
-0.0760407
-0.0708597
-0.0656108
-0.0702941
-0.0749547
-0.0746154
-0.0743891
-0.0691855
-0.0586651
-0.0526244
-0.0556561
-0.0572398
-0.051629
-0.0445249
-0.0364933
-0.0309277
-0.0257693
-0.0258598
-0.0403847
-0.0556788
-0.065362
-0.0702263
-0.0648643
-0.0578054
-0.0593665
-0.0615837
-0.0645701
-0.0683032
-0.0676923
-0.0672851
-0.0670588
-0.0668552
-0.0666742
-0.0665158
-0.0713575
-0.0761765
-0.0760407
-0.0758824
-0.0757013
-0.0755204
-0.0753394
-0.0751584
-0.0749773
-0.074819
-0.0796833
-0.0845022
-0.0792986
-0.0741403
-0.0740045
-0.0738461
-0.0636651
-0.0585294
-0.0534389
-0.0583258
-0.06319
-0.0630317
-0.0628507
-0.0626697
-0.0624887
-0.0673077
-0.0721267
-0.0769457
-0.0817873
-0.0716742
-0.0615385
-0.0613348
-0.0611312
-0.0559502
-0.0508145
-0.0457014
-0.040543
-0.0253393
-0.0201131
-0.0248869
-0.0246606
-0.0144117
-0.00916287
-0.00393663
0.00619912
0.0162444
0.0312896
0.0463349
0.0513801
0.0514254
0.0664706
0.0865159
0.0715611
0.0466064
0.0266743
0.00676475
-0.00816737
0.00187787
-0.0430543
-0.0579864
-0.063009
-0.0681221
-0.0732805
-0.0784841
-0.0787783
-0.079095
-0.0794344
-0.0797511
-0.0800226
-0.0802489
-0.0854298
-0.0905656
-0.0907692
-0.0908371
-0.0958823
-0.0959502
-0.0810633
-0.0711991
-0.0763122
-0.0813801
-0.0814479
-0.0815384
-0.0766289
-0.0667421
-0.0568552
-0.056923
-0.0669683
-0.0720362
-0.0721267
-0.00721716
0.0776923
0.292579
0.537443
1.01733
1.54724
1.59713
1.58199
0.691833
-0.258348
-0.538507
-0.798643
-0.638778
-0.473914
-0.31405
-0.169208
-0.124412
-0.084638
-0.0798642
-0.0750905
-0.0702941
-0.0654751
-0.0656787
-0.0659049
-0.0661086
-0.0663122
-0.0565384
-0.0467421
-0.0519231
-0.0570814
-0.0522172
-0.0473756
-0.0525792
-0.0528281
-0.0430769
-0.0382806
-0.0334615
-0.0286425
-0.0237783
-0.0188914
-0.0189819
-0.019095
-0.0192308
-0.0193665
-0.0145023
-0.009638
-0.00477375
6.78822e-05
0.00488689
0.0146833
0.024457
0.0292534
0.0290272
0.0337104
0.0383484
0.0479864
0.0576244
0.0572851
0.0569457
0.056629
0.0563122
0.0609502
0.065543
0.0701358
0.0747059
0.0892534
0.103824
0.103394
0.103032
0.102738
0.102579
0.107534
0.112624
0.107873
0.103167
0.0984616
0.0937104
0.093914
0.0940272
0.0891629
0.0840951
0.0839593
0.0838236
0.0786878
0.0735295
0.0683485
0.0581675
0.0479865
0.0328055
0.0176245
0.00244351
-0.0127375
-0.0279411
-0.0181673
-0.0533936
-0.0586424
-0.0539592
-0.0492986
-0.04957
-0.0497963
-0.0550678
-0.0603845
-0.0606786
-0.0609728
-0.0562895
-0.0519909
-0.0531221
-0.055294
-0.0564931
-0.0622624
-0.0703619
-0.0777375
-0.0789592
-0.0749094
-0.0709275
-0.0638008
-0.0536651
-0.0442759
-0.030837
-0.0220135
-0.0229637
-0.0252714
-0.0338235
-0.0416741
-0.0488008
-0.0502035
-0.0409501
-0.0364931
-0.0368551
-0.0371945
-0.0425112
-0.0478053
-0.0480768
-0.048371
-0.0536877
-0.0540271
-0.0493891
-0.0547058
-0.0599773
-0.0652714
-0.0705882
-0.0659049
-0.0612217
-0.0565836
-0.0519683
-0.0573303
-0.0626923
-0.0630316
-0.0633484
-0.0636425
-0.0639592
-0.0643212
-0.0647058
-0.0651131
-0.065543
-0.0659728
-0.0664253
-0.0669004
-0.0673755
-0.0678506
-0.0683031
-0.063733
-0.0491855
-0.0296832
-0.0201809
-0.0156787
-0.0111538
-0.0116063
-0.00708141
0.00242086
0.0069005
0.0113575
0.0208145
0.0302715
0.0397285
0.0491855
0.0537331
0.0633711
0.0629864
0.0625792
0.037172
0.0117647
-0.00361989
-0.0189819
-0.0443439
-0.0696832
-0.08
-0.0903167
-0.0856108
-0.0808597
-0.081086
-0.0812443
-0.0862896
-0.091267
-0.0911991
-0.091086
-0.0909276
-0.0907692
-0.0906109
-0.0904977
-0.0904299
-0.0903846
-0.090362
-0.0903846
-0.0903394
-0.0854751
-0.0756561
-0.0708145
-0.0709502
-0.0711086
-0.0662896
-0.0614706
-0.0666516
-0.0668326
-0.0570136
0.0378054
0.142624
0.372443
0.147262
1.15208
1.6669
1.5717
1.40147
0.451267
-0.393914
-0.609095
-0.744276
-0.529457
-0.334638
-0.204796
-0.0999322
-0.0800679
-0.0652037
-0.060362
-0.0555204
-0.0556788
-0.0558371
-0.0559503
-0.0560408
-0.0561313
-0.0562218
-0.0563349
-0.056448
-0.0515385
-0.046629
-0.0417421
-0.0368326
-0.0368779
-0.0369684
-0.0371041
-0.0372172
-0.0323077
-0.0273982
-0.0224887
-0.0175566
-0.0126018
-0.0076697
-0.0077602
-0.0078507
-0.00794119
0.00196832
0.0118778
0.0167873
0.0216968
0.0265837
0.0314479
0.0413348
0.0512443
0.0561538
0.0610633
0.0659728
0.0708823
0.0808145
0.0908145
0.0958823
0.100995
0.106154
0.111312
0.116448
0.121561
0.126674
0.131765
0.136833
0.141923
0.147036
0.152149
0.147262
0.142398
0.147579
0.152715
0.152783
0.15267
0.152398
0.152059
0.146652
0.136086
0.12543
0.119887
0.114412
0.104005
0.0936651
0.0733936
0.04819
0.0330543
0.0179185
0.00278278
-0.012353
-0.0224887
-0.0326018
-0.0376697
-0.0427149
-0.0527828
-0.0628733
-0.0679412
-0.0729864
-0.0680543
-0.0631222
-0.0630995
-0.0630543
-0.058009
-0.0529864
-0.0579638
-0.0629638
-0.0630317
-0.0631222
-0.05819
-0.052828
-0.0519909
-0.0500452
-0.0491403
-0.0440045
-0.0320588
-0.0213801
-0.0178733
-0.0208598
-0.029457
-0.0402715
-0.0501358
-0.054457
-0.0548643
-0.0530317
-0.0504977
-0.048733
-0.0476697
-0.0522624
-0.0571493
-0.0571493
-0.0571946
-0.0572398
-0.0572851
-0.0573303
-0.0573756
-0.0623982
-0.0673982
-0.0673756
-0.0673303
-0.0722851
-0.0772398
-0.0721946
-0.0671493
-0.0771041
-0.0870588
-0.081991
-0.0769231
-0.0768552
-0.07681
-0.0767873
-0.0767421
-0.0766968
-0.0766516
-0.0766063
-0.0765385
-0.076448
-0.0763349
-0.0712217
-0.0661539
-0.0711086
-0.0760181
-0.0758824
-0.0757466
-0.0756109
-0.0754751
-0.0753394
-0.075181
-0.07
-0.069819
-0.074638
-0.069457
-0.064276
-0.0540951
-0.0439367
-0.0338009
-0.0236652
-0.0185294
-0.0133937
-0.00323533
0.00692304
0.00701354
0.00705878
0.0171267
0.0321945
0.0472398
0.0573077
0.0573982
0.0574887
0.0675565
0.0625792
0.0275565
0.00248866
-0.00762447
-0.0177602
-0.0329186
-0.0481448
-0.0684616
-0.0738009
-0.0741403
-0.0744797
-0.074819
-0.0801358
-0.0904299
-0.0956788
-0.0908824
-0.0860634
-0.0912444
-0.0964254
-0.0916064
-0.0867421
-0.09681
-0.0968326
-0.0968326
-0.0918326
-0.0868326
-0.0768552
-0.0669005
-0.0619457
-0.056991
-0.056991
-0.0569457
-0.0719005
-0.0668552
0.00316739
0.118167
0.30319
0.613258
1.09835
1.49342
1.76846
1.42351
0.413552
-0.256403
-0.621358
-0.671312
-0.481267
-0.311222
-0.161177
-0.0911539
-0.0661539
-0.0561313
-0.056086
-0.0560408
-0.0559955
-0.0559729
-0.0609729
-0.0659729
-0.0659729
-0.0659503
-0.060905
-0.0558598
-0.0558145
-0.0557693
-0.055724
-0.055724
-0.0557693
-0.0507693
-0.045724
-0.0356788
-0.0256335
-0.0255883
-0.025543
-0.0255204
-0.0254977
-0.0204299
-0.0153394
-0.0152489
-0.0101584
0.00495476
0.0150679
0.0151358
0.015181
0.0202263
0.0252941
0.0303846
0.0354751
0.0405656
0.0456335
0.0507014
0.0557693
0.0608145
0.0658824
0.0709729
0.0811313
0.0913575
0.0966064
0.101878
0.107172
0.107489
0.112873
0.123326
0.128756
0.12914
0.134525
0.139955
0.13543
0.130928
0.131403
0.131833
0.132262
0.132624
0.137783
0.142805
0.137805
0.132738
0.127534
0.12224
0.111833
0.0962896
0.0806561
0.0651358
0.0497285
0.0344118
0.0191629
0.00395932
-0.0111538
-0.0211764
-0.0261538
-0.0311312
-0.0360633
-0.0459954
-0.0559955
-0.0609728
-0.0559276
-0.0508371
-0.0507013
-0.0505203
-0.0502941
-0.0500226
-0.0547285
-0.0594796
-0.0592534
-0.059095
-0.053914
-0.0484163
-0.0473982
-0.050543
-0.0522851
-0.0418552
-0.0296606
-0.0212443
-0.0144117
-0.0121266
-0.0128506
-0.0152262
-0.0182126
-0.0207692
-0.0235067
-0.026561
-0.031923
-0.0447963
-0.0568325
-0.0628733
-0.0647963
-0.0579411
-0.0502036
-0.0518552
-0.0543891
-0.0577375
-0.0617421
-0.0662443
-0.0708823
-0.0656561
-0.0604525
-0.0602715
-0.0600905
-0.0649095
-0.0697059
-0.0694796
-0.0692081
-0.0688914
-0.0685972
-0.0633258
-0.0630769
-0.0728506
-0.0776018
-0.0773303
-0.0770362
-0.0766968
-0.0713122
-0.0659049
-0.0655203
-0.0651583
-0.0697963
-0.0744344
-0.0740497
-0.0736651
-0.0683031
-0.0629411
-0.0625565
-0.0621493
-0.0617194
-0.0612896
-0.0658597
-0.0704072
-0.0649321
-0.059457
-0.0589819
-0.0585068
-0.0630543
-0.0676018
-0.0621267
-0.0516516
-0.0411991
-0.0357692
-0.030362
-0.0249773
-0.0196154
-0.00925337
0.00110862
0.0114254
0.0216969
0.0269683
0.0222398
0.0274661
0.0426471
0.0478054
0.0529412
0.0780317
0.0980543
0.0730317
0.0479638
0.0228281
-0.00237555
-0.017647
-0.0329864
-0.0483937
-0.0638461
-0.0692986
-0.0747511
-0.0702262
-0.0657466
-0.0712895
-0.0767647
-0.0821493
-0.0874434
-0.0876696
-0.087828
-0.0929185
-0.0929864
-0.0830543
-0.0781221
-0.0781674
-0.07819
-0.0781674
-0.0780769
-0.0779412
-0.077828
-0.0727375
-0.0676244
-0.0624886
-0.0573529
-0.0622171
-0.0670814
-0.0669457
0.0182127
0.113371
0.323484
0.543575
1.12369
1.70382
1.52894
1.309
0.399027
-0.435973
-0.63095
-0.770905
-0.58086
-0.400814
-0.255814
-0.14086
-0.105928
-0.0760181
-0.0710859
-0.0661312
-0.0661764
-0.0661991
-0.0662217
-0.0662669
-0.0663122
-0.0663574
-0.0614027
-0.0564253
-0.0514027
-0.0463801
-0.0464027
-0.0464253
-0.0514253
-0.0564706
-0.0515611
-0.0465837
-0.0415384
-0.0365384
-0.0315837
-0.0266063
-0.0266063
-0.0216289
-0.0116742
-0.00667419
-0.00662893
-0.00660631
-0.0066063
-0.00158369
0.00346156
0.00846156
0.0134163
0.0183937
0.0233937
0.0283711
0.0332806
0.0380996
0.0428507
0.0475792
0.0523304
0.0621267
0.0719458
0.0717874
0.0715838
0.0713801
0.0711313
0.0808372
0.090543
0.0952489
0.0999548
0.104615
0.109321
0.10914
0.109095
0.109163
0.109412
0.104842
0.100272
0.100679
0.100996
0.101222
0.10138
0.101471
0.101471
0.0963801
0.091267
0.0911313
0.0910181
0.0859503
0.065905
0.0508598
0.0357693
0.0206335
0.00549778
-0.00963797
-0.014819
-0.0200226
-0.0252036
-0.0303846
-0.035543
-0.0407013
-0.0509049
-0.0611312
-0.0613801
-0.0616516
-0.0619004
-0.0621493
-0.0624208
-0.06319
-0.0645701
-0.0672398
-0.0763574
-0.0825792
-0.0800905
-0.0804977
-0.0880317
-0.0889592
-0.079276
-0.0645927
-0.0456787
-0.0367647
-0.0374208
-0.0396153
-0.0478507
-0.055362
-0.0521493
-0.0482805
-0.0488914
-0.0493439
-0.0496606
-0.0499773
-0.0502941
-0.0555882
-0.0608597
-0.0611538
-0.0614706
-0.0618099
-0.0621719
-0.0675339
-0.0728959
-0.0732579
-0.0736199
-0.0789592
-0.084276
-0.074638
-0.0650452
-0.0754751
-0.085905
-0.0763348
-0.0667647
-0.0771945
-0.0876244
-0.0830769
-0.0785068
-0.0838914
-0.0892986
-0.0847511
-0.0802036
-0.0856561
-0.0911312
-0.0866289
-0.082104
-0.0825565
-0.083009
-0.0784615
-0.0639366
-0.0494344
-0.0399773
-0.0305203
-0.0260407
-0.0265384
-0.0269909
-0.0274208
-0.0128959
-0.00841627
0.0110181
0.0304299
0.0398869
0.0493892
0.0539367
0.0585294
0.0531448
0.0427828
0.0174208
-0.00294115
-0.0183258
-0.038733
-0.0641629
-0.0845475
-0.0899095
-0.0952488
-0.0955656
-0.0958371
-0.0910633
-0.0862217
-0.0863348
-0.0864253
-0.0864706
-0.0914479
-0.10138
-0.106357
-0.101357
-0.0963801
-0.0964253
-0.0965158
-0.0916516
-0.0868325
-0.0820588
-0.077285
-0.0825113
-0.0827602
-0.0730316
-0.068371
-0.0637782
-0.0591855
-0.0595927
-0.055
-0.0454072
0.0691855
0.198778
0.478371
0.797964
1.34751
1.72704
1.47161
1.0562
0.175769
-0.484683
-0.660136
-0.710588
-0.516018
-0.341425
-0.196833
-0.10724
-0.0776697
-0.0580769
-0.0584163
-0.0587556
-0.0591176
-0.0595022
-0.0549095
-0.0502715
-0.0555882
-0.0609276
-0.0562896
-0.0516516
-0.0470136
-0.0423755
-0.0377375
-0.0331222
-0.0285294
-0.023914
-0.029276
-0.0346832
-0.0301357
-0.025543
-0.015905
-0.0112896
-0.00669681
-0.00208143
0.00255658
0.00717196
0.0117647
0.0113575
0.0109502
0.020543
0.0301358
0.0297738
0.0294344
0.0390272
0.0485747
0.04819
0.0478054
0.0523982
0.0570136
0.0666742
0.0763801
0.0911312
0.0958371
0.0954977
0.0951584
0.0947964
0.0994344
0.109072
0.118756
0.128439
0.13319
0.132986
0.13276
0.127511
0.122217
0.1219
0.121538
0.121131
0.120679
0.125226
0.129796
0.129367
0.113914
0.108439
0.102986
0.0975792
0.0872398
0.0769231
0.061629
0.0463575
0.0360633
0.0257466
0.0104525
-0.00484163
-0.015181
-0.025543
-0.0358823
-0.0461312
-0.0513575
-0.056629
-0.0519231
-0.0471946
-0.0524434
-0.0576697
-0.0579185
-0.0582127
-0.0535068
-0.0488009
-0.049095
-0.0493213
-0.0495022
-0.0497059
-0.0500679
-0.0503394
-0.0508371
-0.0513801
-0.0472851
-0.0430317
-0.0429638
-0.0435747
-0.0434163
-0.0428959
-0.0431222
-0.0382127
-0.0337783
-0.0343665
-0.0348869
-0.0353846
-0.0357014
-0.0459502
-0.0561312
-0.0513348
-0.0465611
-0.0417647
-0.0369457
-0.0471041
-0.0572398
-0.0573982
-0.0576018
-0.0578054
-0.0579864
-0.0581448
-0.0583032
-0.0584615
-0.0585973
-0.0637104
-0.0688235
-0.0639819
-0.0591629
-0.0593213
-0.0594796
-0.0646154
-0.0697511
-0.0648869
-0.0600226
-0.0651584
-0.0702715
-0.065362
-0.0604977
-0.0656787
-0.0708371
-0.0759728
-0.0761312
-0.0663122
-0.0614706
-0.0716063
-0.0667647
-0.0619457
-0.0671267
-0.0723077
-0.0674434
-0.0625566
-0.0426471
-0.0227376
-0.0178507
-0.0129864
-0.0131448
-0.0133032
-0.00841629
-0.00350678
0.00138009
0.011267
0.0261312
0.0409955
0.0558371
0.0656561
0.0704751
0.0702941
0.0551131
0.0349321
0.0147737
-0.00533937
-0.0254299
-0.0405656
-0.0507014
-0.0658145
-0.080905
-0.0859955
-0.0860634
-0.0861312
-0.0811991
-0.0762443
-0.0812443
-0.0862217
-0.0861991
-0.0861765
-0.0861765
-0.101199
-0.106244
-0.0963122
-0.0864027
-0.086448
-0.086448
-0.086448
-0.086448
-0.0764706
-0.0665158
-0.0615385
-0.0565385
-0.0665158
-0.0764706
-0.0664253
-0.0214027
0.0736425
0.253665
0.543665
0.943665
1.45869
1.65876
1.55385
0.968914
0.00895927
-0.486018
-0.691018
-0.635973
-0.435882
-0.275769
-0.135633
-0.0854978
-0.070362
-0.0652941
-0.0602941
-0.0552715
-0.0602262
-0.0651357
-0.065
-0.0649095
-0.0648643
-0.0598416
-0.0548416
-0.054819
-0.0547738
-0.0497285
-0.0446606
-0.0445475
-0.0444118
-0.0393213
-0.034276
-0.0341855
-0.0340498
-0.028914
-0.0237783
-0.0186652
-0.0135973
-0.00852941
-0.00341629
-0.00330317
-0.00321268
0.00690044
0.0170362
0.0221493
0.0272172
0.0322398
0.0372851
0.0423982
0.0475566
0.0526923
0.0578054
0.0628959
0.0679638
0.068009
0.0730995
0.0832353
0.0884163
0.0936199
0.0987783
0.103914
0.109027
0.109118
0.114208
0.129299
0.134412
0.139548
0.139706
0.139864
0.140023
0.140204
0.140385
0.14052
0.140543
0.140566
0.135633
0.130679
0.125701
0.120747
0.11086
0.10095
0.0910181
0.076086
0.0611765
0.046267
0.0313801
0.0115385
-0.00830317
-0.0231674
-0.0330317
-0.0378733
-0.0426923
-0.0476018
-0.0475566
-0.0474434
-0.0522625
-0.0570815
-0.0619005
-0.0667421
-0.0616063
-0.056448
-0.056267
-0.0560634
-0.0608371
-0.0656787
-0.0655883
-0.0604299
-0.0650905
-0.0593891
-0.0532353
-0.0512444
-0.0487104
-0.0503167
-0.0532805
-0.0491403
-0.0468326
-0.0474661
-0.0464706
-0.0522851
-0.057172
-0.061629
-0.0654072
-0.0645475
-0.0639366
-0.0586878
-0.0534842
-0.0533258
-0.0531448
-0.0579864
-0.0628507
-0.0627149
-0.0625566
-0.0573756
-0.0521719
-0.0569457
-0.0617195
-0.0614932
-0.0662896
-0.0761086
-0.0809276
-0.0757466
-0.0705656
-0.0753846
-0.0802036
-0.0800226
-0.0798416
-0.0796606
-0.074457
-0.0692308
-0.0739819
-0.0787104
-0.0784615
-0.0782353
-0.0779638
-0.0776923
-0.0724661
-0.0672398
-0.0719683
-0.0766742
-0.0814027
-0.0861312
-0.0758597
-0.0656335
-0.0654299
-0.065181
-0.0699095
-0.0746154
-0.064276
-0.0489593
-0.0336652
-0.0233937
-0.0181448
-0.0128959
-0.00766968
-0.00242081
-0.00210407
0.00319004
0.0134615
0.0287104
0.0439366
0.0491855
0.054457
0.0647285
0.075
0.0552941
0.0256109
0.0108824
-0.00389141
-0.0236878
-0.0485068
-0.0583484
-0.0682127
-0.0731222
-0.0780996
-0.0781222
-0.0781448
-0.0831674
-0.0882127
-0.0882806
-0.0883258
-0.0933258
-0.0983258
-0.0933258
-0.0882806
-0.0931448
-0.0979638
-0.0977602
-0.0975566
-0.0923529
-0.087172
-0.0819683
-0.0767647
-0.0765837
-0.0763801
-0.0711765
-0.0659955
-0.0708145
-0.0655882
-0.050362
0.0298643
0.135091
0.415317
0.740543
1.24075
1.77593
1.59613
1.28636
0.431606
-0.478122
-0.627851
-0.522579
-0.51233
-0.292104
-0.1869
-0.0917195
-0.0765158
-0.0612896
-0.0610633
-0.0608371
-0.0606335
-0.0604525
-0.0652489
-0.0700226
-0.0697738
-0.0695023
-0.0692534
-0.0689593
-0.0586425
-0.048371
-0.0481674
-0.0479638
-0.0427149
-0.0374434
-0.0371946
-0.0369909
-0.03181
-0.0266063
-0.0263801
-0.0261312
-0.0258597
-0.0255882
-0.0203167
-0.0150452
-0.0147737
-0.0045475
0.0106335
0.015905
0.0112217
0.0115158
0.0217647
0.0269457
0.0320588
0.0471493
0.0572398
0.0523303
0.0473982
0.0473982
0.047353
0.0573529
0.0674208
0.0775339
0.0875792
0.0925339
0.0974887
0.0974435
0.0973756
0.107262
0.117262
0.122421
0.12776
0.123281
0.118937
0.119729
0.120611
0.116584
0.112466
0.118213
0.123891
0.124502
0.125045
0.120498
0.115905
0.116267
0.116606
0.111923
0.0972398
0.0825566
0.0678959
0.0532579
0.0335973
0.013914
0.00920816
0.00447965
-0.0102489
-0.03
-0.039819
-0.0496832
-0.0545475
-0.0594118
-0.059276
-0.0591176
-0.0538914
-0.0487783
-0.0538688
-0.0595249
-0.0607466
-0.0637783
-0.0737557
-0.0858145
-0.0898416
-0.0896154
-0.0901131
-0.0868552
-0.0799321
-0.0709728
-0.0599321
-0.0506109
-0.0434842
-0.0405882
-0.0471041
-0.0543439
-0.0561538
-0.0579185
-0.0536878
-0.0489819
-0.0488461
-0.0486652
-0.0484389
-0.0482353
-0.0480543
-0.0478733
-0.0526923
-0.0575113
-0.0573529
-0.0572398
-0.0571493
-0.0720588
-0.0769909
-0.0719231
-0.0668326
-0.0717195
-0.0765837
-0.076448
-0.0763122
-0.0711991
-0.0661086
-0.0710181
-0.0759276
-0.0758597
-0.0758145
-0.0807692
-0.0857466
-0.085724
-0.085724
-0.0757692
-0.0657692
-0.0807014
-0.0856109
-0.085543
-0.0805204
-0.0704977
-0.0604977
-0.0455204
-0.0354977
-0.0354525
-0.0304299
-0.0204299
-0.0154072
-0.0153846
-0.0154072
-0.0104525
0.0145475
0.0396154
0.0447511
0.0499321
0.0600905
0.0702262
0.0504072
0.0256335
0.00090497
-0.0237783
-0.0485068
-0.0732579
-0.0829638
-0.0926471
-0.0923756
-0.0921267
-0.09181
-0.0914027
-0.0959276
-0.100407
-0.0998643
-0.099276
-0.0986425
-0.0979185
-0.0971267
-0.0963575
-0.105611
-0.11491
-0.109253
-0.10371
-0.103281
-0.102851
-0.0974208
-0.0870362
-0.0767194
-0.0714706
-0.0712896
-0.0711538
-0.0660634
-0.0659502
-0.0758145
-0.0456335
-0.000407241
0.124774
0.25491
0.660045
1.08518
1.55027
2.00032
1.14038
0.300475
-0.249434
-0.734344
-0.684231
-0.609095
-0.408982
-0.233891
-0.153801
-0.0887104
-0.0786652
-0.0686652
-0.0686425
-0.0685973
-0.0684842
-0.0683484
-0.0632127
-0.0580996
-0.0530091
-0.0478733
-0.0476923
-0.0475339
-0.0524208
-0.0523077
-0.042172
-0.0370362
-0.0369005
-0.0318552
-0.0218552
-0.01681
-0.0217195
-0.0266742
-0.0216742
-0.0166742
-0.0116968
-0.00676472
-0.00185521
0.00300904
0.00782806
0.0126244
0.0123982
0.0171267
0.0218099
0.0314706
0.0410633
0.0406335
0.0402036
0.0396606
0.0390498
0.0483937
0.0577602
0.0672172
0.0768099
0.0815611
0.0864706
0.0862896
0.086448
0.0817421
0.0820588
0.102376
0.117692
0.118032
0.113507
0.104118
0.0997511
0.105407
0.111109
0.111855
0.112511
0.108054
0.103484
0.108801
0.109027
0.0991629
0.0942308
0.0992308
0.0992308
0.0892308
0.0742308
0.0592082
0.0491177
0.0389819
0.0238236
0.0136426
-0.00656106
-0.0267421
-0.0368552
-0.0470362
-0.0523982
-0.0583484
-0.0548869
-0.0528733
-0.0624887
-0.0745022
-0.0890045
-0.100747
-0.0993665
-0.0947285
-0.0869683
-0.0792307
-0.0815611
-0.084819
-0.0889819
-0.0934841
-0.0881674
-0.0823529
-0.0810181
-0.0778507
-0.0677602
-0.055543
-0.046267
-0.0409276
-0.0394344
-0.0404299
-0.0486199
-0.0565611
-0.0541403
-0.0508371
-0.0517647
-0.0523303
-0.0476244
-0.0429185
-0.04819
-0.0534841
-0.0638009
-0.0641176
-0.0644344
-0.0597511
-0.0550678
-0.0653846
-0.075724
-0.0711086
-0.0665158
-0.0719457
-0.0773756
-0.0777602
-0.0781222
-0.0735068
-0.0688914
-0.074276
-0.0796832
-0.0751584
-0.0706787
-0.0711991
-0.0666968
-0.0521719
-0.0426697
-0.03819
-0.0337104
-0.0292308
-0.0247511
-0.0202941
-0.0158597
-0.0114479
0.00300907
0.0175113
0.0270136
0.0365159
0.0459955
0.0554525
0.0549548
0.0445023
0.0241177
0.00380092
-0.0214706
-0.00169682
-0.0719231
-0.0921493
-0.0924208
-0.0926923
-0.092828
-0.092828
-0.0977602
-0.102647
-0.102511
-0.10233
-0.102059
-0.101697
-0.101267
-0.100792
-0.100362
-0.099819
-0.104208
-0.108575
-0.102964
-0.0973755
-0.0967647
-0.0961538
-0.0955882
-0.0900905
-0.0796606
-0.074276
-0.0689366
-0.0636652
-0.0584389
-0.0632805
-0.0781901
-0.0631674
-0.0332127
0.0867195
0.221629
0.546538
0.906448
1.43633
1.9912
1.39104
0.71086
-0.00427602
-0.694367
-0.689457
-0.669548
-0.464661
-0.274796
-0.169955
-0.0851358
-0.0702941
-0.0554073
-0.0554751
-0.055543
-0.0606335
-0.065724
-0.0557919
-0.0458145
-0.0458145
-0.0457918
-0.0507692
-0.0557692
-0.0507466
-0.0457013
-0.0456561
-0.0406335
-0.0306109
-0.025543
-0.0204751
-0.0154299
-0.0154299
-0.0154299
-0.0104299
-0.00540725
-0.000362001
0.00966062
0.0196606
0.0246606
0.0246606
0.024638
0.0245928
0.0245249
0.0294344
0.0343891
0.0443891
0.0543439
0.0641855
0.0689366
0.0736651
0.0733937
0.0731448
0.0829412
0.0927602
0.0976018
0.102466
0.10733
0.112104
0.121787
0.131493
0.13129
0.131086
0.130882
0.130814
0.135882
0.141041
0.14129
0.141697
0.137172
0.132624
0.128054
0.123394
0.123846
0.123937
0.128891
0.128891
0.118937
0.104005
0.089095
0.0741403
0.0591403
0.0441403
0.0291403
0.0141629
-0.000791855
-0.0107466
-0.00570137
-0.0356561
-0.0456109
-0.0506109
-0.0556561
-0.0557014
-0.0557466
-0.0557919
-0.0558597
-0.0559729
-0.0560407
-0.0559955
-0.056086
-0.0563575
-0.0573756
-0.0626244
-0.071448
-0.0723529
-0.0752036
-0.0843891
-0.0891403
-0.0845701
-0.0757919
-0.0682127
-0.0586425
-0.0471267
-0.0392987
-0.0402941
-0.0447738
-0.0425339
-0.0402715
-0.0429186
-0.0446154
-0.0454299
-0.0458145
-0.0458597
-0.0508145
-0.0606787
-0.060543
-0.0504072
-0.0453167
-0.0502715
-0.0602036
-0.0651131
-0.0700226
-0.0749321
-0.0748642
-0.074819
-0.0747511
-0.0746832
-0.0696606
-0.064638
-0.0695475
-0.0744118
-0.074276
-0.0741629
-0.074095
-0.0740724
-0.0740498
-0.0740045
-0.0789367
-0.0838462
-0.078733
-0.0736199
-0.0735294
-0.0734842
-0.0684842
-0.0634842
-0.0684615
-0.0734615
-0.0684615
-0.0484389
-0.0233937
-0.013371
-0.013371
-0.0134163
-0.00850678
-0.00355203
-0.00355203
-0.00352941
0.00151584
0.0265611
0.0516063
0.0516742
0.0367647
0.0518552
0.0669457
0.0470362
0.0271267
0.0172625
0.00744345
-0.0273982
-0.0522172
-0.0669909
-0.0817647
-0.0865384
-0.0912896
-0.0809955
-0.0706108
-0.0800905
-0.0895023
-0.0938914
-0.0983032
-0.0927376
-0.0871946
-0.0866742
-0.0861538
-0.0906335
-0.0951584
-0.0947285
-0.0943439
-0.0939366
-0.0936878
-0.0885068
-0.0833032
-0.0780769
-0.0728733
-0.0726923
-0.0675339
-0.0573982
-0.0622624
-0.0771267
-0.0419683
0.00321268
0.173416
0.00864255
0.793824
1.23894
1.68403
2.00914
1.1493
0.32948
-0.275339
-0.755158
-0.664977
-0.539796
-0.324615
-0.159434
-0.104253
-0.0690724
-0.0688687
-0.0686199
-0.0733484
-0.0780995
-0.0678733
-0.057647
-0.0624208
-0.0671945
-0.0669909
-0.0667873
-0.0615384
-0.0562669
-0.0510181
-0.0458145
-0.0456335
-0.0454298
-0.0452036
-0.0449773
-0.0447511
-0.0395701
-0.0294344
-0.0242534
-0.0290271
-0.0338235
-0.0286425
-0.0184389
-0.00821265
0.00199098
0.00717197
0.00737558
0.00760183
0.0127828
0.0179186
0.0230996
0.0283258
0.0385294
0.0487104
0.0489367
0.0491629
0.0592987
0.0693439
0.0743439
0.0794118
0.0895928
0.0997738
0.10991
0.120068
0.120272
0.120452
0.120588
0.120633
0.125611
0.130724
0.135973
0.141199
0.141335
0.141584
0.141968
0.142353
0.137738
0.133167
0.138643
0.134027
0.119344
0.114615
0.109842
0.100023
0.0901584
0.070362
0.0456335
0.0308823
0.0161086
0.00633484
-0.00343891
-0.0131674
-0.0228507
-0.0375339
-0.0522172
-0.0569457
-0.0617195
-0.0614706
-0.0611991
-0.0559502
-0.050724
-0.0605204
-0.0703394
-0.065181
-0.0600226
-0.0548869
-0.049638
-0.049276
-0.049095
-0.0542534
-0.0599095
-0.0663575
-0.0739819
-0.0743665
-0.0683484
-0.0603168
-0.0561086
-0.0569457
-0.0542987
-0.0442308
-0.0374661
-0.0385973
-0.0402263
-0.04181
-0.0426471
-0.0478281
-0.0527602
-0.052534
-0.0572851
-0.0620136
-0.0567648
-0.0515385
-0.0512896
-0.0510182
-0.0557919
-0.0606109
-0.0604299
-0.0602489
-0.0600453
-0.059819
-0.0595928
-0.0593665
-0.0691403
-0.0789367
-0.0787557
-0.0785973
-0.0684616
-0.0583258
-0.0631675
-0.0679865
-0.0678281
-0.067715
-0.0726018
-0.0774661
-0.0723077
-0.0671267
-0.0719457
-0.0767647
-0.0715837
-0.0664254
-0.0712896
-0.0761539
-0.0710181
-0.0658598
-0.0707014
-0.0655883
-0.0504978
-0.035362
-0.0202036
-0.0150679
-0.0149321
-0.00475116
0.00547507
0.000746571
-0.00393669
0.00635743
0.0166289
0.0368778
0.057104
0.0523529
0.0476244
0.0528959
0.0581674
0.0484389
0.033733
0.0140497
-0.00561091
-0.0252715
-0.0449774
-0.0596833
-0.069344
-0.0740046
-0.0786878
-0.0733937
-0.0680544
-0.0726697
-0.0773304
-0.0820589
-0.08681
-0.0915611
-0.096267
-0.10095
-0.105656
-0.105385
-0.105158
-0.0999774
-0.0947964
-0.0996154
-0.104457
-0.0993213
-0.094163
-0.0839593
-0.0737557
-0.0635747
-0.0583937
-0.0532353
-0.0730996
-0.0879638
-0.0528281
0.00730767
0.152443
0.372579
0.80267
1.24771
1.72278
1.7229
0.803009
0.0331448
-0.491742
-0.741652
-0.616538
-0.456425
-0.256335
-0.141244
-0.0911538
-0.0710633
-0.0709955
-0.070905
-0.0757692
-0.0807013
-0.0807013
-0.0806334
-0.0754977
-0.070362
-0.0652262
-0.0601357
-0.0600905
-0.0600226
-0.0599321
-0.059819
-0.0546832
-0.0495701
-0.0494796
-0.0444117
-0.0393665
-0.0343438
-0.0293439
-0.024276
-0.0191402
-0.0190497
-0.0190045
-0.0139592
-0.00891398
-0.00391398
0.00104077
0.00601815
0.0109729
0.0109503
0.0107693
0.0206109
0.0304073
0.0351132
0.0398191
0.0445702
0.0542987
0.0639593
0.0685068
0.0680317
0.0726019
0.0822173
0.0868327
0.0864254
0.0861087
0.0859277
0.0858598
0.0908824
0.0960408
0.101335
0.106787
0.107376
0.107964
0.113552
0.119163
0.119796
0.115385
0.110928
0.106425
0.101855
0.107172
0.112376
0.0975113
0.0826018
0.0826697
0.0827149
0.0627828
0.0428733
0.0329412
0.0229864
0.0129864
-0.00208145
-0.0221946
-0.0373303
-0.0424887
-0.0477149
-0.0529864
-0.0582127
-0.063371
-0.0685747
-0.0639593
-0.059819
-0.0613349
-0.0690271
-0.0832353
-0.0947738
-0.0975792
-0.0947511
-0.089819
-0.0857466
-0.0839819
-0.0811086
-0.0828733
-0.0847738
-0.0764253
-0.0668778
-0.060724
-0.0526244
-0.0345928
-0.0357466
-0.0404072
-0.0424434
-0.0456109
-0.0432353
-0.0401584
-0.0411765
-0.0416742
-0.0419457
-0.0421267
-0.0523077
-0.0625113
-0.0527828
-0.0430995
-0.0534615
-0.0638235
-0.0641629
-0.0645022
-0.0598416
-0.055181
-0.060543
-0.065905
-0.071267
-0.076629
-0.0719683
-0.0673077
-0.0726697
-0.0780769
-0.0735294
-0.0689593
-0.0743665
-0.0797738
-0.075181
-0.0706109
-0.0710634
-0.0715158
-0.0669683
-0.0624208
-0.0628733
-0.0533258
-0.0637783
-0.0342534
-0.0347511
-0.0202262
-0.00567871
-0.0111312
-0.0166063
-0.00710405
0.00242084
0.031991
0.0515837
0.0561765
0.0607919
0.0654299
0.0700679
0.0597059
0.0393891
0.00907241
-0.0162444
-0.0365385
-0.0568326
-0.0721267
-0.0823756
-0.0876018
-0.0927828
-0.0928959
-0.0929864
-0.0930769
-0.0981448
-0.10819
-0.113235
-0.108281
-0.103258
-0.103145
-0.103009
-0.102873
-0.102715
-0.102511
-0.102353
-0.102262
-0.102217
-0.0972172
-0.0872624
-0.0823756
-0.0825792
-0.0828507
-0.0731448
-0.0634616
-0.0738009
-0.0841629
-0.0695476
-0.0349548
0.064638
0.214231
0.478823
0.823394
1.34792
1.63742
1.50195
1.04152
0.106131
-0.504254
-0.714661
-0.735068
-0.560498
-0.395973
-0.231448
-0.141878
-0.0972851
-0.0826924
-0.0780543
-0.0734616
-0.073914
-0.0743665
-0.069819
-0.0652262
-0.0655882
-0.065905
-0.0661765
-0.0664479
-0.0667194
-0.0620588
-0.0524661
-0.0478281
-0.0381448
-0.0384842
-0.0388462
-0.0342082
-0.0295702
-0.0249095
-0.0202263
-0.0205656
-0.0209276
-0.0213348
-0.0217873
-0.0172172
-0.0126244
0.00192311
0.0164254
0.015905
0.0153394
0.0196833
0.0239819
0.0282806
0.0325566
0.0367873
0.0410181
0.0452715
0.0495249
0.0537557
0.0579864
0.0621267
0.0663801
0.0706109
0.0748643
0.0791629
0.0885294
0.0979864
0.102602
0.102353
0.102353
0.102511
0.102738
0.108009
0.113326
0.113688
0.103982
0.104163
0.104208
0.10414
0.108982
0.113733
0.108416
0.103054
0.0926923
0.0823303
0.0819683
0.0816063
0.071267
0.0609276
0.055543
0.0500679
0.0395928
0.0241403
0.00368778
-0.0117873
-0.0172851
-0.0278281
-0.0384163
-0.0439593
-0.0444797
-0.0451358
-0.0460181
-0.0473982
-0.0496154
-0.0534163
-0.0591403
-0.0672851
-0.0760634
-0.0830543
-0.0872172
-0.0872625
-0.0799774
-0.0718326
-0.0683711
-0.0647738
-0.0603167
-0.0540045
-0.0466063
-0.0398869
-0.0352715
-0.0298643
-0.0271946
-0.0304525
-0.0337783
-0.0313348
-0.0281674
-0.034276
-0.04
-0.0405204
-0.0409729
-0.0364027
-0.0318326
-0.0322851
-0.0327376
-0.0381674
-0.0435973
-0.0540498
-0.0645023
-0.0649548
-0.0654299
-0.0609276
-0.0564254
-0.0569005
-0.0573756
-0.0628281
-0.0682806
-0.068733
-0.0691855
-0.069638
-0.0700905
-0.070543
-0.0710407
-0.0665837
-0.0621267
-0.0626697
-0.0632127
-0.0587557
-0.0542534
-0.0447285
-0.0302489
-0.0158371
-0.0114706
-0.00710409
0.00228505
0.0116968
0.0111086
0.0105204
0.0149547
0.0194118
0.0288688
0.0383258
0.0427828
0.0472398
0.0567194
0.0612443
0.0408145
0.0154072
-0.00997739
-0.030362
-0.0557693
-0.0711539
-0.0815159
-0.0868552
-0.0921493
-0.097353
-0.0924887
-0.0876471
-0.0877602
-0.0878054
-0.0877828
-0.0876471
-0.0873982
-0.0871041
-0.0917874
-0.096448
-0.0961313
-0.0957919
-0.10043
-0.105091
-0.104774
-0.089457
-0.0841403
-0.0838914
-0.0837331
-0.0786426
-0.0735973
-0.0635747
-0.0535973
-0.0636878
-0.0688236
-0.0389593
0.015905
0.135792
0.325701
0.675611
1.10048
1.64534
1.79518
1.39
0.754842
-0.140294
-0.620407
-0.710475
-0.630566
-0.395701
-0.240837
-0.125973
-0.076086
-0.0611765
-0.0562896
-0.0614253
-0.0664932
-0.0714932
-0.0765158
-0.0715611
-0.0665611
-0.0615158
-0.0565158
-0.0565611
-0.0565837
-0.0565837
-0.0515385
-0.046448
-0.0463575
-0.046267
-0.0411991
-0.0361538
-0.0361312
-0.0361312
-0.0311539
-0.0261991
-0.0211991
-0.0161538
-0.0111312
-0.00613121
-0.00615384
-0.00617646
-0.00117646
0.00382353
0.00882353
0.0138009
0.0237557
0.0337104
0.0336878
0.0336652
0.0386199
0.043552
0.0484842
0.0583937
0.0683032
0.0832353
0.0981901
0.103145
0.1031
0.1031
0.108145
0.113167
0.113145
0.113077
0.117964
0.122851
0.12776
0.13267
0.132602
0.127624
0.122715
0.12776
0.132783
0.137783
0.142805
0.137828
0.132828
0.127828
0.122828
0.107805
0.0927602
0.0877149
0.0776697
0.0626697
0.0476923
0.0277376
0.00776019
-0.00723981
-0.0172172
-0.0321946
-0.0371946
-0.0421946
-0.0471946
-0.0522172
-0.0572624
-0.0623077
-0.0673077
-0.0623077
-0.0573077
-0.0623077
-0.0672851
-0.0672398
-0.0671946
-0.0621493
-0.0570814
-0.0571493
-0.0573529
-0.0628959
-0.0687104
-0.0702941
-0.0624434
-0.0645249
-0.0608824
-0.0540045
-0.0547059
-0.0554978
-0.0580317
-0.0627149
-0.0533258
-0.044457
-0.0454525
-0.0460181
-0.051267
-0.0563122
-0.0512896
-0.0462444
-0.0561765
-0.0661312
-0.0611086
-0.0561086
-0.061086
-0.0660633
-0.0610407
-0.0560181
-0.0610181
-0.0660407
-0.071086
-0.076086
-0.0760407
-0.0760181
-0.0760181
-0.0759955
-0.0809729
-0.0860181
-0.0811086
-0.0761538
-0.0811538
-0.0861538
-0.0811539
-0.0761539
-0.0761765
-0.0812443
-0.0863348
-0.0864027
-0.086448
-0.0814932
-0.0765385
-0.0765385
-0.0765158
-0.0715385
-0.0665837
-0.061629
-0.0566742
-0.0467195
-0.0367647
-0.02681
-0.0168326
-0.01181
-0.0067647
-0.00671945
-0.00671945
-0.00174208
0.00825792
0.0232579
0.0382127
0.0481448
0.0531222
0.0581448
0.0582127
0.0483032
0.0383484
0.0283484
0.00837103
-0.0115837
-0.0364932
-0.0613575
-0.0712444
-0.0811312
-0.0859955
-0.0858371
-0.0857014
-0.0805656
-0.075362
-0.0851358
-0.0898869
-0.0946833
-0.0895475
-0.0844344
-0.0893213
-0.0942308
-0.0941855
-0.0941403
-0.0941177
-0.0941177
-0.0941177
-0.0941177
-0.0891403
-0.0841855
-0.0842082
-0.0842082
-0.0842308
-0.0842987
-0.0743892
-0.0644796
-0.0795475
-0.0545928
0.00536199
0.135339
0.315317
0.675272
1.15023
1.5602
1.94516
1.38016
0.440204
-0.174774
-0.684774
-0.689796
-0.574842
-0.379864
-0.174864
-0.114842
-0.0697964
-0.0647738
-0.0647511
-0.0646606
-0.0745249
-0.074457
-0.074457
-0.0744344
-0.0743891
-0.0693439
-0.0642986
-0.0592308
-0.0541403
-0.0490724
-0.0440271
-0.0490045
-0.0540045
-0.0490045
-0.0439367
-0.0438462
-0.0387783
-0.0237557
-0.0137783
-0.0188009
-0.0237783
-0.0187557
-0.0137783
-0.0088009
0.00122172
0.011267
0.0162896
0.0162896
0.0163122
0.0213575
0.026448
0.0265837
0.0316742
0.0417195
0.0467873
0.0518552
0.0568778
0.0618552
0.0718326
0.0818326
0.0918552
0.0969005
0.0969457
0.096991
0.107014
0.116991
0.116946
0.116878
0.12681
0.136787
0.131787
0.126787
0.121833
0.116991
0.122217
0.127511
0.127851
0.128167
0.123462
0.11871
0.118914
0.114072
0.104186
0.094276
0.0843665
0.069457
0.0495702
0.0347285
0.0148643
0.00997739
0.00506789
-0.00981899
-0.0246832
-0.0295475
-0.0344118
-0.0392986
-0.0392081
-0.0391403
-0.044095
-0.0490724
-0.0490724
-0.0490271
-0.0489367
-0.0488688
-0.0488235
-0.0437557
-0.0387557
-0.0388462
-0.039457
-0.0407919
-0.0435294
-0.0526471
-0.063552
-0.0711312
-0.0741629
-0.0666289
-0.054276
-0.0472398
-0.0427828
-0.0376471
-0.0362444
-0.0380543
-0.0403168
-0.0374435
-0.033733
-0.0391403
-0.0442534
-0.0441403
-0.0489819
-0.0588009
-0.0636878
-0.0586878
-0.0536652
-0.0536199
-0.0535973
-0.0585973
-0.0635973
-0.0635973
-0.0635747
-0.0635294
-0.0634615
-0.063371
-0.0633258
-0.0633258
-0.0783032
-0.0832805
-0.0783032
-0.0733258
-0.0682805
-0.06319
-0.0681448
-0.0731448
-0.0681448
-0.0631448
-0.0681448
-0.0731222
-0.0730317
-0.0729185
-0.0777828
-0.0827828
-0.0878054
-0.0928281
-0.0828733
-0.0728959
-0.0728733
-0.0678507
-0.0528281
-0.0378281
-0.0278507
-0.0228281
-0.0177602
-0.0126244
-0.00744344
-0.00228507
0.00285067
0.013009
0.02319
0.0383258
0.0534163
0.0585747
0.0638009
0.0690271
0.0642534
0.039457
0.014638
-0.0101584
-0.0299321
-0.0446833
-0.0594118
-0.0741403
-0.0888462
-0.0885068
-0.0881675
-0.087896
-0.0876471
-0.0873756
-0.0870815
-0.0917874
-0.0965385
-0.0963575
-0.0961539
-0.0959503
-0.0957693
-0.100611
-0.10543
-0.100226
-0.0950679
-0.0899322
-0.0847964
-0.0796833
-0.0745928
-0.0795023
-0.0843665
-0.0791855
-0.0740272
-0.0788914
-0.0637783
-0.0336878
0.0914253
0.236561
0.571719
0.9369
1.46206
2.01219
1.36731
0.612398
-0.0425113
-0.692421
-0.687353
-0.672285
-0.462172
-0.262036
-0.166923
-0.0818326
-0.0717195
-0.0615837
-0.0664706
-0.0713801
-0.076267
-0.0811539
-0.066086
-0.0510407
-0.0559729
-0.0608824
-0.0557919
-0.0506787
-0.0455656
-0.0404978
-0.0404525
-0.0403846
-0.0402941
-0.0402036
-0.0351131
-0.0300453
-0.03
-0.025
-0.015
-0.00997739
-0.00993213
-0.00984164
-0.0047059
0.000384606
0.00542986
0.0104299
0.0154072
0.0203167
0.015181
0.0150452
0.00988687
0.039638
0.0493213
0.0540045
0.0586652
0.0583258
0.0579412
0.0624661
0.0669909
0.0765611
0.0861538
0.0857466
0.0854751
0.0803846
0.0753846
0.080362
0.0855656
0.0908597
0.096267
0.106787
0.117376
0.113032
0.108733
0.10448
0.100226
0.100928
0.101516
0.101991
0.102398
0.0977602
0.0930543
0.0882805
0.0784615
0.0685973
0.0636878
0.068733
0.0637557
0.0487557
0.0287556
0.00875565
0.0037104
-0.0013801
-0.0114932
-0.0166063
-0.0266742
-0.03681
-0.0471041
-0.0578959
-0.054276
-0.0520815
-0.0565385
-0.0633484
-0.0726244
-0.0792534
-0.0926244
-0.102896
-0.0950453
-0.087172
-0.0744118
-0.0625566
-0.0664932
-0.0703394
-0.0739367
-0.0760407
-0.0715158
-0.0646606
-0.050362
-0.0389593
-0.0309503
-0.0259503
-0.0289367
-0.0369005
-0.0497964
-0.0567421
-0.0527828
-0.0483937
-0.0486199
-0.0488235
-0.0490045
-0.0492082
-0.0544344
-0.0597059
-0.0600226
-0.0602941
-0.0605204
-0.0607692
-0.0610634
-0.0663801
-0.0716968
-0.066991
-0.0622625
-0.0675566
-0.0728733
-0.07319
-0.0735294
-0.0688914
-0.0642534
-0.069638
-0.0750226
-0.075362
-0.075724
-0.0811312
-0.0865611
-0.081991
-0.0774435
-0.0629186
-0.0533484
-0.043733
-0.0391629
-0.0396833
-0.0352036
-0.0207466
-0.0111765
-0.0165837
-0.0169683
-0.00733033
0.0123303
0.0320136
0.0366968
0.0413801
0.0511086
0.0608824
0.0356787
0.000497734
-0.0147059
-0.00493213
-0.0501131
-0.0652489
-0.080362
-0.0954525
-0.0954751
-0.0953846
-0.100249
-0.105113
-0.0999774
-0.0947964
-0.0945475
-0.0942534
-0.103914
-0.113507
-0.113167
-0.11267
-0.117149
-0.121697
-0.111312
-0.10095
-0.0955656
-0.090181
-0.0898416
-0.0896154
-0.0845023
-0.0794118
-0.0743439
-0.0742987
-0.0842534
-0.069276
-0.0393665
0.0654977
0.200317
0.520136
0.889955
1.4148
1.96466
1.38452
0.659389
-0.0308145
-0.716086
-0.716357
-0.696606
-0.481765
-0.276855
-0.171968
-0.0821041
-0.0772624
-0.0724435
-0.0626471
-0.0528507
-0.0579864
-0.0630769
-0.0531674
-0.0432579
-0.0433258
-0.0434163
-0.0435747
-0.043733
-0.0438462
-0.043914
-0.0389593
-0.0339819
-0.0339819
-0.0340272
-0.0291403
-0.0242534
-0.0193439
-0.0144344
-0.0145249
-0.00963801
0.000226244
0.00506787
0.00488687
0.00472851
0.00959276
0.0144344
0.0142308
0.0189819
0.0286878
0.0333484
0.0379864
0.0426018
0.0421946
0.0517647
0.0612896
0.0657466
0.0701584
0.0795701
0.0889367
0.0833032
0.0776923
0.0921267
0.106584
0.106018
0.10552
0.110181
0.114955
0.114796
0.114751
0.109864
0.105136
0.110566
0.116018
0.116493
0.117014
0.112579
0.108032
0.108326
0.108597
0.103959
0.099095
0.0991403
0.0991177
0.0940272
0.0789367
0.0638462
0.058733
0.0535973
0.0384842
0.0233937
0.0133032
0.00319005
-0.0120136
-0.00228507
-0.0425792
-0.0528959
-0.0482127
-0.0435294
-0.0438235
-0.0444118
-0.0503846
-0.0573303
-0.0554072
-0.0557014
-0.063371
-0.0716063
-0.0852489
-0.0945023
-0.0982127
-0.0913348
-0.0879186
-0.0848643
-0.0770362
-0.068552
-0.0690724
-0.0673756
-0.0583032
-0.0518778
-0.0437557
-0.038733
-0.0367873
-0.039819
-0.0527376
-0.0597059
-0.0607692
-0.0613575
-0.0615385
-0.0617195
-0.0569004
-0.0570136
-0.0670588
-0.0721493
-0.0673077
-0.0624661
-0.0676018
-0.0677602
-0.0629412
-0.0680996
-0.0732353
-0.078371
-0.0835068
-0.0886425
-0.0938009
-0.0840045
-0.0742308
-0.0794344
-0.0846154
-0.0847738
-0.0849321
-0.0801357
-0.075362
-0.0755656
-0.0757466
-0.0759276
-0.0761312
-0.0763348
-0.0715385
-0.0617647
-0.0520136
-0.0372624
-0.0275339
-0.0278281
-0.0281222
-0.0234389
-0.013733
-0.00400453
0.000723982
0.00545249
0.0202262
0.0350453
0.0398416
0.0396154
0.0394796
0.0444344
0.0343665
0.014276
-0.00079185
-0.0208371
-0.0458823
-0.0709276
-0.0859728
-0.101018
-0.101041
-0.101018
-0.10095
-0.100814
-0.100633
-0.100385
-0.110045
-0.119661
-0.114253
-0.108801
-0.108258
-0.10767
-0.107059
-0.106471
-0.105905
-0.105362
-0.104842
-0.104367
-0.103937
-0.098552
-0.0882127
-0.0829412
-0.0776244
-0.0725113
-0.0774661
-0.0823756
-0.0772398
-0.00210408
0.0880317
0.308122
0.558167
1.04824
1.57833
1.70842
1.80351
0.833575
1.80862
-0.51629
-0.826154
-0.641041
-0.45595
-0.280837
-0.130701
-0.0955656
-0.0704299
-0.0653167
-0.0602262
-0.0651131
-0.0699774
-0.0747964
-0.0795927
-0.0744344
-0.069276
-0.069095
-0.0689366
-0.0638009
-0.0586652
-0.0635068
-0.0683258
-0.0631674
-0.0530317
-0.0428733
-0.0376923
-0.0325339
-0.0273756
-0.0321946
-0.0370362
-0.0369004
-0.0367873
-0.0316968
-0.021629
-0.0116063
-0.00665158
-0.00669683
-0.00678733
-0.0069457
-0.00214932
0.00762444
0.0174208
0.0222398
0.0220362
0.0217873
0.0264932
0.0311312
0.0357014
0.0402715
0.0498643
0.0595023
0.0692534
0.0791403
0.0841177
0.0891855
0.0943665
0.0996606
0.105045
0.110543
0.111154
0.11181
0.112511
0.113258
0.109027
0.104774
0.11052
0.116244
0.1169
0.117534
0.118122
0.118575
0.113891
0.109118
0.109253
0.104412
0.0945928
0.0797738
0.0649548
0.0451358
0.0252941
0.015362
0.00536199
-0.00963801
-0.029638
-0.0396606
-0.0496606
-0.0595928
-0.0697059
-0.0700905
-0.0711765
-0.0780543
-0.0868552
-0.0928281
-0.100294
-0.109163
-0.114276
-0.110158
-0.103869
-0.105543
-0.107851
-0.105747
-0.104163
-0.0979412
-0.0909276
-0.0879412
-0.0827376
-0.0751357
-0.0669457
-0.0583258
-0.0540724
-0.0503846
-0.0572398
-0.0555204
-0.0529638
-0.0545701
-0.0553846
-0.0605204
-0.065543
-0.0604977
-0.0554299
-0.0553394
-0.0552489
-0.0601584
-0.0651131
-0.0651131
-0.0700905
-0.0750679
-0.0700905
-0.0651357
-0.0651584
-0.0651584
-0.070181
-0.0752262
-0.0752715
-0.0753167
-0.075362
-0.0754072
-0.0754299
-0.0754299
-0.0754525
-0.075543
-0.0756335
-0.0757692
-0.0759276
-0.0710633
-0.0461765
-0.0362896
-0.0314253
-0.0215837
-0.0117647
-0.00694569
-0.00710406
-0.00723981
-0.00237556
0.00746607
0.0172851
0.0321493
0.0470588
0.0519683
0.0568778
0.0568552
0.0469005
0.0270136
0.00719458
-0.0126244
-0.0324434
-0.0472398
-0.056991
-0.0766742
-0.0963122
-0.0909502
-0.085543
-0.0900679
-0.0945475
-0.0890045
-0.0834163
-0.0877376
-0.0919457
-0.101063
-0.110136
-0.104163
-0.0981448
-0.0921267
-0.0861086
-0.0900679
-0.0940272
-0.0930091
-0.0920362
-0.0911086
-0.0852941
-0.0745928
-0.068914
-0.0632579
-0.057715
-0.0523077
-0.0569231
-0.0715611
-0.0312444
0.0290271
0.184321
0.359638
0.78491
1.26514
1.60036
1.92059
1.09581
0.166041
-0.30871
-0.763439
-0.62819
-0.492964
-0.302738
-0.132511
-0.0872624
-0.0519909
-0.0516968
-0.0513801
-0.0510407
-0.0506787
-0.0553167
-0.0599547
-0.054638
-0.0493665
-0.0490724
-0.0487104
-0.0483032
-0.0478959
-0.0375113
-0.0271493
-0.0267647
-0.0263575
-0.0309502
-0.0355203
-0.0300905
-0.0246832
-0.024276
-0.0189366
-0.00866514
-0.00332578
-0.00291853
-0.00253392
-0.00217193
-0.00187781
0.00332581
0.0134616
0.0235521
0.0286426
0.0287331
0.0288009
0.0288462
0.0388914
0.0388914
0.0488236
0.0586878
0.0634389
0.0682127
0.0731448
0.0780996
0.0830091
0.0880091
0.0931448
0.0984163
0.103801
0.109253
0.114683
0.120362
0.116154
0.112036
0.118009
0.124005
0.120023
0.116063
0.112081
0.107986
0.113778
0.119502
0.120158
0.115792
0.106425
0.101946
0.102353
0.0927828
0.0782353
0.0686425
0.0590045
0.0443891
0.0297964
0.010181
-0.00947965
-0.0192308
-0.0290724
-0.0389367
-0.0437557
-0.0484842
-0.0532806
-0.0582806
-0.0638914
-0.070181
-0.0780543
-0.0777376
-0.0795475
-0.093552
-0.10448
-0.0966516
-0.0860634
-0.0877828
-0.089638
-0.0867421
-0.0845249
-0.0878507
-0.0908824
-0.0835068
-0.0742534
-0.0678733
-0.0600226
-0.0507692
-0.0452489
-0.0439366
-0.0447737
-0.0476697
-0.0499547
-0.0516289
-0.0524434
-0.0524886
-0.0523529
-0.0570814
-0.0618099
-0.0665384
-0.0712669
-0.071018
-0.070837
-0.0657013
-0.0605655
-0.0604298
-0.0702941
-0.0801809
-0.0801131
-0.0800905
-0.0800678
-0.0800226
-0.0799547
-0.0798642
-0.0847737
-0.0897059
-0.0896606
-0.0896154
-0.0795928
-0.0695701
-0.0795475
-0.0895249
-0.0845249
-0.0795475
-0.0695928
-0.0546833
-0.0397964
-0.0298643
-0.0298869
-0.0299321
-0.0250226
-0.0201131
-0.0202036
-0.0102715
0.00463798
0.0196154
0.0446606
0.0447285
0.034819
0.0398869
0.0549321
0.0450679
0.0252488
0.000452459
-0.0242987
-0.0389819
-0.0286199
-0.0732353
-0.0878281
-0.0924435
-0.0970362
-0.0965385
-0.0959729
-0.100385
-0.104751
-0.0990724
-0.093371
-0.0976018
-0.101742
-0.110815
-0.119887
-0.114005
-0.108145
-0.107285
-0.106471
-0.100724
-0.095
-0.0942986
-0.0937104
-0.0932353
-0.087828
-0.0774887
-0.0671946
-0.0569457
-0.0617194
-0.0764932
-0.0563122
-0.0161765
0.113914
0.263959
0.613982
1.01398
1.489
1.98405
1.30905
0.484005
-0.120995
-0.71095
-0.685905
-0.64586
-0.455814
-0.275769
-0.185769
-0.100814
-0.0908145
-0.0807692
-0.0707466
-0.0607466
-0.060724
-0.0606787
-0.0606108
-0.0605203
-0.0604525
-0.0604072
-0.060362
-0.0602941
-0.0552036
-0.0501131
-0.0500452
-0.0499773
-0.0499095
-0.0449095
-0.0349547
-0.0300679
-0.0252262
-0.020362
-0.0204977
-0.015724
-0.00604071
0.00359729
0.01319
0.0177828
0.0123529
0.0068552
0.00131223
0.000723988
0.0100453
0.0142534
0.0184163
0.0226923
0.0321493
0.0367195
0.0413575
0.046086
0.0509276
0.060905
0.0709729
0.0711086
0.0712896
0.0814706
0.0916516
0.0918779
0.0921493
0.0974209
0.102738
0.0981675
0.0936652
0.0942761
0.0948643
0.105385
0.115928
0.101539
0.0971267
0.0976471
0.0930317
0.0832806
0.0784616
0.0786878
0.0786652
0.0785295
0.0683485
0.0531222
0.0429186
0.0327376
0.0174887
0.00199099
-0.00891399
-0.0205429
-0.0382352
-0.0577828
-0.0697963
-0.0776018
-0.0851357
-0.0897284
-0.0901131
-0.0885293
-0.0908371
-0.0934841
-0.0819683
-0.0711538
-0.0760407
-0.0811764
-0.0814479
-0.0816968
-0.0868778
-0.0920588
-0.0873077
-0.082466
-0.0774434
-0.0718552
-0.0706108
-0.0678054
-0.0632126
-0.0564705
-0.0424886
-0.0315836
-0.0294343
-0.0300452
-0.0383483
-0.0465384
-0.0495475
-0.0517194
-0.0480995
-0.044095
-0.0497284
-0.0553393
-0.0509275
-0.0464705
-0.0519683
-0.0574887
-0.0630543
-0.0686651
-0.0642986
-0.0599547
-0.0606335
-0.0663348
-0.0720588
-0.0727602
-0.0734389
-0.0791403
-0.0849095
-0.0757466
-0.0665837
-0.0523982
-0.0382127
-0.0390272
-0.0398417
-0.0306561
-0.0214706
-0.0122625
-0.00305434
-0.0038462
0.000384584
0.0145927
0.0237556
0.0278733
0.0419909
0.0661538
0.075362
0.0596154
0.0288688
-0.00685522
-0.0325566
-0.0482353
-0.0688688
-0.089457
-0.0949548
-0.0953394
-0.0956561
-0.095905
-0.0960634
-0.101131
-0.106154
-0.106109
-0.10595
-0.115701
-0.11543
-0.115158
-0.109864
-0.104548
-0.104163
-0.10371
-0.108303
-0.112896
-0.107466
-0.102036
-0.101674
-0.101357
-0.0910634
-0.0807919
-0.0755204
-0.0702941
-0.0751358
-0.0800226
-0.0699548
-0.0199774
0.0749095
0.239751
0.469548
0.874276
1.40894
1.57357
1.51821
0.872828
-0.0575792
-0.492986
-0.733394
-0.653824
-0.469276
-0.314683
-0.160045
-0.100453
-0.0608824
-0.056267
-0.061629
-0.0670136
-0.0674208
-0.0677828
-0.0680996
-0.0634163
-0.0587331
-0.0540272
-0.0492987
-0.0495475
-0.0497964
-0.0450679
-0.0403394
-0.0355883
-0.0308145
-0.0310634
-0.0313349
-0.0266064
-0.02181
-0.0169683
-0.0121267
-0.00733032
-0.00257919
-0.00282806
-0.00312218
0.00149321
0.0110407
0.0205203
0.0249774
0.029457
0.0339366
0.0383937
0.0428054
0.0421719
0.0414932
0.0457466
0.0599095
0.0740045
0.0781222
0.0822624
0.0864932
0.0908597
0.0953167
0.0948416
0.0994796
0.104276
0.114231
0.124299
0.124412
0.12457
0.129796
0.135068
0.135339
0.135679
0.131176
0.126742
0.132262
0.137647
0.137828
0.137896
0.132919
0.127873
0.11776
0.102602
0.0874208
0.0722624
0.0621267
0.0519457
0.0416968
0.0264027
0.00608597
-0.00923077
-0.0195928
-0.0249774
-0.0303846
-0.0357466
-0.0412217
-0.0471041
-0.0537104
-0.0614027
-0.0708824
-0.0827828
-0.0857919
-0.0888009
-0.0891403
-0.0849095
-0.0833032
-0.0805656
-0.0781448
-0.0767873
-0.0761765
-0.0711312
-0.0660407
-0.0655882
-0.0644118
-0.062172
-0.0580769
-0.0515611
-0.0442986
-0.0323077
-0.0232579
-0.0234615
-0.0256109
-0.0288235
-0.0316742
-0.0336878
-0.0350226
-0.0306787
-0.031086
-0.0413348
-0.0465611
-0.0468099
-0.0471041
-0.0524208
-0.0577602
-0.0531222
-0.0484615
-0.0537783
-0.059095
-0.0644118
-0.0647738
-0.055181
-0.0505882
-0.0559955
-0.0613801
-0.0617421
-0.0621267
-0.0625339
-0.0779412
-0.0833937
-0.0788914
-0.0743892
-0.0698416
-0.0652489
-0.0506787
-0.0361539
-0.0266516
-0.0171493
-0.0176471
-0.0181448
-0.0136425
-0.00914028
-0.00461539
-0.000113128
0.00938913
0.0238688
0.0383484
0.0478959
0.0525113
0.0571493
0.05181
0.0364932
0.0161991
0.000927593
-0.0143439
-0.0395701
-0.0647511
-0.0798643
-0.0898869
-0.0948416
-0.0947285
-0.0945249
-0.0892308
-0.0888688
-0.0984389
-0.102964
-0.107443
-0.106855
-0.0961991
-0.0954977
-0.0997738
-0.10405
-0.108326
-0.102624
-0.0969683
-0.10138
-0.10586
-0.0953846
-0.0849547
-0.0795701
-0.0742534
-0.0740271
-0.0738688
-0.0687783
-0.063733
-0.0687104
-0.0386878
0.0513348
0.211312
0.446244
0.836177
1.37611
1.626
1.62588
1.03579
0.035724
-0.479321
-0.724367
-0.649412
-0.419457
-0.259525
-0.124615
-0.0846606
-0.0696606
-0.064638
-0.0695928
-0.0745249
-0.074457
-0.0744344
-0.0694344
-0.0644118
-0.0543439
-0.0592308
-0.064095
-0.0639593
-0.0638235
-0.0586878
-0.053552
-0.0483937
-0.0432353
-0.0431222
-0.0430317
-0.0379186
-0.0327828
-0.0276697
-0.0225792
-0.0225113
-0.0223982
-0.0172851
-0.0122172
-0.00219457
0.00778281
0.0127602
0.0177149
0.0176018
0.0174434
0.0222624
0.0270362
0.0317647
0.0464253
0.0610634
0.0657014
0.0603394
0.0549548
0.0595475
0.0691629
0.0788009
0.0884163
0.0981222
0.102986
0.107964
0.113032
0.113235
0.123575
0.123982
0.129457
0.135023
0.135656
0.136357
0.137127
0.137941
0.138756
0.139525
0.140181
0.140747
0.136267
0.131697
0.127014
0.117262
0.102466
0.0876471
0.0728281
0.0580091
0.0432127
0.0283937
0.0135068
-0.00142533
-0.0114027
-0.0213801
-0.0313122
-0.036267
-0.0412443
-0.0461765
-0.0511765
-0.0564706
-0.0572398
-0.0588235
-0.0618778
-0.0670814
-0.0742081
-0.083009
-0.0901584
-0.093009
-0.0877828
-0.0802262
-0.0771041
-0.079457
-0.0824434
-0.0759276
-0.0691176
-0.0715158
-0.0722398
-0.0605656
-0.0477828
-0.0399774
-0.034819
-0.0341629
-0.0358145
-0.0385746
-0.0410407
-0.0375113
-0.0332353
-0.0383258
-0.0432579
-0.0481448
-0.0530091
-0.0578959
-0.0578281
-0.0477828
-0.0427376
-0.0426697
-0.0475792
-0.0574434
-0.0623756
-0.0623756
-0.0624208
-0.0625113
-0.0625566
-0.0625566
-0.0625339
-0.0624887
-0.0624435
-0.0674208
-0.0724434
-0.0724887
-0.0725113
-0.0625113
-0.0675113
-0.0725339
-0.0675792
-0.0626244
-0.0526471
-0.0426697
-0.0327149
-0.0227602
-0.0178281
-0.0129185
-0.00298642
0.00694571
0.00685521
0.00680996
0.0118326
0.0168552
0.0268326
0.0367647
0.0466968
0.0566742
0.0716968
0.0617873
0.0269457
0.00212669
-0.0126697
-0.0374208
-0.0621493
-0.0718778
-0.0766516
-0.0813575
-0.0809955
-0.0856335
-0.0952489
-0.0997964
-0.104276
-0.108688
-0.103009
-0.0972398
-0.101403
-0.10552
-0.104615
-0.103733
-0.102851
-0.101946
-0.101063
-0.100249
-0.0995023
-0.0938235
-0.0882127
-0.0826471
-0.0771267
-0.0766516
-0.0762217
-0.0708371
-0.0704751
-0.0851358
-0.0747964
-0.00450226
0.105769
0.281041
0.601312
1.08658
1.52186
1.89713
1.5374
0.58767
-0.0920814
-0.601833
-0.721561
-0.62129
-0.451041
-0.250814
-0.155566
-0.0952941
-0.0750226
-0.0647511
-0.0594796
-0.0642081
-0.0689366
-0.0736651
-0.0783936
-0.0781221
-0.067828
-0.0575113
-0.0621493
-0.066742
-0.0613574
-0.0559954
-0.0556334
-0.0552714
-0.0499321
-0.0445927
-0.0442081
-0.0438009
-0.0433936
-0.043009
-0.0326923
-0.0225113
-0.0124208
-0.00235292
-0.00730766
-0.012285
-0.012285
-0.0122624
-0.0122172
-0.00721717
0.00771495
0.017534
0.0172625
0.0169457
0.016629
0.021267
0.0308824
0.0356109
0.0404751
0.0504978
0.0606561
0.0659502
0.0713801
0.0768778
0.0774208
0.0830091
0.0936425
0.0992987
0.0999774
0.105701
0.111471
0.117285
0.123145
0.12405
0.125
0.121018
0.116991
0.117828
0.118575
0.114253
0.109819
0.120272
0.130679
0.121018
0.11129
0.111516
0.106697
0.09181
0.0769005
0.0619683
0.041991
0.0220136
0.0071041
-0.00787327
-0.0182353
-0.0191176
-0.0308823
-0.0539819
-0.069276
-0.0763801
-0.0846606
-0.0916742
-0.0941855
-0.0984615
-0.100837
-0.0975792
-0.0948642
-0.0928733
-0.0917421
-0.0911312
-0.0958823
-0.090724
-0.0902941
-0.0893891
-0.0876697
-0.0844796
-0.079095
-0.0717647
-0.0627828
-0.0554525
-0.0474434
-0.0425339
-0.0449095
-0.0478054
-0.0502488
-0.0519909
-0.0528506
-0.0533258
-0.0585746
-0.0637104
-0.0587783
-0.0538235
-0.0538914
-0.0540272
-0.0542308
-0.0544797
-0.0597511
-0.065
-0.0702262
-0.0754977
-0.0758145
-0.0761086
-0.0813801
-0.0866968
-0.0870588
-0.0874208
-0.0877828
-0.0881448
-0.0885294
-0.0889593
-0.0844118
-0.059819
-0.0402036
-0.0355882
-0.0309502
-0.0263575
-0.02181
-0.0272624
-0.0327376
-0.0232579
-0.0137783
0.00576922
0.025362
0.0349321
0.0444796
0.0490271
0.0485973
0.0282127
0.00285067
-0.0224887
-0.0427602
-0.0629638
-0.0831448
-0.0933032
-0.0984389
-0.0985747
-0.0986878
-0.103756
-0.108756
-0.11371
-0.118597
-0.118394
-0.1181
-0.117738
-0.11733
-0.116855
-0.116335
-0.120769
-0.125158
-0.124525
-0.123914
-0.123326
-0.122692
-0.112014
-0.101357
-0.090724
-0.0851131
-0.0795475
-0.0790498
-0.0786199
-0.073258
-0.0679865
-0.0778055
-0.0676924
0.0123529
0.127353
0.32233
0.61724
1.10206
1.50183
1.76161
1.48136
0.491086
-0.219208
-0.634548
-0.769887
-0.650204
-0.49052
-0.295837
-0.181109
-0.116335
-0.0866064
-0.0768778
-0.0721493
-0.0774208
-0.0826923
-0.0829638
-0.0782353
-0.0685068
-0.0637783
-0.0590272
-0.0542082
-0.0593665
-0.0645702
-0.0647964
-0.05
-0.045181
-0.0353846
-0.0256109
-0.0308371
-0.0360634
-0.0362443
-0.0363801
-0.0265385
-0.0168099
-0.0121946
-0.00760181
-0.00303166
0.00151585
0.00604074
0.0104977
0.00995477
0.00936653
0.0187104
0.0279638
0.0321493
0.036267
0.0353168
0.0393439
0.0483484
0.0524661
0.0516969
0.0561312
0.0657466
0.0704751
0.0753168
0.0802489
0.0802489
0.0852489
0.0952489
0.100294
0.100385
0.100566
0.105837
0.111154
0.111516
0.111923
0.112353
0.112715
0.112986
0.108145
0.103213
0.10319
0.103077
0.102896
0.10267
0.102443
0.102217
0.0919457
0.0816289
0.0712669
0.0558145
0.0403167
0.029819
0.0193212
0.00389137
-0.0114932
-0.0271494
-0.0382127
-0.0451358
-0.0481675
-0.0533258
-0.0605656
-0.0697059
-0.0838462
-0.0938688
-0.0902715
-0.0839819
-0.0812443
-0.078914
-0.0772398
-0.0764706
-0.0762896
-0.0764254
-0.0766742
-0.0766063
-0.0710407
-0.0645928
-0.06181
-0.05681
-0.0499774
-0.036991
-0.0252941
-0.0180769
-0.0140724
-0.0219684
-0.0304978
-0.0334616
-0.0356788
-0.0470136
-0.0578507
-0.0534389
-0.0489141
-0.0493439
-0.0497738
-0.0502489
-0.0507693
-0.0513122
-0.0518552
-0.0523756
-0.0578733
-0.0683484
-0.0688235
-0.0593439
-0.0549095
-0.0604977
-0.0660634
-0.0616516
-0.0572172
-0.0627602
-0.0683258
-0.073914
-0.0795475
-0.0752262
-0.0509276
-0.0266063
-0.0222851
-0.0229638
-0.0236199
-0.0242534
-0.0148869
-0.0155656
-0.00631222
0.00291855
0.0171946
0.0315158
0.0458597
0.0602036
0.0645023
0.0688009
0.0431448
0.0225113
0.00187782
-0.018733
-0.0392986
-0.0597738
-0.0752036
-0.0856335
-0.091086
-0.0964932
-0.0968326
-0.0970815
-0.0972624
-0.0973982
-0.0974661
-0.0973982
-0.10224
-0.106991
-0.111652
-0.116244
-0.115792
-0.115317
-0.114819
-0.114321
-0.108824
-0.103258
-0.10267
-0.102081
-0.0964932
-0.0909729
-0.0855204
-0.0701357
-0.0598416
-0.0595928
-0.0593665
-0.0741855
-0.0840724
-0.0240045
0.0609955
0.245905
0.490769
0.960634
1.4205
1.84036
1.85023
0.950068
0.159887
-0.430272
-0.745385
-0.655475
-0.510611
-0.305792
-0.170973
-0.111154
-0.0763122
-0.066448
-0.0615837
-0.0616968
-0.0617873
-0.0668778
-0.0719457
-0.066991
-0.0620362
-0.0620815
-0.0620588
-0.0569683
-0.0519005
-0.0568552
-0.0617873
-0.0616968
-0.0566742
-0.0467195
-0.0417421
-0.0417421
-0.0367421
-0.0317421
-0.0267421
-0.0217421
-0.0167647
-0.01181
-0.0118326
-0.0118552
-0.00692308
-0.00201358
0.00289593
0.00773755
0.0174661
0.0271493
0.0319005
0.0366516
0.0363575
0.0360181
0.0456335
0.0552036
0.0697738
0.0743665
0.0789819
0.0836199
0.0832579
0.0828507
0.0874208
0.102127
0.116923
0.121855
0.121923
0.122127
0.122466
0.127964
0.138597
0.144253
0.144932
0.14552
0.146041
0.146471
0.146833
0.132149
0.127398
0.132557
0.137647
0.132738
0.127828
0.112919
0.0980091
0.0880996
0.0781901
0.0532806
0.033371
0.0134389
-0.00651583
-0.0214932
-0.0315611
-0.0416516
-0.0517873
-0.0519683
-0.0521267
-0.0672398
-0.0723077
-0.0724208
-0.0729412
-0.0690498
-0.0663348
-0.0651584
-0.0663801
-0.0792534
-0.0922624
-0.0986652
-0.100611
-0.104389
-0.101538
-0.0879638
-0.079457
-0.0756335
-0.0703846
-0.0634389
-0.0547285
-0.0460407
-0.0414253
-0.0403846
-0.0469909
-0.055
-0.0476018
-0.0395475
-0.0405656
-0.0409729
-0.0461312
-0.0511539
-0.0511312
-0.051086
-0.0510407
-0.0510181
-0.0560633
-0.0611312
-0.0561538
-0.0511538
-0.0611538
-0.0711765
-0.0711991
-0.0712217
-0.0762896
-0.0814253
-0.0766063
-0.0717647
-0.0718778
-0.0719683
-0.0720588
-0.0721719
-0.0723077
-0.0724661
-0.0676471
-0.0628054
-0.0679412
-0.0730995
-0.0732805
-0.0684389
-0.0585973
-0.0387783
-0.0189593
-0.0141176
-0.0242534
-0.0193891
-0.0145475
-0.00975113
-0.00497737
-0.000158365
0.00470589
0.0246154
0.0445249
0.0444796
0.0444796
0.0544796
0.0594796
0.0394797
0.0195249
-0.000316736
-0.0201357
-0.0349547
-0.0497964
-0.0696606
-0.084457
-0.0841629
-0.0837783
-0.0883258
-0.0928054
-0.0922172
-0.0965611
-0.105837
-0.110136
-0.104389
-0.0985294
-0.102579
-0.106606
-0.105611
-0.104706
-0.103891
-0.1031
-0.102308
-0.101561
-0.10086
-0.100271
-0.0997964
-0.0843665
-0.0789819
-0.0686878
-0.0584615
-0.0632127
-0.0679412
-0.0727149
-0.0625113
0.0276471
0.162783
0.427919
0.773077
1.3183
1.69357
1.72382
1.36907
0.369299
-0.340498
-0.640339
-0.715136
-0.514842
-0.339502
-0.18414
-0.0988462
-0.0686199
-0.053371
-0.0530996
-0.0527828
-0.0574208
-0.0620815
-0.0617647
-0.0614027
-0.0609955
-0.0605882
-0.055181
-0.0497738
-0.0493665
-0.0489593
-0.048552
-0.0431222
-0.0326697
-0.0322624
-0.0369004
-0.0365158
-0.0361086
-0.0307466
-0.0254299
-0.0201131
-0.0147964
-0.00450227
0.00576923
0.00608597
0.00644796
0.00680995
0.00717195
0.0175566
0.0278733
0.0380996
0.0482579
0.048371
0.0485068
0.0536199
0.0586652
0.0586652
0.0637104
0.0738235
0.0789367
0.0840498
0.0891403
0.0941403
0.10414
0.11414
0.119186
0.119321
0.119593
0.124977
0.130543
0.12629
0.122081
0.122919
0.123869
0.129887
0.135814
0.126652
0.127398
0.128054
0.133665
0.139231
0.129706
0.120113
0.105543
0.0909955
0.0764254
0.0618326
0.0472398
0.0326244
0.0229638
0.00828055
-0.0113801
-0.0260181
-0.0356787
-0.0453846
-0.0401131
-0.0349095
-0.0397738
-0.0496606
-0.0645701
-0.0744118
-0.0692308
-0.0642308
-0.0695928
-0.0706335
-0.0629186
-0.0623529
-0.0737783
-0.0869457
-0.0991629
-0.101855
-0.0911765
-0.0830769
-0.0737557
-0.0688688
-0.0731674
-0.0708145
-0.0621946
-0.0586426
-0.0468326
-0.0396154
-0.0356335
-0.0479865
-0.0606561
-0.0673982
-0.0733258
-0.0585747
-0.0434842
-0.0483032
-0.0530769
-0.0628507
-0.0726245
-0.0724208
-0.0722172
-0.0720362
-0.0718778
-0.0717421
-0.071629
-0.0765158
-0.0813801
-0.0812443
-0.0811538
-0.0861086
-0.0910407
-0.0859276
-0.0808371
-0.0807919
-0.0807692
-0.0807692
-0.0807692
-0.0807692
-0.0807918
-0.0808371
-0.0808371
-0.0857919
-0.0907466
-0.090724
-0.0907692
-0.0958597
-0.080905
-0.0609502
-0.0460181
-0.0310633
-0.031086
-0.031086
-0.021086
-0.011086
-0.016086
-0.0210633
-0.000995457
0.019095
0.0291855
0.039276
0.0443892
0.0495702
0.044819
0.0301131
0.00542988
-0.0142534
-0.033914
-0.053552
-0.0632126
-0.0728733
-0.0875113
-0.0971041
-0.0966289
-0.0961086
-0.0955882
-0.0949774
-0.0992986
-0.103575
-0.102783
-0.101946
-0.106086
-0.110271
-0.109502
-0.108778
-0.1081
-0.107489
-0.106946
-0.106448
-0.106018
-0.105656
-0.105339
-0.10009
-0.0949095
-0.0797285
-0.0645475
-0.0593891
-0.054276
-0.0692307
-0.0742307
-0.0341855
0.0458824
0.210882
0.49086
0.975928
1.42604
1.80615
1.59122
0.586244
-0.148733
-0.593665
-0.728597
-0.588529
-0.423439
-0.243371
-0.148326
-0.103281
-0.0732579
-0.0582127
-0.0531448
-0.0580543
-0.0629864
-0.0679412
-0.0729412
-0.0679865
-0.0579638
-0.0478733
-0.0427828
-0.0426923
-0.0426697
-0.042715
-0.0477376
-0.0427376
-0.0377376
-0.0327376
-0.0277149
-0.0226697
-0.0226697
-0.0227602
-0.0129185
-0.00312214
-0.00339364
-0.00371037
0.000995502
0.00570139
0.0104299
0.0150679
0.0197059
0.0242987
0.0338462
0.0433258
0.0427376
0.0421494
0.0415385
0.0457693
0.0599096
0.069163
0.0684842
0.0779865
0.0926924
0.0975792
0.0926471
0.0877829
0.0929639
0.0981675
0.0983937
0.0985974
0.0987784
0.0990725
0.10448
0.109932
0.11043
0.10595
0.101493
0.0970137
0.0924662
0.0928055
0.0930544
0.0932354
0.0933485
0.0883938
0.0833711
0.0732806
0.0631449
0.0579865
0.0478055
0.0276019
0.0123304
0.00699101
-0.00337099
-0.023733
-0.0390497
-0.0443891
-0.0501583
-0.0564705
-0.0639592
-0.0678732
-0.0741855
-0.0822624
-0.0902488
-0.101742
-0.108688
-0.102353
-0.0950226
-0.0874207
-0.0806108
-0.0795248
-0.0791402
-0.0791629
-0.0793891
-0.0847058
-0.0848416
-0.0746153
-0.0686425
-0.0764026
-0.0769683
-0.0754977
-0.0623303
-0.0501583
-0.0475339
-0.0482352
-0.0459728
-0.0443439
-0.0521041
-0.0591402
-0.0603619
-0.0611538
-0.0617646
-0.0622624
-0.0627375
-0.0632126
-0.068733
-0.0742986
-0.0699094
-0.0655429
-0.0661538
-0.0667194
-0.0722398
-0.0777828
-0.073371
-0.0689818
-0.0746153
-0.0802941
-0.0809728
-0.0816289
-0.0872624
-0.0928959
-0.088552
-0.074276
-0.0600452
-0.0507918
-0.0415158
-0.0372624
-0.0380317
-0.0338009
-0.0395701
-0.0203393
-0.0211086
-0.0118778
-0.00264703
0.0116064
0.0258824
0.0251584
0.0244344
0.0537104
0.0730091
0.0473756
0.0267874
0.00119913
-0.0243439
-0.049819
-0.0752488
-0.0906787
-0.101154
-0.0966289
-0.0920362
-0.0923982
-0.0927149
-0.0979864
-0.10319
-0.103303
-0.103348
-0.103348
-0.103303
-0.10319
-0.103032
-0.102828
-0.102557
-0.10724
-0.111946
-0.106674
-0.101403
-0.101131
-0.100905
-0.0957239
-0.0905656
-0.0854525
-0.0704298
-0.0604751
-0.060543
-0.0606561
-0.0708597
-0.0711312
0.0185973
0.138326
0.398009
0.712647
1.24229
1.63192
1.61154
1.28113
0.275679
-0.449796
-0.665226
-0.720611
-0.53095
-0.35629
-0.196652
-0.101991
-0.0723077
-0.0576471
-0.0580317
-0.0583937
-0.0586878
-0.0589593
-0.059276
-0.059638
-0.0550453
-0.0503846
-0.0506561
-0.0509276
-0.0461991
-0.0414253
-0.0366063
-0.03181
-0.0320362
-0.0322624
-0.0274887
-0.0227149
-0.0129412
-0.00816742
-0.00339366
0.00133485
0.00601811
0.00572399
0.00545249
0.00518099
0.0049095
0.014638
0.0243665
0.0291403
0.0339367
0.0386652
0.0433258
0.0429186
0.0424661
0.0469457
0.0563801
0.0708145
0.0802941
0.084819
0.0893892
0.0940045
0.0985747
0.103077
0.107534
0.1119
0.116335
0.120747
0.125249
0.129864
0.134638
0.13457
0.134593
0.134706
0.135023
0.135498
0.135928
0.136312
0.136561
0.136674
0.131697
0.126629
0.131493
0.136312
0.126176
0.116086
0.105995
0.095905
0.0807919
0.0656561
0.0555204
0.0453846
0.0302715
0.010181
-0.0049095
-0.0200679
-0.0352489
-0.0454525
-0.0407014
-0.0359955
-0.0412896
-0.0465158
-0.0467195
-0.0471041
-0.0477828
-0.0491176
-0.0514253
-0.0553846
-0.0612217
-0.0694118
-0.0779864
-0.0836199
-0.0911538
-0.0950679
-0.0866063
-0.0767195
-0.0707692
-0.0634163
-0.0500226
-0.0371946
-0.026086
-0.0245928
-0.0314253
-0.0392081
-0.0472172
-0.0443665
-0.040724
-0.0463349
-0.0514932
-0.0465385
-0.0415385
-0.0465385
-0.0515385
-0.0515385
-0.0515385
-0.0465611
-0.041629
-0.0516968
-0.0617421
-0.0617873
-0.0618552
-0.0669231
-0.0719683
-0.0719909
-0.0720136
-0.0720588
-0.0721041
-0.0721267
-0.0721493
-0.0721493
-0.0721719
-0.0672172
-0.0622624
-0.0623077
-0.0623529
-0.0623982
-0.0624661
-0.0675566
-0.0726244
-0.0776697
-0.0777149
-0.0677602
-0.0578054
-0.0428733
-0.0329864
-0.0231448
-0.0183258
-0.0134842
-0.00859728
-0.00368778
-0.00375565
-0.0038009
0.0111765
0.0261765
0.0411991
0.0562217
0.0612217
0.0662217
0.0562443
0.0413348
0.0214932
0.00162895
-0.0182806
-0.0381901
-0.0530996
-0.0679638
-0.0827828
-0.0925566
-0.0872625
-0.0818778
-0.0864253
-0.0909502
-0.0904299
-0.089819
-0.0941177
-0.0983937
-0.0976697
-0.0969457
-0.0962217
-0.0954977
-0.094819
-0.0941855
-0.0985973
-0.103077
-0.102624
-0.0871946
-0.08181
-0.0765159
-0.0712896
-0.0660407
-0.0607692
-0.0705204
-0.0752941
-0.0350905
0.0350905
0.185294
0.40552
0.785747
1.21097
1.7312
1.81643
1.15665
0.471878
-0.237919
-0.642738
-0.697534
-0.617285
-0.397014
-0.236765
-0.131516
-0.0812444
-0.0659503
-0.0556109
-0.0602489
-0.0649095
-0.0645928
-0.0642534
-0.0688914
-0.0735521
-0.0682353
-0.0628959
-0.0625113
-0.0621041
-0.0616968
-0.0613122
-0.0559502
-0.0455656
-0.0401584
-0.0397738
-0.0394118
-0.0340724
-0.0287557
-0.0284389
-0.0281222
-0.0228054
-0.0174661
-0.0170814
-0.0166968
-0.0113575
-0.00604072
0.00429865
0.014638
0.0199774
0.0253846
0.0258371
0.0262444
0.0316063
0.0369005
0.0421041
0.0472625
0.0523756
0.0574661
0.0625792
0.0727149
0.0828959
0.0930995
0.103303
0.108462
0.113597
0.118733
0.118869
0.118982
0.119072
0.119231
0.119502
0.124932
0.135543
0.14129
0.142172
0.133122
0.12405
0.13491
0.145701
0.146403
0.147014
0.137557
0.128032
0.118439
0.103801
0.0842082
0.0696606
0.0600679
0.0454525
0.030905
0.0163801
0.00185521
-0.00771492
-0.0173077
-0.0269004
-0.0414932
-0.0461086
-0.0457466
-0.0454072
-0.0451131
-0.049819
-0.0595023
-0.0641855
-0.058914
-0.0535747
-0.05319
-0.0528507
-0.0527376
-0.0531448
-0.0494118
-0.0467195
-0.0555204
-0.0659955
-0.0711086
-0.0738462
-0.0718326
-0.063371
-0.0525113
-0.0436426
-0.0381901
-0.0368326
-0.0380091
-0.0450905
-0.0520362
-0.0481448
-0.043552
-0.0434841
-0.04319
-0.052828
-0.0624208
-0.0620362
-0.061629
-0.0612217
-0.0608371
-0.0604977
-0.0602036
-0.0599095
-0.0645701
-0.0742081
-0.078914
-0.0736878
-0.0684615
-0.0682127
-0.0679185
-0.0726018
-0.077285
-0.0719683
-0.0666289
-0.0712896
-0.0760181
-0.0757918
-0.080543
-0.0902715
-0.0900226
-0.0797964
-0.0745475
-0.0792986
-0.0790498
-0.0737783
-0.0835068
-0.0932353
-0.0829638
-0.0726923
-0.0573981
-0.0421266
-0.0369004
-0.0316742
-0.0264253
-0.0211538
-0.0158823
-0.0106108
-0.00533932
0.00490954
0.0201584
0.0304299
0.035724
0.0410634
0.0464254
0.05181
0.0522172
0.0425792
0.022896
-0.00171942
-0.0262443
-0.0507466
-0.0752488
-0.0847963
-0.0893891
-0.0939366
-0.0934163
-0.092828
-0.0921719
-0.0914932
-0.0907692
-0.09
-0.0942534
-0.0985746
-0.0929185
-0.0922398
-0.106561
-0.110905
-0.115294
-0.109728
-0.104186
-0.103688
-0.103235
-0.0978507
-0.0924887
-0.0871267
-0.0817647
-0.0864027
-0.0910633
-0.0757919
-0.0605656
-0.0702715
-0.0749321
-0.0595701
-0.0042534
0.101018
0.28629
0.556584
0.956923
1.47726
1.61756
1.47283
0.8481
-0.056629
-0.501357
-0.721086
-0.650815
-0.455543
-0.300294
-0.155068
-0.104842
-0.0696154
-0.0643439
-0.0640272
-0.0637331
-0.0634616
-0.0632127
-0.0629865
-0.0727602
-0.072534
-0.0672851
-0.0620136
-0.0567421
-0.0514706
-0.0562218
-0.0610182
-0.0458598
-0.030724
-0.030543
-0.0303168
-0.0300906
-0.0298869
-0.0296833
-0.0296607
-0.0296833
-0.0246833
-0.00970591
0.000226222
0.000135727
-2.23517e-08
0.00479636
0.00957014
0.00934388
0.0140272
0.0235973
0.0281674
0.0327376
0.0371946
0.0365837
0.0361086
0.0357692
0.0455656
0.0605204
0.0656561
0.0659276
0.0663122
0.0717647
0.0822172
0.0926697
0.108145
0.118665
0.119253
0.11991
0.115634
0.111403
0.107217
0.103054
0.113846
0.12457
0.115226
0.105792
0.106244
0.106584
0.10681
0.106946
0.107014
0.102059
0.0871041
0.0721267
0.0571267
0.0371267
0.0171267
0.00705882
0.00190046
-0.00819004
-0.0232127
-0.0384615
-0.0491855
-0.0556787
-0.0633484
-0.0728959
-0.079457
-0.0882579
-0.0965611
-0.10095
-0.101991
-0.100249
-0.097353
-0.0947285
-0.0877828
-0.0816969
-0.0911312
-0.0959955
-0.101063
-0.0911312
-0.0809729
-0.0803394
-0.0788688
-0.0811538
-0.0816063
-0.0697285
-0.0572398
-0.0504299
-0.0464706
-0.046629
-0.0488235
-0.0520136
-0.0548869
-0.0518778
-0.0482127
-0.0539367
-0.059457
-0.0648416
-0.070181
-0.0654977
-0.0608371
-0.0661991
-0.0715611
-0.0719231
-0.0723982
-0.0779412
-0.0834616
-0.0839593
-0.084457
-0.0799548
-0.0754977
-0.076086
-0.0766742
-0.0822172
-0.0877828
-0.0883711
-0.0839593
-0.0895475
-0.0551358
-0.0407692
-0.0414932
-0.0422398
-0.0379186
-0.0335521
-0.0292082
-0.0248869
-0.0205657
-0.011267
0.0129864
0.0322624
0.0316289
0.0360181
0.0504525
0.0548416
0.0342534
0.0136425
-0.00199097
-0.0225566
-0.0580317
-0.0834616
-0.103869
-0.114299
-0.109729
