ekg
0
-1.49012e-08
0
0.00642857
0.0183333
0.0109091
0.000769228
-0.00900001
-0.0135294
0.0105263
0.0280952
0.0578261
0.0808
0.0781481
0.0694828
0.06
0.060303
0.0851428
0.0994595
0.0885897
0.0617073
0.0190698
-0.0138889
-0.0372341
-0.0515306
-0.0497059
-0.0416038
-0.0330909
-0.0463158
-0.0979661
-0.164836
-0.195714
-0.182077
-0.155746
-0.139855
-0.134577
-0.133219
-0.137667
-0.137338
-0.127089
-0.122099
-0.11753
-0.113176
-0.114138
-0.115506
-0.117088
-0.108979
-0.101053
-0.0934021
-0.0960606
-0.169059
-0.252524
-0.366524
-0.415935
-0.275872
-0.0163964
0.507212
1.07483
1.70662
2.01769
1.86326
1.29362
0.23376
-0.470787
-0.829419
-0.976145
-0.940489
-0.777593
-0.532737
-0.366403
-0.249184
-0.186503
-0.153483
-0.140204
-0.131846
-0.123543
-0.120261
-0.117161
-0.109108
-0.101038
-0.0930745
-0.0802761
-0.0675455
-0.0598802
-0.0573669
-0.0448538
-0.0324566
-0.0202286
-0.00799435
-0.000782121
0.00638122
0.0184973
0.0306487
0.0377808
0.0448677
0.056911
0.0689119
0.0809487
0.0929696
0.10495
0.121891
0.138793
0.155585
0.177295
0.19378
0.209905
0.225775
0.246442
0.266659
0.286667
0.311946
0.341425
0.375905
0.41043
0.445113
0.474977
0.505023
0.535271
0.565701
0.591244
0.606901
0.622624
0.643484
0.664434
0.670339
0.671177
0.666946
0.652692
0.608529
0.559412
0.490249
0.415973
0.346471
0.276787
0.202014
0.137195
0.0823529
0.0274887
-0.0123756
-0.0472625
-0.0671267
-0.0870815
-0.102059
-0.117104
-0.132195
-0.142195
-0.157036
-0.16138
-0.160317
-0.159321
-0.163733
-0.169819
-0.167986
-0.169344
-0.178054
-0.187421
-0.200588
-0.209367
-0.209548
-0.207172
-0.198462
-0.190091
-0.187534
-0.186335
-0.186154
-0.186109
-0.185362
-0.177511
-0.167195
-0.164027
-0.159434
-0.145498
-0.134095
-0.127466
-0.124005
-0.132149
-0.14095
-0.144593
-0.147534
-0.149412
-0.150588
-0.15129
-0.151765
-0.157127
-0.162466
-0.162805
-0.163145
-0.163507
-0.163937
-0.164412
-0.164887
-0.165362
-0.16586
-0.17138
-0.176946
-0.177579
-0.178258
-0.178959
-0.179683
-0.18043
-0.181222
-0.182081
-0.183009
-0.178982
-0.175
-0.176086
-0.172217
-0.163439
-0.149774
-0.131199
-0.117738
-0.104389
-0.101176
-0.0980317
-0.0749095
-0.0518326
-0.0337783
-0.0156787
-0.0325113
-0.0492987
-0.0660407
-0.0776471
-0.0590498
-0.0501358
-0.0658824
-0.0861765
-0.121041
-0.160407
-0.199299
-0.22276
-0.215814
-0.208507
-0.210882
-0.212986
-0.209819
-0.206516
-0.2031
-0.199593
-0.196041
-0.192624
-0.194389
-0.196448
-0.188824
-0.181516
-0.184525
-0.187873
-0.181516
-0.175385
-0.17448
-0.168733
-0.173145
-0.152692
-0.152353
-0.142081
-0.131878
-0.151742
-0.186652
-0.296629
-0.391629
-0.376652
-0.276697
0.0982353
0.563145
1.2731
1.7931
1.9381
1.67308
0.713054
-0.0719909
-0.627036
-0.922081
-0.917104
-0.817127
-0.627172
-0.44724
-0.27233
-0.162398
-0.0974434
-0.0674435
-0.0573982
-0.0523529
-0.0523077
-0.0522625
-0.0472172
-0.0421267
-0.0369909
-0.0318552
-0.0267195
-0.0165837
-0.00644795
0.00366517
0.0137557
0.0238688
0.0290045
0.0341177
0.0392082
0.0442987
0.0493892
0.064457
0.0795023
0.0845475
0.0895928
0.104638
0.11957
0.134344
0.149005
0.168575
0.183167
0.197805
0.212376
0.226878
0.246244
0.270475
0.289706
0.303959
0.323371
0.342873
0.372376
0.4069
0.436448
0.471041
0.510792
0.555747
0.586041
0.611538
0.637127
0.657805
0.663575
0.669434
0.680249
0.691018
0.68672
0.672398
0.638213
0.599072
0.534819
0.470452
0.390928
0.316222
0.251312
0.186267
0.121244
0.0662443
0.0261991
-0.0138914
-0.0389819
-0.064095
-0.0892534
-0.114434
-0.129615
-0.139796
-0.144977
-0.149774
-0.149163
-0.148416
-0.147783
-0.148507
-0.15586
-0.166018
-0.178733
-0.188167
-0.187964
-0.189661
-0.193032
-0.192421
-0.189231
-0.185814
-0.182579
-0.180362
-0.174344
-0.169276
-0.16948
-0.168416
-0.170543
-0.169615
-0.161425
-0.147624
-0.145045
-0.141787
-0.142081
-0.144932
-0.149163
-0.148416
-0.14724
-0.145226
-0.142421
-0.148846
-0.154796
-0.160475
-0.166063
-0.171584
-0.177217
-0.172896
-0.16862
-0.174367
-0.180113
-0.18586
-0.191652
-0.192489
-0.193326
-0.189163
-0.185
-0.190837
-0.196697
-0.197624
-0.19862
-0.199683
-0.200815
-0.197014
-0.193235
-0.194525
-0.19595
-0.197511
-0.17414
-0.14586
-0.12767
-0.109548
-0.116448
-0.128394
-0.115385
-0.102421
-0.0745023
-0.0465385
-0.0484842
-0.050362
-0.0821493
-0.103778
-0.100249
-0.0964027
-0.0872172
-0.0776244
-0.0976018
-0.127081
-0.196063
-0.234638
-0.227828
-0.220656
-0.218167
-0.215475
-0.217579
-0.219457
-0.216109
-0.21767
-0.224208
-0.220882
-0.207715
-0.199751
-0.197036
-0.194683
-0.18767
-0.180928
-0.179457
-0.178281
-0.172353
-0.166629
-0.166109
-0.160701
-0.150407
-0.145226
-0.145158
-0.145181
-0.150271
-0.240385
-0.32552
-0.350656
-0.330792
-0.035905
0.329005
0.953869
1.51869
1.90348
1.97828
1.31312
0.577986
-0.292149
-0.852285
-0.922421
-0.917579
-0.80276
-0.632941
-0.4081
-0.24819
-0.153235
-0.0883032
-0.0534163
-0.0335294
-0.0236199
-0.0186652
-0.0237104
-0.0237556
-0.0138009
-0.00386876
0.00604075
0.0109955
0.0159955
0.0210407
0.0261312
0.0311991
0.0362444
0.0462443
0.0411991
0.0711538
0.0811086
0.091086
0.101086
0.106063
0.11095
0.125679
0.140294
0.149819
0.159321
0.168846
0.178394
0.192896
0.21224
0.231697
0.250837
0.269932
0.28914
0.308484
0.337828
0.372149
0.406425
0.435656
0.470091
0.504796
0.534819
0.560113
0.585452
0.610815
0.636267
0.66181
0.672466
0.678235
0.684027
0.679842
0.66552
0.651109
0.611719
0.572353
0.513054
0.453824
0.38448
0.319977
0.260181
0.200204
0.145204
0.0952036
0.0552263
0.0152715
-0.0247285
-0.0647737
-0.0898416
-0.109977
-0.115204
-0.120226
-0.139955
-0.149231
-0.1481
-0.147579
-0.152783
-0.16052
-0.165814
-0.173801
-0.178869
-0.183054
-0.190543
-0.193258
-0.192014
-0.189208
-0.180362
-0.171742
-0.168643
-0.166968
-0.166538
-0.166878
-0.172579
-0.177172
-0.170272
-0.160588
-0.153371
-0.144434
-0.135181
-0.128937
-0.126041
-0.127127
-0.130769
-0.129751
-0.128756
-0.132285
-0.135068
-0.146833
-0.157896
-0.153575
-0.148982
-0.154253
-0.15948
-0.164706
-0.169955
-0.170294
-0.170679
-0.166063
-0.161471
-0.1669
-0.172353
-0.177828
-0.183303
-0.183778
-0.184321
-0.179932
-0.175566
-0.181312
-0.187014
-0.18776
-0.188552
-0.189412
-0.175385
-0.146493
-0.127692
-0.108982
-0.105385
-0.106878
-0.108439
-0.10509
-0.0768099
-0.103552
-0.0352941
-0.0270135
-0.0536878
-0.0802941
-0.0767873
-0.0730543
-0.0640724
-0.0547059
-0.0749095
-0.104638
-0.153891
-0.19267
-0.205973
-0.218891
-0.221946
-0.22414
-0.216018
-0.207692
-0.209186
-0.210566
-0.206878
-0.203213
-0.19957
-0.196041
-0.197624
-0.199457
-0.191538
-0.183937
-0.186629
-0.184593
-0.172828
-0.166312
-0.170023
-0.173914
-0.167986
-0.16224
-0.156674
-0.146244
-0.135928
-0.180633
-0.235362
-0.330181
-0.420045
-0.284887
-0.119706
0.44543
1.01052
1.60561
2.0707
1.88081
1.50595
0.456086
-0.408778
-0.748665
-0.978575
-0.928484
-0.818394
-0.593303
-0.403213
-0.258122
-0.158009
-0.107896
-0.0728054
-0.0626923
-0.0575566
-0.0524208
-0.0472624
-0.0470815
-0.0419005
-0.0317195
-0.0265385
-0.0213575
-0.0111539
-0.000927605
0.00429863
0.00452488
0.0097285
0.0199095
0.0251131
0.0303394
0.0405656
0.0507918
0.0609729
0.0761086
0.0862217
0.0963122
0.111425
0.126493
0.136448
0.146312
0.151086
0.155815
0.17552
0.195204
0.20991
0.229525
0.248982
0.268348
0.287624
0.311968
0.34138
0.375905
0.410611
0.445317
0.480023
0.509842
0.534774
0.564932
0.595294
0.620882
0.641425
0.657308
0.668258
0.674095
0.669819
0.650543
0.631267
0.582036
0.517851
0.448597
0.379231
0.304638
0.224864
0.165023
0.220113
0.0551584
0.0101584
-0.024819
-0.0597738
-0.0797512
-0.0997512
-0.109774
-0.119842
-0.134955
-0.150091
-0.155272
-0.160385
-0.160339
-0.159751
-0.159683
-0.158733
-0.157964
-0.159027
-0.162104
-0.168371
-0.177443
-0.187262
-0.191946
-0.192466
-0.194118
-0.193077
-0.190158
-0.187466
-0.190294
-0.193394
-0.186629
-0.178167
-0.17276
-0.164932
-0.155158
-0.146267
-0.139095
-0.136697
-0.133235
-0.131335
-0.13052
-0.129525
-0.133054
-0.135566
-0.13724
-0.143303
-0.148959
-0.149434
-0.149774
-0.15009
-0.150407
-0.155701
-0.161018
-0.161403
-0.161787
-0.162149
-0.162557
-0.162986
-0.163416
-0.163846
-0.164299
-0.169796
-0.175362
-0.175973
-0.176606
-0.182262
-0.187941
-0.183665
-0.179457
-0.175294
-0.171199
-0.172172
-0.15819
-0.139276
-0.12543
-0.111674
-0.108077
-0.104638
-0.101267
-0.102941
-0.0796606
-0.0513801
-0.0380769
-0.0197737
-0.0364706
-0.0531222
-0.0646832
-0.0760633
-0.0572172
-0.0380543
-0.058552
-0.0836199
-0.133235
-0.172398
-0.191109
-0.204389
-0.207285
-0.209842
-0.207059
-0.204072
-0.195928
-0.187738
-0.184502
-0.181403
-0.183507
-0.185882
-0.183529
-0.181493
-0.179796
-0.178348
-0.171629
-0.165633
-0.164819
-0.164163
-0.163665
-0.163258
-0.157941
-0.147692
-0.137511
-0.132398
-0.127353
-0.147308
-0.177262
-0.29224
-0.18224
-0.37724
-0.32724
0.0827602
0.52276
1.22278
1.84783
2.01785
1.99285
1.08285
0.237851
-0.402149
-0.872149
-0.917172
-0.892217
-0.697285
-0.502376
-0.312443
-0.177489
-0.117534
-0.0825566
-0.0775565
-0.0725566
-0.0675566
-0.0625792
-0.0576018
-0.0475792
-0.0375113
-0.0324208
-0.0323303
-0.0272398
-0.0171493
-0.00708145
0.0029638
0.00800906
0.0130543
0.0181222
0.0182127
0.0282579
0.0432579
0.0482579
0.0532579
0.068258
0.0782579
0.0882579
0.0982579
0.108235
0.118122
0.137873
0.157534
0.167149
0.176742
0.191335
0.210837
0.235249
0.25957
0.283801
0.308077
0.332398
0.361855
0.386471
0.416086
0.455701
0.495385
0.530136
0.560045
0.585091
0.605453
0.621109
0.641855
0.662715
0.678507
0.689231
0.68491
0.670543
0.636267
0.597081
0.532783
0.458348
0.38871
0.318914
0.249027
0.184072
0.124095
0.059095
0.019095
-0.0209276
-0.0509729
-0.0810181
-0.101063
-0.121109
-0.131199
-0.141335
-0.146493
-0.151674
-0.156833
-0.161561
-0.165792
-0.169729
-0.168371
-0.16819
-0.169276
-0.173258
-0.175023
-0.178937
-0.189389
-0.197851
-0.208824
-0.21543
-0.208597
-0.201312
-0.197964
-0.196041
-0.194615
-0.192398
-0.193982
-0.192805
-0.17905
-0.164615
-0.150362
-0.140204
-0.138846
-0.140407
-0.139118
-0.138054
-0.141901
-0.144887
-0.147014
-0.148303
-0.149005
-0.154457
-0.159796
-0.160158
-0.160543
-0.15595
-0.151358
-0.156765
-0.162149
-0.162511
-0.162896
-0.163258
-0.163733
-0.164208
-0.164706
-0.165226
-0.165747
-0.171267
-0.176855
-0.172534
-0.168235
-0.168937
-0.169683
-0.170475
-0.171244
-0.172059
-0.172986
-0.169005
-0.150113
-0.126312
-0.112579
-0.103914
-0.100362
-0.106923
-0.0935521
-0.0702263
-0.0469231
-0.0236199
-0.0302942
-0.0419005
-0.0584163
-0.0748191
-0.0611313
-0.0472625
-0.0580996
-0.0685295
-0.0985747
-0.128122
-0.172149
-0.205769
-0.208982
-0.211833
-0.209321
-0.206493
-0.203394
-0.200158
-0.196833
-0.193552
-0.185339
-0.177353
-0.179638
-0.182217
-0.18009
-0.178235
-0.176629
-0.175294
-0.174253
-0.168416
-0.157783
-0.152308
-0.151991
-0.151719
-0.146493
-0.14129
-0.136109
-0.130973
-0.135882
-0.230837
-0.335837
-0.395837
-0.460837
-0.200837
0.0791629
0.71914
1.3391
1.82407
2.17407
1.73907
1.19407
0.20905
-0.580996
-0.796041
-0.921086
-0.801131
-0.641177
-0.406222
-0.231222
-0.141199
-0.0862218
-0.0662444
-0.0512444
-0.0562217
-0.0611539
-0.0560634
-0.0509729
-0.0458598
-0.040724
-0.0355883
-0.0304525
-0.0253168
-0.0201584
-0.0149774
-0.00484166
0.00524883
0.015362
0.0254977
0.0306561
0.0358371
0.0409954
0.0461312
0.0562443
0.0513348
0.0814479
0.0915837
0.106719
0.121855
0.126991
0.132127
0.152217
0.172262
0.18733
0.202421
0.217489
0.232534
0.242557
0.262466
0.297466
0.327172
0.356833
0.386606
0.421516
0.456425
0.49129
0.525995
0.55552
0.585113
0.614842
0.639819
0.66
0.670068
0.675023
0.67991
0.684774
0.674864
0.650226
0.600769
0.551403
0.471923
0.38233
0.312511
0.237511
0.177466
0.117376
0.0622851
0.0121946
-0.0228733
-0.0579185
-0.0829412
-0.107941
-0.122941
-0.137941
-0.142964
-0.148009
-0.158054
-0.1681
-0.168167
-0.168258
-0.163348
-0.158439
-0.153507
-0.148575
-0.158665
-0.168665
-0.173507
-0.177805
-0.171652
-0.165566
-0.159977
-0.156652
-0.165973
-0.178688
-0.189095
-0.199072
-0.201719
-0.197195
-0.191199
-0.180249
-0.166199
-0.154095
-0.144887
-0.141063
-0.136674
-0.134072
-0.137534
-0.140724
-0.143303
-0.154842
-0.165633
-0.161063
-0.156267
-0.15638
-0.156448
-0.161584
-0.166765
-0.166946
-0.167127
-0.167308
-0.167489
-0.16767
-0.167851
-0.173054
-0.178281
-0.173529
-0.168756
-0.173959
-0.179186
-0.179434
-0.179661
-0.179864
-0.180136
-0.175475
-0.170792
-0.176176
-0.181516
-0.181878
-0.182217
-0.182534
-0.182873
-0.178281
-0.17371
-0.17414
-0.174615
-0.170113
-0.165633
-0.161199
-0.136855
-0.157602
-0.0933711
-0.0791629
-0.0849774
-0.0907919
-0.0765611
-0.0572851
-0.0179864
0.0163801
0.0157918
0.0103167
-0.0200453
-0.0402715
-0.0203394
-0.00518101
-0.00515838
-0.014457
-0.0484389
-0.0921041
-0.140543
-0.168914
-0.172217
-0.175634
-0.169208
-0.162919
-0.156787
-0.150814
-0.15
-0.149321
-0.153778
-0.158348
-0.163032
-0.167805
-0.16267
-0.157557
-0.157466
-0.157376
-0.157285
-0.15724
-0.15224
-0.147262
-0.147308
-0.142353
-0.137398
-0.132398
-0.127353
-0.147376
-0.177466
-0.292557
-0.387647
-0.367738
-0.262828
0.142127
0.622127
1.31208
1.84199
2.0069
1.77181
0.826742
0.0166968
-0.593348
-0.928394
-0.933439
-0.838484
-0.633529
-0.443575
-0.263597
-0.153575
-0.0935294
-0.0685068
-0.0635068
-0.0535294
-0.0435746
-0.0385746
-0.0385294
-0.0334841
-0.0234389
-0.0184163
-0.0134163
-0.00841629
-0.00341631
0.0015837
0.00658371
0.0115837
0.0215837
0.0315611
0.0415158
0.0464932
0.0514932
0.0664932
0.0814932
0.0814932
0.0814706
0.101403
0.121244
0.126018
0.135747
0.155385
0.169977
0.179615
0.189186
0.198688
0.218032
0.24224
0.261448
0.285633
0.304909
0.324299
0.348733
0.378213
0.41776
0.457172
0.491946
0.526923
0.557149
0.582511
0.607986
0.638597
0.659389
0.680339
0.68629
0.692217
0.688009
0.67371
0.634502
0.670362
0.526222
0.462059
0.382783
0.308326
0.24362
0.178756
0.123846
0.0688914
0.0289367
-0.0110181
-0.0359502
-0.0608597
-0.0857692
-0.105701
-0.115633
-0.125724
-0.130882
-0.13586
-0.145588
-0.154842
-0.158756
-0.163032
-0.163009
-0.165045
-0.164321
-0.166539
-0.17086
-0.174977
-0.187421
-0.195158
-0.189163
-0.181199
-0.18224
-0.184027
-0.176787
-0.170385
-0.174367
-0.17733
-0.168665
-0.157195
-0.148484
-0.139072
-0.130769
-0.126787
-0.126493
-0.128959
-0.132941
-0.136968
-0.140611
-0.143371
-0.145294
-0.151425
-0.157104
-0.152557
-0.147919
-0.153281
-0.158665
-0.16405
-0.169412
-0.169774
-0.170181
-0.170611
-0.171086
-0.171606
-0.172149
-0.172715
-0.173281
-0.173869
-0.174525
-0.175204
-0.175928
-0.176674
-0.177511
-0.183439
-0.189367
-0.190317
-0.18638
-0.177579
-0.158824
-0.140113
-0.126516
-0.113009
-0.109548
-0.121176
-0.107919
-0.0947738
-0.0617195
-0.0286426
-0.0254978
-0.0223077
-0.0440498
-0.065724
-0.0723077
-0.0786878
-0.069819
-0.0604751
-0.0756561
-0.105362
-0.16457
-0.198303
-0.206584
-0.214502
-0.212014
-0.209208
-0.206086
-0.202783
-0.199321
-0.195792
-0.19224
-0.188801
-0.185136
-0.187081
-0.194276
-0.19681
-0.189661
-0.182805
-0.176244
-0.16991
-0.163801
-0.157873
-0.157127
-0.156516
-0.156041
-0.150679
-0.155407
-0.125181
-0.115
-0.159819
-0.209638
-0.309525
-0.38448
-0.304457
-0.149457
0.30552
0.805475
1.46045
1.92545
1.88548
1.52052
0.485543
-0.334525
-0.789593
-1.03959
-0.98957
-0.86957
-0.664548
-0.474502
-0.29448
-0.17448
-0.104457
-0.0694344
-0.0594344
-0.0494118
-0.0393665
-0.0342987
-0.0342082
-0.034095
-0.0289593
-0.0188235
-0.0086878
-0.00352942
0.00165156
0.0117873
0.0218778
0.0269683
0.0320588
0.0471493
0.0572398
0.0573077
0.057353
0.0723982
0.0874434
0.102489
0.117534
0.127579
0.137624
0.14267
0.15267
0.172602
0.187398
0.207059
0.221652
0.246199
0.270792
0.285407
0.304887
0.329253
0.358529
0.387738
0.417081
0.446561
0.476199
0.505973
0.540679
0.575271
0.609955
0.639774
0.654909
0.665385
0.676063
0.686878
0.692602
0.693235
0.673846
0.649434
0.585068
0.520747
0.451357
0.376833
0.302036
0.227081
0.172081
0.112036
0.0619909
0.0119457
-0.0231222
-0.0532127
-0.0733032
-0.0933937
-0.108507
-0.123643
-0.133778
-0.143937
-0.149186
-0.154525
-0.15491
-0.155113
-0.160091
-0.164593
-0.163665
-0.162783
-0.157262
-0.153258
-0.156109
-0.161878
-0.170204
-0.17991
-0.194661
-0.206923
-0.206177
-0.201878
-0.200362
-0.197783
-0.189457
-0.179751
-0.17362
-0.165543
-0.155996
-0.146991
-0.139819
-0.122421
-0.118778
-0.132172
-0.146674
-0.150973
-0.154774
-0.157692
-0.159796
-0.161131
-0.161946
-0.157466
-0.152851
-0.15819
-0.163507
-0.168756
-0.174118
-0.179525
-0.184977
-0.185453
-0.185882
-0.191267
-0.196697
-0.192172
-0.187647
-0.183122
-0.17862
-0.18414
-0.189638
-0.190158
-0.190747
-0.191403
-0.192081
-0.192783
-0.193507
-0.194253
-0.195023
-0.19586
-0.186833
-0.172941
-0.144118
-0.115362
-0.101652
-0.0930317
-0.104434
-0.11586
-0.092353
-0.0688688
-0.045362
-0.0217647
-0.033077
-0.044276
-0.065362
-0.0813349
-0.0621494
-0.0476245
-0.0527602
-0.0673983
-0.101584
-0.140362
-0.178756
-0.20181
-0.199548
-0.197059
-0.194367
-0.191584
-0.188733
-0.186018
-0.183439
-0.181086
-0.179004
-0.177217
-0.175724
-0.174457
-0.173439
-0.172602
-0.166946
-0.161471
-0.161154
-0.160928
-0.155792
-0.150724
-0.150724
-0.150747
-0.140792
-0.125882
-0.111018
-0.146154
-0.19129
-0.291448
-0.381629
-0.36681
-0.286991
0.0478507
0.457715
1.10758
1.66744
2.00231
2.02217
1.42701
0.71181
-0.173394
-0.738597
-0.893824
-0.90405
-0.754254
-0.569412
-0.344548
-0.204683
-0.124819
-0.0849774
-0.0651584
-0.0552489
-0.0602942
-0.0653847
-0.0605204
-0.0506336
-0.0407241
-0.0307919
-0.0208372
-0.015905
-0.0109955
-0.00606339
-0.00610864
-0.00115389
-0.00619914
0.023733
0.0336425
0.0435294
0.0533936
0.0532353
0.0530543
0.0678507
0.0826244
0.0924208
0.10224
0.112081
0.121923
0.131697
0.146335
0.161063
0.17552
0.194932
0.214367
0.233824
0.25319
0.267466
0.291584
0.325588
0.364683
0.398891
0.428281
0.457851
0.492443
0.522036
0.551584
0.581131
0.605928
0.626018
0.636448
0.647127
0.652783
0.658416
0.663937
0.659367
0.619864
0.580407
0.50595
0.436448
0.361765
0.286878
0.22181
0.161629
0.116448
0.071267
0.031086
-0.00909504
-0.044276
-0.0794571
-0.0996607
-0.114887
-0.125136
-0.135407
-0.140679
-0.145995
-0.156357
-0.166629
-0.161719
-0.156244
-0.155317
-0.154525
-0.154208
-0.155656
-0.164208
-0.175769
-0.179706
-0.184706
-0.194163
-0.200339
-0.203281
-0.203167
-0.20138
-0.199118
-0.196697
-0.19362
-0.189548
-0.183394
-0.175226
-0.165815
-0.156448
-0.144819
-0.136448
-0.132081
-0.130271
-0.134186
-0.138167
-0.146493
-0.154027
-0.155588
-0.156538
-0.152149
-0.147602
-0.152986
-0.158371
-0.158846
-0.159367
-0.164887
-0.170407
-0.175928
-0.181425
-0.1769
-0.172398
-0.172919
-0.173484
-0.179118
-0.184751
-0.18543
-0.186018
-0.186629
-0.187285
-0.182986
-0.178756
-0.179615
-0.18052
-0.181448
-0.182443
-0.183484
-0.179593
-0.170814
-0.147149
-0.168552
-0.110023
-0.101584
-0.10819
-0.114842
-0.0965384
-0.0782579
-0.045
-0.0216968
-0.0333032
-0.0447511
-0.0560634
-0.0672398
-0.0582353
-0.0488914
-0.0495701
-0.0594344
-0.0888462
-0.127783
-0.17629
-0.204457
-0.207285
-0.209864
-0.202195
-0.194253
-0.186131
-0.178077
-0.180091
-0.182353
-0.174864
-0.167692
-0.165837
-0.164253
-0.162919
-0.161742
-0.160724
-0.159887
-0.159231
-0.158756
-0.153462
-0.148258
-0.143122
-0.138009
-0.137919
-0.127851
-0.117805
-0.137805
-0.172851
-0.292896
-0.392941
-0.362964
-0.252964
0.142059
0.607081
1.27204
1.80695
2.05688
1.95183
1.19179
0.431765
-0.343235
-0.803281
-0.893371
-0.848462
-0.658552
-0.46862
-0.278665
-0.16371
-0.103756
-0.0738009
-0.0638461
-0.0588688
-0.0588688
-0.0588462
-0.0538009
-0.048733
-0.0436425
-0.0335747
-0.0235294
-0.0184842
-0.0134389
-0.00834842
-0.00321267
0.00690045
0.021991
0.0270814
0.0321719
0.0422172
0.0522172
0.0572172
0.0622172
0.0722398
0.0822851
0.0973077
0.112308
0.117285
0.12224
0.132195
0.147104
0.166923
0.186629
0.201244
0.220837
0.245385
0.264932
0.28948
0.308914
0.333235
0.367489
0.401697
0.431086
0.460452
0.495136
0.524887
0.554548
0.584163
0.608937
0.628937
0.644299
0.659932
0.665634
0.671358
0.672059
0.662715
0.623371
0.65905
0.509729
0.440362
0.36086
0.286199
0.221357
0.156403
0.106425
0.0564253
0.00142533
-0.0435747
-0.068552
-0.0935068
-0.113484
-0.128484
-0.133462
-0.138484
-0.143529
-0.148597
-0.158688
-0.168801
-0.168914
-0.168801
-0.163394
-0.157421
-0.156154
-0.155611
-0.161425
-0.170226
-0.176833
-0.185815
-0.19552
-0.203281
-0.203213
-0.199457
-0.203462
-0.20638
-0.208529
-0.204299
-0.188756
-0.176267
-0.167014
-0.157036
-0.147738
-0.146991
-0.149729
-0.140973
-0.134321
-0.138122
-0.141742
-0.149502
-0.156403
-0.157466
-0.158054
-0.158416
-0.158665
-0.158891
-0.15914
-0.159412
-0.159683
-0.164932
-0.170226
-0.170566
-0.170905
-0.171244
-0.171584
-0.176923
-0.182285
-0.18267
-0.183077
-0.183484
-0.183914
-0.179389
-0.174887
-0.180407
-0.185973
-0.186584
-0.18724
-0.182964
-0.17871
-0.17948
-0.180317
-0.181244
-0.172262
-0.153348
-0.129502
-0.105701
-0.0969683
-0.0882579
-0.0895475
-0.0908824
-0.0672172
-0.043552
-0.0248643
-0.00608599
-0.0222172
-0.0382353
-0.0491177
-0.0547512
-0.0401132
-0.0350905
-0.0496833
-0.0788235
-0.122557
-0.15586
-0.178778
-0.19138
-0.19371
-0.190815
-0.17776
-0.169706
-0.166335
-0.163552
-0.160996
-0.16371
-0.171697
-0.174955
-0.173484
-0.172217
-0.166154
-0.160317
-0.159661
-0.159095
-0.15862
-0.158258
-0.157986
-0.142738
-0.137511
-0.132285
-0.127059
-0.1219
-0.12181
-0.17172
-0.236629
-0.361539
-0.421448
-0.256335
0.0488009
0.713914
1.334
1.8691
2.03914
1.58919
0.929231
-0.00570137
-0.600611
-0.810543
-0.870498
-0.780475
-0.605475
-0.370453
-0.225362
-0.135226
-0.0900905
-0.0649548
-0.0548643
-0.054819
-0.0497285
-0.0395928
-0.0344344
-0.0342534
-0.0340271
-0.0288009
-0.0185973
-0.0084163
-0.00325793
0.00187782
0.0120362
0.0172172
0.0173982
0.0175792
0.0327602
0.0479412
0.0580995
0.0682353
0.0733937
0.0785746
0.0887104
0.0988009
0.113869
0.128914
0.138937
0.153824
0.16862
0.183394
0.1981
0.212805
0.232534
0.257172
0.276719
0.296131
0.315407
0.339706
0.36905
0.398529
0.433167
0.462896
0.492715
0.517557
0.542466
0.572489
0.59767
0.61819
0.638982
0.654909
0.67095
0.6769
0.67776
0.658597
0.629434
0.575339
0.521267
0.447104
0.377783
0.298258
0.228575
0.163801
0.108982
0.0591176
0.0142308
-0.0256109
-0.0604299
-0.0802489
-0.100068
-0.119932
-0.134819
-0.139751
-0.144751
-0.149796
-0.154864
-0.159887
-0.16457
-0.168914
-0.172896
-0.166787
-0.161516
-0.162579
-0.166086
-0.177059
-0.190385
-0.194615
-0.197376
-0.20233
-0.202919
-0.195928
-0.188462
-0.190995
-0.193213
-0.189864
-0.18457
-0.177195
-0.157896
-0.1481
-0.140498
-0.13595
-0.135611
-0.137964
-0.141312
-0.144977
-0.143281
-0.140837
-0.152376
-0.163281
-0.163801
-0.16414
-0.159367
-0.154638
-0.154955
-0.155249
-0.160498
-0.165747
-0.181018
-0.186357
-0.181742
-0.177127
-0.172511
-0.167896
-0.173281
-0.178665
-0.179095
-0.179615
-0.185226
-0.190837
-0.186448
-0.182081
-0.187738
-0.193484
-0.189299
-0.185181
-0.181154
-0.177195
-0.173303
-0.144502
-0.120792
-0.112149
-0.103597
-0.110136
-0.116719
-0.0983258
-0.0749322
-0.0415385
-0.0130996
-0.0196154
-0.0310634
-0.0524208
-0.0686652
-0.0647286
-0.0604977
-0.0559955
-0.061086
-0.0857466
-0.119955
-0.168733
-0.202059
-0.209955
-0.212511
-0.204751
-0.196787
-0.198643
-0.200407
-0.197195
-0.19414
-0.186267
-0.178665
-0.176312
-0.174253
-0.177466
-0.180973
-0.174728
-0.168688
-0.167828
-0.167149
-0.166629
-0.166176
-0.155814
-0.155588
-0.155452
-0.145339
-0.135249
-0.130158
-0.135068
-0.205023
-0.280023
-0.360045
-0.38009
-0.195113
0.0998869
0.654887
1.20489
1.72991
1.93486
1.6148
0.994751
-0.0202941
-0.655339
-0.885362
-0.945362
-0.850385
-0.67043
-0.435475
-0.27552
-0.165566
-0.10552
-0.0704298
-0.0553394
-0.0602489
-0.0602036
-0.0502036
-0.0401583
-0.0300678
-0.0199547
-0.009819
-0.00470587
0.000384644
0.00547511
0.00556561
0.0256787
0.0358145
0.0359502
0.036086
0.0412217
0.0463348
0.0613348
0.0762896
0.0862669
0.0962669
0.101312
0.106403
0.116471
0.131516
0.151561
0.171448
0.186199
0.20086
0.215475
0.23009
0.254661
0.274163
0.29862
0.327964
0.357217
0.386448
0.415679
0.450136
0.479774
0.514502
0.549299
0.573982
0.598597
0.623394
0.643484
0.653982
0.664774
0.675588
0.68638
0.692104
0.687783
0.653484
0.624186
0.559864
0.490498
0.421041
0.351448
0.271629
0.196674
0.136719
0.0817647
0.0418099
0.0018552
-0.0381448
-0.0631901
-0.0832353
-0.0983258
-0.113439
-0.128529
-0.14362
-0.153733
-0.153891
-0.154095
-0.159253
-0.164027
-0.163484
-0.162624
-0.166833
-0.167172
-0.159118
-0.158846
-0.166041
-0.175136
-0.189163
-0.200181
-0.197805
-0.19181
-0.189005
-0.186244
-0.183688
-0.180837
-0.177489
-0.17267
-0.176041
-0.157534
-0.138348
-0.130747
-0.126018
-0.125928
-0.128733
-0.132579
-0.136719
-0.140475
-0.143439
-0.145362
-0.146584
-0.157308
-0.167783
-0.168167
-0.168507
-0.158891
-0.149344
-0.159819
-0.170272
-0.170701
-0.171109
-0.176493
-0.181923
-0.182398
-0.182896
-0.183439
-0.183937
-0.184434
-0.184977
-0.190588
-0.191244
-0.181946
-0.177647
-0.178348
-0.179118
-0.18491
-0.190747
-0.191674
-0.192692
-0.193778
-0.15991
-0.136109
-0.122376
-0.10871
-0.105113
-0.101584
-0.0930769
-0.0795928
-0.051086
-0.027534
-0.0189367
-0.0152263
-0.0364027
-0.0524435
-0.0633484
-0.0689367
-0.0492534
-0.0391629
-0.0586425
-0.0976923
-0.151335
-0.184638
-0.192624
-0.195294
-0.197647
-0.199774
-0.196719
-0.188665
-0.175611
-0.167738
-0.17009
-0.172715
-0.170588
-0.173756
-0.182217
-0.18595
-0.179932
-0.174095
-0.168439
-0.162964
-0.162602
-0.15233
-0.142127
-0.141968
-0.141855
-0.136787
-0.131742
-0.126719
-0.131719
-0.211742
-0.281787
-0.351855
-0.336946
-0.0870814
0.27776
0.892647
1.43756
1.86747
1.86238
1.20226
0.447127
-0.422986
-0.898077
-0.968167
-0.943258
-0.823348
-0.638416
-0.408462
-0.258529
-0.148665
-0.0937557
-0.0638009
-0.0488462
-0.0388914
-0.033914
-0.033914
-0.0288914
-0.0188461
-0.0138009
-0.00875565
-0.0037104
-0.00366515
0.00133485
0.0162896
0.0212444
0.0261991
0.0411991
0.0562444
0.0612443
0.0661991
0.0711539
0.0761086
0.0910407
0.10595
0.115837
0.125701
0.135588
0.145407
0.155091
0.169706
0.184231
0.198733
0.213258
0.227805
0.252353
0.266742
0.280996
0.305158
0.334253
0.363416
0.392647
0.427081
0.456652
0.486222
0.515837
0.545543
0.575385
0.600453
0.620747
0.64129
0.662014
0.667783
0.673575
0.679276
0.67991
0.645498
0.621063
0.556719
0.487421
0.418032
0.348462
0.283643
0.223665
0.163665
0.103665
0.0586199
0.0135294
-0.0215611
-0.0516289
-0.0766516
-0.0967194
-0.106833
-0.121968
-0.137104
-0.147262
-0.147443
-0.147353
-0.146946
-0.146063
-0.144977
-0.144638
-0.145543
-0.148891
-0.159751
-0.173348
-0.188371
-0.202534
-0.204186
-0.201041
-0.199638
-0.197014
-0.189095
-0.18181
-0.175271
-0.168778
-0.166403
-0.161719
-0.154842
-0.146154
-0.137534
-0.131878
-0.129638
-0.13138
-0.135294
-0.139525
-0.143643
-0.15224
-0.160023
-0.156787
-0.152919
-0.153597
-0.154095
-0.154502
-0.154864
-0.160204
-0.165543
-0.170905
-0.17629
-0.176674
-0.177081
-0.177511
-0.177941
-0.178394
-0.178891
-0.179389
-0.179955
-0.180566
-0.181176
-0.181765
-0.182376
-0.183032
-0.183756
-0.18457
-0.185407
-0.181267
-0.177195
-0.183213
-0.169299
-0.140475
-0.126765
-0.113145
-0.109638
-0.106222
-0.107896
-0.109615
-0.0763122
-0.0530091
-0.0397059
-0.0263575
-0.0429412
-0.0594118
-0.070724
-0.0767421
-0.0624661
-0.0578054
-0.0727602
-0.0972398
-0.136267
-0.169864
-0.193054
-0.20586
-0.203326
-0.200588
-0.197647
-0.194525
-0.191244
-0.187986
-0.184706
-0.181652
-0.178869
-0.176357
-0.174118
-0.172172
-0.175498
-0.179095
-0.172964
-0.167014
-0.166244
-0.165656
-0.165226
-0.149887
-0.144615
-0.144389
-0.144231
-0.144118
-0.149027
-0.213937
-0.278846
-0.378778
-0.418733
-0.24871
0.0262897
0.57629
1.14129
1.74627
2.0612
1.87609
1.32595
0.270837
-0.454253
-0.804344
-0.939434
-0.869502
-0.689548
-0.42957
-0.259593
-0.154638
-0.0946606
-0.0646606
-0.0546833
-0.0597285
-0.0597511
-0.0497511
-0.0447285
-0.0446833
-0.044638
-0.0395928
-0.0345702
-0.0295701
-0.0195475
-0.00950227
0.00554297
0.0155882
0.0206561
0.0257466
0.0307919
0.0357919
0.0457692
0.055724
0.0657014
0.0757014
0.0806787
0.0856335
0.100566
0.115407
0.135158
0.149796
0.164344
0.173914
0.183507
0.198054
0.217557
0.241923
0.261154
0.280339
0.304502
0.333756
0.358054
0.387466
0.422036
0.456584
0.496154
0.530837
0.565701
0.590792
0.611041
0.626539
0.642217
0.657941
0.67371
0.679412
0.675045
0.645634
0.611199
0.556833
0.502489
0.428077
0.358552
0.288846
0.218982
0.154005
0.0989593
0.058914
0.0188688
-0.0161991
-0.0512896
-0.0813801
-0.111471
-0.126561
-0.136697
-0.146878
-0.157081
-0.157285
-0.157081
-0.156516
-0.155611
-0.159547
-0.164389
-0.160588
-0.159502
-0.171041
-0.184955
-0.19509
-0.20414
-0.215724
-0.222738
-0.221516
-0.21905
-0.211222
-0.204186
-0.1981
-0.192398
-0.191199
-0.187986
-0.182466
-0.169321
-0.154796
-0.146109
-0.139909
-0.138484
-0.140362
-0.143869
-0.148009
-0.151855
-0.154932
-0.151878
-0.148077
-0.153824
-0.159321
-0.154683
-0.15009
-0.155566
-0.161063
-0.166538
-0.172014
-0.172511
-0.173077
-0.173688
-0.174321
-0.174977
-0.175633
-0.17629
-0.176923
-0.182579
-0.188303
-0.184072
-0.179864
-0.180701
-0.181584
-0.187511
-0.193507
-0.189547
-0.185679
-0.181946
-0.163303
-0.144751
-0.121267
-0.102873
-0.109547
-0.116312
-0.108167
-0.100068
-0.0719909
-0.0438914
-0.0357692
-0.0276018
-0.0443665
-0.0610181
-0.0725566
-0.0788914
-0.0599774
-0.0505882
-0.070724
-0.105385
-0.154548
-0.188281
-0.206606
-0.219525
-0.212081
-0.204367
-0.20138
-0.198213
-0.19491
-0.191652
-0.188484
-0.18552
-0.18276
-0.180294
-0.1781
-0.176199
-0.174593
-0.173281
-0.172217
-0.171335
-0.165634
-0.160091
-0.159706
-0.159434
-0.159276
-0.149186
-0.13914
-0.13414
-0.134186
-0.224231
-0.309276
-0.389321
-0.419367
-0.214434
0.0854751
0.685385
1.26529
1.80518
2.08
1.83973
1.29443
0.284095
-0.436267
-0.776629
-0.921991
-0.84733
-0.677647
-0.422941
-0.258213
-0.153484
-0.0987557
-0.0740272
-0.0642534
-0.0644344
-0.064638
-0.0648643
-0.0601131
-0.0503846
-0.0456335
-0.0408597
-0.0310633
-0.0212443
-0.0164027
-0.0115384
-0.00669681
-0.00687781
0.0129638
0.0228281
0.0276923
0.0325566
0.0374208
0.0422851
0.0571267
0.0719457
0.0817873
0.0916516
0.101493
0.111312
0.121131
0.13595
0.155747
0.170475
0.180181
0.194796
0.214299
0.233756
0.258145
0.277534
0.301968
0.336335
0.370611
0.404864
0.439118
0.473507
0.503032
0.532602
0.562195
0.586787
0.61138
0.631154
0.646154
0.656358
0.666765
0.672285
0.672828
0.658348
0.638869
0.569457
0.505068
0.435588
0.36095
0.291063
0.220995
0.14586
0.0806787
0.035543
-0.00954752
-0.0446154
-0.0796607
-0.0997285
-0.114819
-0.124932
-0.135091
-0.145272
-0.15543
-0.160566
-0.165724
-0.165905
-0.166131
-0.16638
-0.166493
-0.166357
-0.165656
-0.16957
-0.173665
-0.173507
-0.175317
-0.17948
-0.186652
-0.195905
-0.206267
-0.215543
-0.221086
-0.223303
-0.221765
-0.212511
-0.200407
-0.191154
-0.170385
-0.139163
-0.124774
-0.113258
-0.111584
-0.113235
-0.116448
-0.120339
-0.123914
-0.126742
-0.128439
-0.129412
-0.129932
-0.130249
-0.135498
-0.140724
-0.13595
-0.131222
-0.126538
-0.121878
-0.127217
-0.132557
-0.137896
-0.143213
-0.143507
-0.143801
-0.144095
-0.144434
-0.144842
-0.145181
-0.150498
-0.155837
-0.161222
-0.166652
-0.162127
-0.157624
-0.163145
-0.168733
-0.164344
-0.159955
-0.160588
-0.161267
-0.161991
-0.15276
-0.14362
-0.11957
-0.0955656
-0.0865837
-0.0776697
-0.0838009
-0.0899774
-0.0711991
-0.0473756
-0.0235068
-0.00452491
-0.0104299
-0.0212217
-0.0368552
-0.0473982
-0.0377602
-0.0278054
-0.0375113
-0.05681
-0.0907014
-0.124231
-0.162398
-0.180204
-0.182715
-0.185
-0.177127
-0.169389
-0.166765
-0.164321
-0.157104
-0.150136
-0.153439
-0.157036
-0.160882
-0.164864
-0.169027
-0.173348
-0.167828
-0.162376
-0.156968
-0.146606
-0.14129
-0.146018
-0.150792
-0.145588
-0.140407
-0.130226
-0.125045
-0.154864
-0.204683
-0.324525
-0.409389
-0.369253
-0.20414
0.240928
0.770973
1.44102
1.90106
2.05611
1.73118
0.826267
0.0613575
-0.563552
-0.863484
-0.893416
-0.788303
-0.583167
-0.408009
-0.242783
-0.152534
-0.0922624
-0.0769683
-0.0716516
-0.0663122
-0.0609502
-0.0555882
-0.0502262
-0.0448643
-0.0395023
-0.0291403
-0.0187783
-0.0134163
-0.0130543
-0.0026697
0.00773754
0.0181674
0.0286199
0.0340271
0.0393891
0.0447511
0.0501131
0.0554525
0.0607692
0.0761086
0.0914706
0.0968326
0.102195
0.112489
0.127715
0.142873
0.157941
0.177964
0.197941
0.222828
0.237692
0.247579
0.262421
0.282172
0.306787
0.33629
0.370815
0.400385
0.425181
0.450181
0.485181
0.520181
0.550158
0.585136
0.610272
0.635701
0.646516
0.657557
0.668597
0.664615
0.675566
0.666471
0.622421
0.573416
0.504367
0.430226
0.360928
0.291471
0.216833
0.152104
0.0873529
0.0325792
-0.00719457
-0.0469683
-0.0767421
-0.101516
-0.116267
-0.125995
-0.135747
-0.145543
-0.160385
-0.165294
-0.165272
-0.165272
-0.170181
-0.174729
-0.173891
-0.172692
-0.171516
-0.171177
-0.172285
-0.175792
-0.181697
-0.189977
-0.198914
-0.206629
-0.206606
-0.202647
-0.206448
-0.203846
-0.190204
-0.179842
-0.172783
-0.163597
-0.153077
-0.147557
-0.143891
-0.139593
-0.138824
-0.135905
-0.134367
-0.142986
-0.151154
-0.148416
-0.144932
-0.145747
-0.146176
-0.151335
-0.156448
-0.161561
-0.166697
-0.166855
-0.167059
-0.167308
-0.167534
-0.167738
-0.167919
-0.173077
-0.178281
-0.178552
-0.178801
-0.179027
-0.179253
-0.174502
-0.169796
-0.175113
-0.180453
-0.17586
-0.171335
-0.176878
-0.182443
-0.183032
-0.183688
-0.174434
-0.165294
-0.156222
-0.142217
-0.128281
-0.114389
-0.100543
-0.101719
-0.102986
-0.0893439
-0.0707693
-0.0422398
-0.0186425
-0.0149548
-0.0161539
-0.0422851
-0.0633032
-0.0542082
-0.0447738
-0.0449774
-0.0497285
-0.0639819
-0.102715
-0.16095
-0.188801
-0.19129
-0.193507
-0.19052
-0.187308
-0.183959
-0.180679
-0.177511
-0.174593
-0.171946
-0.169547
-0.167421
-0.165633
-0.16414
-0.162919
-0.156923
-0.151086
-0.150407
-0.149864
-0.149434
-0.14905
-0.148688
-0.143394
-0.138167
-0.128032
-0.117941
-0.117828
-0.132692
-0.207579
-0.287489
-0.357421
-0.347376
-0.16733
0.147692
0.682692
1.21769
1.75269
1.90272
1.60276
0.947783
-0.0421945
-0.622149
-0.892127
-0.957127
-0.892104
-0.737014
-0.536878
-0.371765
-0.216674
-0.131584
-0.0714932
-0.0564027
-0.0513122
-0.0461765
-0.0409955
-0.0358371
-0.0307014
-0.020543
-0.010362
-0.00518102
-0.00500003
0.000158325
0.00529408
0.0154072
0.0254977
0.0405882
0.0556787
0.0557691
0.0558596
0.0609728
0.0661085
0.081199
0.0962443
0.10129
0.106312
0.116312
0.13129
0.146267
0.156154
0.165905
0.185566
0.205181
0.224842
0.244502
0.264095
0.283597
0.307919
0.342149
0.371425
0.400769
0.430294
0.459977
0.489729
0.519525
0.554231
0.583891
0.613688
0.643756
0.654253
0.665
0.675837
0.691719
0.692489
0.693145
0.653801
0.60948
0.540181
0.465882
0.376516
0.291968
0.217149
0.147195
0.0972172
0.0472172
0.00721723
-0.0327828
-0.0627828
-0.0878054
-0.102851
-0.117919
-0.133009
-0.1431
-0.14319
-0.143303
-0.148439
-0.153597
-0.158665
-0.163348
-0.16267
-0.161674
-0.165724
-0.170611
-0.167036
-0.166041
-0.167579
-0.171493
-0.186086
-0.199548
-0.205045
-0.206154
-0.199864
-0.192557
-0.189932
-0.1819
-0.173258
-0.168213
-0.161425
-0.157783
-0.153756
-0.14129
-0.131833
-0.131855
-0.134502
-0.133394
-0.132602
-0.146538
-0.159796
-0.157149
-0.153869
-0.159955
-0.165656
-0.166086
-0.166471
-0.171855
-0.17724
-0.177624
-0.178032
-0.178462
-0.178914
-0.179389
-0.179842
-0.180317
-0.18086
-0.181448
-0.182014
-0.182557
-0.183077
-0.183597
-0.184186
-0.189864
-0.195634
-0.191471
-0.187308
-0.18819
-0.184163
-0.180204
-0.17629
-0.172443
-0.148665
-0.125
-0.111448
-0.0979412
-0.104457
-0.111018
-0.102624
-0.0842534
-0.045905
-0.0175113
-0.0190271
-0.0254977
-0.0519004
-0.0731221
-0.0741629
-0.0699547
-0.0504751
-0.0405429
-0.0551583
-0.0943212
-0.158009
-0.186335
-0.199321
-0.206991
-0.204367
-0.196561
-0.183575
-0.175611
-0.177692
-0.179977
-0.177534
-0.175452
-0.17371
-0.172285
-0.171154
-0.170226
-0.169502
-0.168937
-0.168529
-0.163258
-0.1581
-0.153009
-0.147986
-0.148032
-0.148122
-0.143213
-0.138303
-0.133439
-0.14862
-0.228823
-0.30905
-0.379253
-0.369434
-0.184593
0.155204
0.73
1.29477
1.82952
1.9893
1.73905
1.06878
0.0235069
-0.586787
-0.882081
-0.942353
-0.852624
-0.672873
-0.4481
-0.298303
-0.173484
-0.10871
-0.0639819
-0.0542081
-0.0543891
-0.0545475
-0.0496832
-0.0447964
-0.0398869
-0.0350226
-0.0352036
-0.010362
0.00450227
0.00436653
0.00423078
0.00911766
0.0140272
0.0188914
0.0237104
0.0335294
0.0433484
0.0581674
0.0729864
0.0728054
0.0776244
0.0974434
0.112262
0.117081
0.121878
0.131652
0.146448
0.161267
0.181018
0.205679
0.225181
0.239615
0.264005
0.288326
0.307715
0.327149
0.356493
0.385747
0.419977
0.454253
0.48362
0.5081
0.53767
0.56724
0.591787
0.61638
0.631176
0.646199
0.666335
0.681629
0.672036
0.662443
0.637873
0.608348
0.543891
0.474457
0.404955
0.330271
0.260294
0.195181
0.135
0.0847737
0.0445249
0.00429863
-0.0308597
-0.0659955
-0.0911539
-0.106357
-0.116584
-0.126833
-0.132104
-0.137376
-0.142647
-0.147919
-0.15319
-0.158507
-0.158869
-0.159186
-0.159299
-0.158891
-0.158122
-0.15724
-0.156946
-0.158077
-0.156516
-0.158122
-0.167036
-0.17776
-0.192489
-0.204208
-0.217398
-0.211199
-0.202014
-0.184774
-0.165362
-0.154253
-0.143303
-0.134389
-0.128959
-0.12362
-0.121131
-0.125045
-0.129253
-0.133032
-0.135973
-0.142941
-0.149276
-0.14509
-0.140633
-0.145995
-0.151335
-0.156697
-0.162104
-0.162534
-0.162964
-0.163394
-0.163846
-0.164344
-0.164751
-0.170113
-0.175498
-0.180905
-0.186335
-0.18181
-0.17733
-0.177873
-0.178439
-0.179005
-0.179547
-0.180068
-0.180656
-0.181312
-0.181968
-0.182647
-0.178371
-0.17414
-0.179977
-0.18586
-0.17181
-0.157805
-0.128846
-0.109955
-0.0961538
-0.0823755
-0.0936199
-0.0999321
-0.0760181
-0.0523756
-0.0236878
-0.00993212
-0.0161086
-0.0271719
-0.0531448
-0.0589366
-0.0445475
-0.0349095
-0.04
-0.0597285
-0.0840724
-0.122964
-0.171425
-0.189638
-0.192602
-0.195362
-0.188009
-0.180724
-0.178575
-0.176539
-0.174729
-0.173167
-0.171855
-0.170792
-0.164932
-0.164231
-0.168688
-0.168281
-0.168009
-0.162851
-0.15776
-0.152715
-0.147715
-0.147715
-0.147715
-0.147738
-0.147783
-0.137873
-0.128009
-0.133145
-0.173281
-0.283416
-0.358529
-0.38362
-0.253733
0.0661312
0.580995
1.28588
1.78077
2.10063
1.8005
1.06534
0.295158
-0.490068
-0.810272
-0.910453
-0.825588
-0.665679
-0.470747
-0.270792
-0.17086
-0.0909502
-0.0710181
-0.0560633
-0.051086
-0.056086
-0.0610633
-0.0510181
-0.0409955
-0.0309955
-0.0259955
-0.0209955
-0.0159955
-0.0109955
-0.00101809
0.00893666
0.0138914
0.0188462
0.0288009
0.0387557
0.043733
0.0487331
0.0537104
0.0586199
0.0684616
0.0833032
0.0981901
0.108077
0.122941
0.132828
0.142738
0.152624
0.167466
0.187217
0.206878
0.226448
0.24095
0.255475
0.280023
0.304525
0.333937
0.363281
0.397579
0.431946
0.466403
0.496018
0.525747
0.560453
0.530136
0.619864
0.639706
0.659774
0.680091
0.685588
0.691176
0.681742
0.672308
0.642964
0.608665
0.544299
0.474819
0.395249
0.31552
0.250566
0.18552
0.115453
0.060362
0.0102941
-0.0297285
-0.0747285
-0.0997511
-0.114796
-0.124864
-0.129955
-0.135045
-0.140113
-0.145204
-0.150339
-0.155498
-0.155679
-0.15586
-0.155928
-0.155679
-0.160023
-0.163937
-0.163054
-0.162986
-0.159819
-0.159344
-0.166357
-0.175814
-0.18543
-0.199186
-0.209774
-0.206041
-0.199638
-0.195498
-0.188959
-0.174525
-0.158801
-0.147715
-0.138507
-0.133054
-0.131222
-0.133054
-0.13638
-0.140181
-0.143597
-0.15129
-0.158145
-0.15414
-0.149706
-0.149932
-0.15009
-0.155204
-0.160317
-0.165475
-0.170679
-0.17086
-0.171086
-0.166312
-0.161538
-0.166765
-0.171991
-0.172217
-0.172443
-0.172692
-0.172986
-0.173326
-0.173665
-0.179005
-0.184367
-0.184774
-0.175249
-0.165769
-0.17129
-0.17681
-0.17233
-0.167896
-0.173484
-0.179118
-0.174796
-0.165566
-0.146403
-0.127285
-0.108213
-0.0941855
-0.0952489
-0.0964027
-0.0926018
-0.0788235
-0.0500452
-0.0262217
-0.0123303
-0.0133258
-0.0342081
-0.0449774
-0.0506335
-0.0510634
-0.0365159
-0.0363575
-0.0558371
-0.0948417
-0.138416
-0.166652
-0.184548
-0.187172
-0.18957
-0.186855
-0.174095
-0.166471
-0.169005
-0.171765
-0.169796
-0.168054
-0.166539
-0.165294
-0.164253
-0.168394
-0.172692
-0.167217
-0.161878
-0.156606
-0.15138
-0.151154
-0.150928
-0.145701
-0.140475
-0.135272
-0.130136
-0.125
-0.144864
-0.209729
-0.29457
-0.389412
-0.344299
-0.164208
0.255882
0.860996
1.42113
1.95627
1.9514
1.65154
0.876652
-0.103258
-0.563167
-0.848077
-0.862964
-0.797828
-0.58767
-0.347489
-0.23233
-0.137195
-0.107036
-0.0818552
-0.0716742
-0.0664932
-0.0663122
-0.0661312
-0.0559502
-0.0457692
-0.0405656
-0.0353394
-0.0300905
-0.024819
-0.0195702
-0.0143439
-0.00914029
-0.00395929
0.0161991
0.0263348
0.0314932
0.0366968
0.0419005
0.0470815
0.0572625
0.0724208
0.0875566
0.102715
0.112896
0.123077
0.133235
0.148348
0.168439
0.183575
0.193756
0.208869
0.223891
0.243846
0.263733
0.283529
0.303258
0.333032
0.362851
0.392692
0.422511
0.452285
0.487059
0.521833
0.556652
0.586561
0.616561
0.636674
0.656878
0.667149
0.677511
0.682896
0.688439
0.674208
0.650023
0.60595
0.5469
0.46276
0.388394
0.318778
0.249027
0.179186
0.119344
0.0645023
0.0196606
-0.0151358
-0.0499095
-0.0797059
-0.0995249
-0.114344
-0.129163
-0.138982
-0.148824
-0.158688
-0.163597
-0.158552
-0.153507
-0.153462
-0.153462
-0.158416
-0.163258
-0.167715
-0.171606
-0.170317
-0.159118
-0.159163
-0.161018
-0.165701
-0.178778
-0.193643
-0.199819
-0.203009
-0.206719
-0.205271
-0.197896
-0.187398
-0.174186
-0.161674
-0.149819
-0.143801
-0.1381
-0.134819
-0.143122
-0.151561
-0.154774
-0.157036
-0.153213
-0.148891
-0.154163
-0.159321
-0.159389
-0.159457
-0.159548
-0.159638
-0.164751
-0.169887
-0.170023
-0.170136
-0.175226
-0.180317
-0.18043
-0.180588
-0.180769
-0.180928
-0.176086
-0.171199
-0.171312
-0.176448
-0.181629
-0.181878
-0.182195
-0.177534
-0.172851
-0.178145
-0.183439
-0.183756
-0.18414
-0.179593
-0.175091
-0.175611
-0.176199
-0.166855
-0.152557
-0.133303
-0.114118
-0.1
-0.0909276
-0.0969231
-0.0979186
-0.083914
-0.0598869
-0.0308145
-0.0166742
-0.0174435
-0.0281448
-0.0437105
-0.0490724
-0.0441856
-0.0390272
-0.0385521
-0.0577828
-0.0816742
-0.125181
-0.178326
-0.186199
-0.193869
-0.196471
-0.194118
-0.181923
-0.169932
-0.168145
-0.166561
-0.170181
-0.174005
-0.173032
-0.17224
-0.171584
-0.171063
-0.170679
-0.170385
-0.170136
-0.169932
-0.164729
-0.15957
-0.154457
-0.149344
-0.144186
-0.139027
-0.123891
-0.128756
-0.153643
-0.238552
-0.358484
-0.393439
-0.368394
-0.0883258
0.316719
0.921787
1.60688
1.91692
2.11192
1.49692
0.686923
-0.033077
-0.738077
-0.868054
-0.933009
-0.782964
-0.937919
-0.422873
-0.227828
-0.152738
-0.0876019
-0.0725114
-0.0574661
-0.0573982
-0.0573304
-0.0522851
-0.0472399
-0.0422172
-0.0372172
-0.0272172
-0.0172172
-0.0172172
-0.0122398
0.0026923
0.0126244
0.0125792
0.0125566
0.0175339
0.0274661
0.0423756
0.0522851
0.0521946
0.0571041
0.0670362
0.0769909
0.0869457
0.101855
0.121719
0.141538
0.15629
0.165973
0.175588
0.190113
0.20457
0.22905
0.253507
0.277851
0.302104
0.331244
0.355362
0.37957
0.403914
0.438416
0.472986
0.502557
0.537149
0.566742
0.596493
0.621516
0.641833
0.657466
0.67319
0.693914
0.699615
0.685272
0.660905
0.621561
0.572217
0.517851
0.453394
0.373824
0.29905
0.224027
0.153982
0.0939141
0.0438236
-0.00626694
-0.0363348
-0.0613801
-0.0864479
-0.111538
-0.126652
-0.136787
-0.141946
-0.147127
-0.152308
-0.152421
-0.152398
-0.157036
-0.161176
-0.170317
-0.169729
-0.170679
-0.178733
-0.189548
-0.193348
-0.197443
-0.205973
-0.210475
-0.210294
-0.208462
-0.20552
-0.202873
-0.195407
-0.18767
-0.189118
-0.188552
-0.175566
-0.161357
-0.146448
-0.134366
-0.130995
-0.130928
-0.139095
-0.147873
-0.151968
-0.15543
-0.159638
-0.161538
-0.167579
-0.173281
-0.168688
-0.164072
-0.169434
-0.169842
-0.160294
-0.155792
-0.15629
-0.156787
-0.157308
-0.157828
-0.158348
-0.153914
-0.149502
-0.155068
-0.160656
-0.166312
-0.172036
-0.167805
-0.16362
-0.164457
-0.165294
-0.166176
-0.167127
-0.168122
-0.169208
-0.165136
-0.161403
-0.152715
-0.139072
-0.120498
-0.102014
-0.0886426
-0.080362
-0.087172
-0.0840045
-0.0558371
-0.0326244
-0.00936652
-0.00601811
-0.0176018
-0.034095
-0.0504751
-0.0466063
-0.0324208
-0.0278281
-0.0327828
-0.0672624
-0.111267
-0.149796
-0.187919
-0.190679
-0.1881
-0.190204
-0.192081
-0.188846
-0.185566
-0.17733
-0.169253
-0.16638
-0.163733
-0.16138
-0.159321
-0.162557
-0.166086
-0.16491
-0.163982
-0.158281
-0.152692
-0.147195
-0.14181
-0.141538
-0.141335
-0.136176
-0.131063
-0.130995
-0.14595
-0.175905
-0.25086
-0.360837
-0.360837
-0.295882
0.0490724
0.519027
1.13396
1.79887
1.8688
1.75876
0.86371
-0.196335
-0.64638
-1.01143
-0.981493
-0.916584
-0.696629
-0.471629
-0.311674
-0.161765
-0.12181
-0.0818099
-0.0717873
-0.061742
-0.0516968
-0.0416515
-0.0366289
-0.0316289
-0.0216289
-0.0116289
-0.0066063
-0.00156105
-0.00153843
-0.00153843
0.0084842
0.0185294
0.0285521
0.0385747
0.0536425
0.0587557
0.0638914
0.0740045
0.084095
0.0941855
0.104276
0.114389
0.124502
0.139525
0.154434
0.169208
0.183869
0.203484
0.223077
0.232738
0.242376
0.261923
0.281335
0.310588
0.284796
0.374072
0.403462
0.433009
0.462624
0.492262
0.526968
0.561765
0.596719
0.62681
0.652104
0.667715
0.683462
0.694344
0.705272
0.711154
0.711923
0.692625
0.658348
0.59914
0.534977
0.460814
0.386471
0.3069
0.237149
0.172217
0.112262
0.0623077
0.0173303
-0.0226697
-0.0576923
-0.0877375
-0.102783
-0.112828
-0.127873
-0.142919
-0.153032
-0.163077
-0.167964
-0.162489
-0.156493
-0.155633
-0.160385
-0.167149
-0.171674
-0.178801
-0.188462
-0.198213
-0.202172
-0.202285
-0.202783
-0.201109
-0.19776
-0.194706
-0.19233
-0.190837
-0.189977
-0.188281
-0.185158
-0.179502
-0.171086
-0.162376
-0.154186
-0.150045
-0.150701
-0.153439
-0.152873
-0.152172
-0.161176
-0.169253
-0.16638
-0.162805
-0.168575
-0.174186
-0.174638
-0.175068
-0.175475
-0.175882
-0.176312
-0.176765
-0.177217
-0.177647
-0.183077
-0.188529
-0.189005
-0.18957
-0.190181
-0.190792
-0.191425
-0.192081
-0.19276
-0.198439
-0.204163
-0.199932
-0.195747
-0.196606
-0.197534
-0.198529
-0.194593
-0.180747
-0.162014
-0.138394
-0.119842
-0.106357
-0.0979864
-0.114683
-0.111448
-0.0932806
-0.0650905
-0.0318778
-0.0235973
-0.0354977
-0.0569683
-0.0832579
-0.0843213
-0.0700905
-0.0654751
-0.0704299
-0.0949095
-0.128914
-0.167443
-0.20552
-0.208235
-0.210634
-0.212738
-0.209638
-0.19638
-0.192964
-0.189502
-0.186109
-0.187873
-0.18991
-0.182262
-0.174932
-0.172941
-0.171244
-0.169819
-0.168643
-0.167692
-0.166946
-0.16138
-0.155973
-0.150701
-0.145498
-0.145339
-0.145249
-0.130226
-0.145249
-0.185317
-0.27043
-0.385543
-0.355634
-0.215724
0.234163
0.849027
1.42889
1.98876
2.0086
1.83842
0.993258
-0.0268779
-0.522014
-0.922149
-0.932308
-0.892489
-0.69767
-0.492851
-0.333032
-0.178213
-0.123394
-0.0685747
-0.0637557
-0.0589366
-0.059095
-0.0592307
-0.0493665
-0.0395022
-0.0395927
-0.039638
-0.0247059
-0.00979636
-0.00486423
9.05246e-05
0.00502266
0.00995477
0.0149095
0.0198416
0.0297511
0.0446606
0.0545701
0.0594796
0.0643891
0.0742987
0.0841855
0.0939819
0.113688
0.123281
0.132783
0.147262
0.161719
0.176199
0.190656
0.204955
0.219095
0.238167
0.25724
0.281357
0.305543
0.329819
0.359118
0.398394
0.437715
0.467172
0.496855
0.541765
0.576923
0.602217
0.627579
0.643054
0.658688
0.674457
0.690249
0.685973
0.676584
0.657081
0.622579
0.568145
0.508733
0.439299
0.369774
0.295113
0.220271
0.155249
0.100204
0.0451357
0.00999998
-0.020181
-0.0553168
-0.0854525
-0.105611
-0.130792
-0.136041
-0.141312
-0.146425
-0.151176
-0.155407
-0.159457
-0.163733
-0.164344
-0.167104
-0.172624
-0.181244
-0.191086
-0.201222
-0.208326
-0.211086
-0.210814
-0.207851
-0.204434
-0.196154
-0.189118
-0.188643
-0.188756
-0.188937
-0.187376
-0.182783
-0.176131
-0.161968
-0.147738
-0.139299
-0.134683
-0.134683
-0.136968
-0.136109
-0.135317
-0.139367
-0.142534
-0.144774
-0.146335
-0.14724
-0.147919
-0.148371
-0.148846
-0.154344
-0.159864
-0.160407
-0.160973
-0.166538
-0.172172
-0.172873
-0.173552
-0.174208
-0.174887
-0.175611
-0.18138
-0.187195
-0.183054
-0.178982
-0.179955
-0.18095
-0.181991
-0.1831
-0.184276
-0.185543
-0.1719
-0.153371
-0.12991
-0.111584
-0.108371
-0.105249
-0.112217
-0.109253
-0.0813575
-0.0534842
-0.0356335
-0.0327375
-0.0447964
-0.0617195
-0.0834842
-0.085
-0.0661991
-0.0569683
-0.0622624
-0.0920815
-0.126403
-0.170181
-0.213484
-0.221403
-0.223959
-0.226244
-0.218281
-0.210068
-0.201674
-0.193213
-0.189706
-0.186199
-0.182783
-0.17957
-0.176606
-0.178937
-0.181561
-0.179502
-0.17776
-0.176312
-0.175113
-0.16414
-0.153303
-0.152602
-0.152059
-0.146652
-0.141335
-0.131131
-0.130973
-0.16086
-0.235769
-0.350701
-0.390656
-0.340634
-0.0456335
0.429367
1.03937
1.72937
2.00437
2.07437
1.40937
0.449367
-0.220656
-0.800701
-0.915769
-0.92586
-0.735928
-0.50595
-0.345928
-0.190882
-0.12586
-0.18086
-0.0558597
-0.0508597
-0.0458145
-0.040724
-0.0406108
-0.0404751
-0.030362
-0.0202715
-0.0151584
-0.0100226
-0.00986424
-0.00968324
0.000520371
0.0107466
0.0159728
0.0211538
0.0313348
0.0415158
0.0466742
0.05181
0.0669457
0.0770588
0.0921041
0.106991
0.116765
0.126493
0.136176
0.150882
0.165588
0.180204
0.194729
0.21414
0.233507
0.252851
0.272195
0.291606
0.311063
0.34052
0.369955
0.404412
0.438959
0.478688
0.513688
0.548937
0.584344
0.614819
0.645362
0.666018
0.686787
0.697647
0.708529
0.704389
0.695204
0.665905
0.626584
0.572353
0.508167
0.433959
0.354638
0.280181
0.21052
0.150656
0.095724
0.0507466
0.010724
-0.0292986
-0.0542986
-0.074276
-0.0942534
-0.114253
-0.129299
-0.139299
-0.143982
-0.148303
-0.152195
-0.156222
-0.161109
-0.162873
-0.167557
-0.179796
-0.194276
-0.203416
-0.210475
-0.21405
-0.213371
-0.210747
-0.202195
-0.193778
-0.191018
-0.189525
-0.18957
-0.190317
-0.191244
-0.19095
-0.188575
-0.183462
-0.175249
-0.165814
-0.156109
-0.149457
-0.142195
-0.138009
-0.136493
-0.135498
-0.139548
-0.14776
-0.159955
-0.166448
-0.162262
-0.157828
-0.158688
-0.159027
-0.164389
-0.169774
-0.175181
-0.180611
-0.176063
-0.171516
-0.171991
-0.172511
-0.178077
-0.183688
-0.189344
-0.195023
-0.195769
-0.186606
-0.187489
-0.188371
-0.189276
-0.190271
-0.19138
-0.187579
-0.178869
-0.150249
-0.126742
-0.118371
-0.110113
-0.116968
-0.118869
-0.105611
-0.092647
-0.0647511
-0.0518326
-0.0488914
-0.0508597
-0.0677375
-0.0795022
-0.0811312
-0.0774435
-0.0683937
-0.0688688
-0.0838462
-0.123281
-0.172195
-0.200656
-0.218665
-0.226267
-0.218484
-0.210385
-0.207014
-0.203439
-0.204706
-0.205928
-0.197149
-0.188484
-0.184955
-0.181629
-0.178552
-0.180769
-0.183326
-0.181222
-0.179434
-0.172919
-0.166652
-0.160588
-0.154706
-0.154004
-0.153416
-0.147919
-0.142511
-0.132195
-0.141946
-0.211742
-0.291561
-0.391403
-0.366267
-0.176154
0.238914
0.883959
1.44898
1.95396
1.88894
1.42894
0.658914
-0.276131
-0.701177
-0.896222
-0.866244
-0.751244
-0.546222
-0.321177
-0.206176
-0.116222
-0.0912444
-0.0762217
-0.0711539
-0.0660634
-0.0609955
-0.0509502
-0.0409276
-0.0309276
-0.0208823
-0.0107918
-0.0106787
-0.010543
-0.00538459
-0.000226222
0.00490952
0.0100226
0.0201131
0.0302036
0.0403168
0.0504525
0.0606109
0.070724
0.0757919
0.0808145
0.0908371
0.105769
0.120588
0.135362
0.145068
0.154728
0.169344
0.193914
0.218439
0.232873
0.242195
0.256471
0.280724
0.310045
0.344412
0.373824
0.408303
0.447851
0.487534
0.522353
0.557353
0.582511
0.562783
0.643167
0.673643
0.689276
0.705
0.705747
0.706493
0.702172
0.692805
0.653462
0.604163
0.534932
0.460724
0.381448
0.301991
0.237308
0.172489
0.112579
0.0575792
0.00755657
-0.0324434
-0.0674434
-0.0924661
-0.107534
-0.117647
-0.12276
-0.132828
-0.142783
-0.152421
-0.161742
-0.165747
-0.164909
-0.165023
-0.166833
-0.171357
-0.178303
-0.18733
-0.196493
-0.203959
-0.208077
-0.207602
-0.204751
-0.200928
-0.197081
-0.194005
-0.192195
-0.191946
-0.192285
-0.18733
-0.180724
-0.171358
-0.15948
-0.155317
-0.151493
-0.139819
-0.131652
-0.132738
-0.135792
-0.139751
-0.143597
-0.151946
-0.159412
-0.150905
-0.1419
-0.147511
-0.158054
-0.168575
-0.174072
-0.169548
-0.165068
-0.160611
-0.156131
-0.161652
-0.167195
-0.167738
-0.168326
-0.173982
-0.179683
-0.18543
-0.186222
-0.177059
-0.172896
-0.178778
-0.184729
-0.195747
-0.191878
-0.188077
-0.184367
-0.180792
-0.15733
-0.133937
-0.125611
-0.117376
-0.114276
-0.111267
-0.108326
-0.100362
-0.0723756
-0.0493892
-0.041448
-0.0384616
-0.0553846
-0.0671041
-0.0735747
-0.0797059
-0.0654525
-0.070724
-0.0904977
-0.119751
-0.158484
-0.18181
-0.189932
-0.192421
-0.194502
-0.196312
-0.192873
-0.189321
-0.185679
-0.181968
-0.183235
-0.184615
-0.186199
-0.188077
-0.185249
-0.182738
-0.180566
-0.17871
-0.177172
-0.165882
-0.154819
-0.153982
-0.153326
-0.147851
-0.142511
-0.137217
-0.131946
-0.136719
-0.161561
-0.231425
-0.301312
-0.376244
-0.346267
-0.136312
0.238665
0.843665
1.38369
1.84873
1.88376
1.50876
0.768756
-0.241244
-0.761244
-0.966244
-0.981244
-0.881244
-0.681267
-0.436312
-0.281335
-0.156335
-0.106312
-0.071267
-0.0611765
-0.0610408
-0.0509276
-0.0358371
-0.030724
-0.0255883
-0.0154299
-0.0102489
-0.00504528
0.00018096
0.0103619
0.0204977
0.0256787
0.0309049
0.0411312
0.0513348
0.0514932
0.0516289
0.0667647
0.0819004
0.0870588
0.0972398
0.112398
0.122466
0.132466
0.147376
0.162172
0.176878
0.191493
0.206131
0.215837
0.235475
0.259977
0.284321
0.318507
0.34276
0.367104
0.401561
0.436086
0.465656
0.495294
0.53
0.569842
0.599842
0.630045
0.650475
0.671041
0.686765
0.707624
0.713507
0.719389
0.705204
0.685973
0.641697
0.592376
0.528145
0.458914
0.37957
0.300068
0.235385
0.170588
0.110769
0.0509502
0.00606337
-0.0338688
-0.0588235
-0.0788009
-0.0988009
-0.113801
-0.128824
-0.133914
-0.139072
-0.149186
-0.159118
-0.163529
-0.157579
-0.151584
-0.156109
-0.162285
-0.165747
-0.172511
-0.176538
-0.181448
-0.195045
-0.204932
-0.201312
-0.194389
-0.196086
-0.197919
-0.19552
-0.179367
-0.173959
-0.178462
-0.181697
-0.182443
-0.180837
-0.167172
-0.153371
-0.14629
-0.142602
-0.143529
-0.146833
-0.151041
-0.155339
-0.15414
-0.152217
-0.159231
-0.165588
-0.166425
-0.167036
-0.172489
-0.177919
-0.178371
-0.178824
-0.179253
-0.179683
-0.185113
-0.190543
-0.195996
-0.201471
-0.196991
-0.192534
-0.193077
-0.193643
-0.199253
-0.204887
-0.205566
-0.206335
-0.202195
-0.198077
-0.199005
-0.200023
-0.201109
-0.18724
-0.173484
-0.154842
-0.136267
-0.12276
-0.109344
-0.116018
-0.12276
-0.10457
-0.0814254
-0.0533032
-0.0301358
-0.0418778
-0.0585294
-0.0800679
-0.0913801
-0.0774661
-0.0682353
-0.0736652
-0.0935973
-0.123032
-0.162014
-0.20552
-0.22362
-0.226335
-0.228778
-0.220928
-0.212828
-0.209525
-0.206131
-0.197692
-0.189367
-0.191199
-0.193303
-0.185679
-0.178371
-0.176403
-0.174706
-0.178281
-0.182127
-0.171244
-0.165566
-0.160068
-0.154706
-0.149457
-0.149276
-0.14914
-0.139072
-0.129027
-0.143982
-0.183959
-0.299005
-0.379095
-0.389163
-0.274208
0.100724
0.615611
1.34548
1.84532
2.04516
1.76005
0.944932
0.174774
-0.560385
-0.89052
-0.930679
-0.830882
-0.631109
-0.436244
-0.246335
-0.151448
-0.0965837
-0.0767647
-0.0669909
-0.0621719
-0.0573077
-0.0474434
-0.0375792
-0.0326923
-0.0377828
-0.0328733
-0.0429638
-0.00303169
0.00692307
0.0168778
0.0268326
0.0267647
0.0266742
0.0315611
0.0364253
0.0462896
0.0561538
0.0610181
0.0658823
0.075724
0.085543
0.0953394
0.109955
0.12448
0.133982
0.143439
0.157873
0.172262
0.191606
0.210928
0.230113
0.249231
0.273258
0.297217
0.321244
0.345362
0.379615
0.413959
0.443303
0.472692
0.507217
0.541946
0.571855
0.5969
0.627149
0.657579
0.673167
0.688891
0.694548
0.695113
0.680588
0.666018
0.626493
0.581991
0.507466
0.437851
0.3681
0.293167
0.223009
0.157738
0.112443
0.0671267
0.0168552
-0.0233937
-0.0586652
-0.0889367
-0.109186
-0.124434
-0.129729
-0.140091
-0.15043
-0.155475
-0.160204
-0.164412
-0.163394
-0.162964
-0.16362
-0.166697
-0.167353
-0.170882
-0.186041
-0.200995
-0.20871
-0.211719
-0.216312
-0.218869
-0.210679
-0.2031
-0.201652
-0.201471
-0.201561
-0.195475
-0.18733
-0.176063
-0.162579
-0.15819
-0.155091
-0.145701
-0.139842
-0.142353
-0.146403
-0.145679
-0.144525
-0.152466
-0.159525
-0.160769
-0.161629
-0.157285
-0.152896
-0.158507
-0.164118
-0.164729
-0.165339
-0.17095
-0.176584
-0.177285
-0.177986
-0.178756
-0.179389
-0.185023
-0.190656
-0.186312
-0.182059
-0.182896
-0.183778
-0.184683
-0.185611
-0.186561
-0.187579
-0.188665
-0.189842
-0.191086
-0.157421
-0.133846
-0.125339
-0.116923
-0.113597
-0.110362
-0.107217
-0.10414
-0.0761312
-0.0581674
-0.0352262
-0.0222398
-0.0392082
-0.061086
-0.0778507
-0.0844797
-0.0659276
-0.0570815
-0.0729186
-0.103258
-0.148077
-0.182376
-0.206154
-0.219434
-0.22224
-0.224751
-0.216968
-0.208982
-0.205814
-0.202579
-0.194299
-0.186109
-0.183054
-0.180294
-0.177805
-0.175566
-0.168643
-0.162036
-0.160724
-0.159615
-0.163688
-0.162941
-0.157353
-0.1569
-0.156561
-0.151335
-0.146199
-0.136086
-0.136018
-0.195996
-0.265995
-0.380995
-0.435995
-0.311018
-0.0610633
0.478891
1.05385
1.69382
2.0588
2.01373
1.51864
0.488552
-0.256538
-0.721652
-0.926787
-0.906901
-0.736991
-0.467081
-0.292172
-0.177262
-0.11733
-0.0773756
-0.0674208
-0.0674661
-0.0675113
-0.0625566
-0.0525792
-0.0425792
-0.0325792
-0.0225792
-0.0175339
-0.0174434
-0.0173756
-0.00733032
0.00271492
0.0127602
0.022828
0.0329185
0.0379864
0.0430317
0.0530769
0.0631222
0.0731222
0.0830769
0.0880317
0.0929864
0.102964
0.112964
0.122896
0.137805
0.157738
0.177624
0.192443
0.202172
0.21681
0.231403
0.25095
0.270498
0.300023
0.324457
0.353801
0.388213
0.41767
0.447172
0.476742
0.511403
0.546131
0.58086
0.615588
0.645452
0.670475
0.685747
0.701267
0.706923
0.707579
0.71319
0.708801
0.674502
0.635249
0.560928
0.481471
0.396787
0.306923
0.226946
0.1519
0.101855
0.0518099
0.0117873
-0.0282127
-0.0582127
-0.0832579
-0.103281
-0.118281
-0.128281
-0.138326
-0.153416
-0.158529
-0.158643
-0.158733
-0.158824
-0.163891
-0.173824
-0.178213
-0.182195
-0.186109
-0.180611
-0.17681
-0.180317
-0.186968
-0.19586
-0.206131
-0.220498
-0.231968
-0.230317
-0.224796
-0.221516
-0.215272
-0.206742
-0.191131
-0.174729
-0.164412
-0.156765
-0.154095
-0.154887
-0.157828
-0.161719
-0.16552
-0.168552
-0.170385
-0.171448
-0.171991
-0.172308
-0.167489
-0.162647
-0.167828
-0.173054
-0.173303
-0.173529
-0.173733
-0.173914
-0.179072
-0.184231
-0.184412
-0.184661
-0.184932
-0.185181
-0.185407
-0.185611
-0.185792
-0.185995
-0.186222
-0.186448
-0.181719
-0.177036
-0.177376
-0.177738
-0.183122
-0.188529
-0.179005
-0.179548
-0.180136
-0.165747
-0.15138
-0.132059
-0.112851
-0.103733
-0.0947285
-0.0958145
-0.0919683
-0.0731222
-0.054276
-0.0354072
-0.0214706
-0.0225113
-0.0284842
-0.0443891
-0.055181
-0.0508597
-0.046267
-0.0463801
-0.0611312
-0.0905204
-0.129502
-0.1731
-0.191312
-0.194186
-0.196697
-0.193914
-0.191018
-0.1881
-0.185362
-0.177828
-0.170566
-0.16862
-0.166923
-0.17052
-0.174321
-0.173303
-0.172421
-0.171697
-0.161086
-0.160566
-0.160158
-0.159819
-0.14948
-0.139163
-0.133914
-0.128688
-0.128484
-0.128303
-0.1331
-0.167896
-0.28776
-0.37267
-0.387602
-0.257579
0.122443
0.637511
1.3426
1.83767
2.08272
1.81276
1.05778
0.31276
-0.417262
-0.77724
-0.892195
-0.822149
-0.642104
-0.452036
-0.256946
-0.161855
-0.0917647
-0.0716742
-0.0615837
-0.0564253
-0.0562443
-0.0560633
-0.050905
-0.0457919
-0.0457013
-0.0355882
-0.0254525
-0.0202715
-0.0150453
-0.00484163
0.00533937
0.0105204
0.0157014
0.0208823
0.0260634
0.0312443
0.0364253
0.0515837
0.0667195
0.0718552
0.0770136
0.0821946
0.0873756
0.0975565
0.107692
0.117783
0.137873
0.157986
0.173145
0.183326
0.193507
0.208665
0.233778
0.258914
0.28405
0.309163
0.334276
0.359389
0.394502
0.429638
0.469774
0.50991
0.545023
0.575091
0.600158
0.625204
0.645204
0.670226
0.685339
0.70052
0.710747
0.720882
0.695905
0.665973
0.616131
0.561425
0.48681
0.417149
0.337398
0.262579
0.187738
0.117873
0.058009
0.0130995
-0.0218552
-0.0567873
-0.0816742
-0.101516
-0.126335
-0.136154
-0.140996
-0.15086
-0.160724
-0.165588
-0.170453
-0.175272
-0.170091
-0.169932
-0.179796
-0.184638
-0.184457
-0.184276
-0.179095
-0.173982
-0.178778
-0.183326
-0.17767
-0.172082
-0.172082
-0.167805
-0.164796
-0.172489
-0.180385
-0.17767
-0.172738
-0.170905
-0.166516
-0.156063
-0.1469
-0.149367
-0.153507
-0.153416
-0.153959
-0.15276
-0.153303
-0.15362
-0.153733
-0.153756
-0.153688
-0.168575
-0.173439
-0.173303
-0.16819
-0.158077
-0.152986
-0.157941
-0.162873
-0.167783
-0.172692
-0.172602
-0.172511
-0.172421
-0.172353
-0.172308
-0.172262
-0.17724
-0.182262
-0.17733
-0.172376
-0.172376
-0.177376
-0.182398
-0.182443
-0.182534
-0.172647
-0.162783
-0.162941
-0.163077
-0.16819
-0.173303
-0.173439
-0.17362
-0.168824
-0.164027
-0.164231
-0.15948
-0.144751
-0.130045
-0.110362
-0.0956788
-0.0859955
-0.0763122
-0.0716063
-0.0568778
-0.0371267
-0.0123303
0.0175113
0.0273756
0.0072851
-0.0127149
-0.0376018
-0.0273755
0.00303169
-0.00142531
-0.020724
-0.0649321
-0.11405
-0.143145
-0.16724
-0.171403
-0.170633
-0.169955
-0.169389
-0.158937
-0.148575
-0.15328
-0.158032
-0.162805
-0.167602
-0.167443
-0.167308
-0.167172
-0.167059
-0.167014
-0.167014
-0.167014
-0.166991
-0.161878
-0.156787
-0.151765
-0.146765
-0.141765
-0.136765
-0.121742
-0.141697
-0.201674
-0.281719
-0.386787
-0.34181
-0.19681
0.213213
0.748258
1.30828
1.87828
1.88328
1.70828
0.873303
-0.116652
-0.576606
-0.946561
-0.936516
-0.881471
-0.671448
-0.876448
-0.301425
-0.15638
-0.106357
-0.0563575
-0.0563349
-0.0562896
-0.0563123
-0.0563575
-0.0513801
-0.0463575
-0.0363123
-0.026267
-0.0212218
-0.0161765
-0.0111539
-0.00610864
0.00393659
0.0140045
0.024095
0.0341855
0.039276
0.0493438
0.0643665
0.0793438
0.0893212
0.0943438
0.0993891
0.109412
0.119412
0.134389
0.149344
0.164344
0.179366
0.194299
0.20914
0.223846
0.238484
0.258122
0.277738
0.30233
0.326833
0.361176
0.390475
0.419819
0.449253
0.483846
0.518552
0.558348
0.593145
0.622873
0.647738
0.662805
0.67819
0.693914
0.709751
0.705566
0.696335
0.682014
0.652738
0.598597
0.534412
0.465113
0.390611
0.310882
0.241041
0.176109
0.116177
0.061267
0.0163122
-0.0186878
-0.0436425
-0.063552
-0.0884842
-0.108439
-0.123439
-0.138484
-0.143552
-0.148643
-0.153756
-0.148914
-0.144118
-0.149299
-0.159389
-0.174186
-0.168529
-0.162692
-0.161787
-0.161946
-0.16362
-0.168009
-0.175407
-0.184321
-0.184593
-0.182104
-0.191335
-0.197036
-0.193756
-0.188394
-0.180452
-0.170611
-0.153823
-0.1381
-0.13414
-0.134366
-0.129412
-0.126652
-0.135679
-0.144683
-0.143462
-0.141335
-0.150181
-0.156448
-0.152081
-0.147511
-0.152738
-0.158009
-0.158326
-0.158665
-0.164027
-0.169389
-0.164774
-0.160158
-0.165543
-0.17095
-0.17138
-0.181833
-0.182308
-0.187783
-0.193235
-0.193665
-0.194118
-0.189615
-0.185136
-0.180656
-0.176199
-0.181787
-0.187421
-0.1881
-0.188824
-0.184434
-0.180294
-0.181222
-0.177172
-0.158145
-0.139208
-0.115385
-0.106674
-0.108077
-0.104548
-0.096086
-0.0726244
-0.0391403
-0.0255656
-0.0219457
-0.0282805
-0.0445475
-0.0556561
-0.0665837
-0.0572398
-0.0375792
-0.0525339
-0.077104
-0.12129
-0.165068
-0.178416
-0.19138
-0.199072
-0.201516
-0.19871
-0.195837
-0.188032
-0.180385
-0.177964
-0.175792
-0.178891
-0.182285
-0.18595
-0.189864
-0.179005
-0.168326
-0.167783
-0.167308
-0.1669
-0.166606
-0.161403
-0.156267
-0.151199
-0.146176
-0.141199
-0.131244
-0.121267
-0.126267
-0.14629
-0.21138
-0.306561
-0.341719
-0.351855
-0.111991
0.227873
0.832738
1.5126
1.82744
2.06726
1.37713
0.547036
-0.1881
-0.923281
-0.973439
-1.00857
-0.86871
-0.728846
-0.488959
-0.27405
-0.18414
-0.109231
-0.0842986
-0.0593439
-0.0544117
-0.0495022
-0.0395928
-0.0296832
-0.0247738
-0.0198416
-0.014819
-0.00979637
0.000181012
0.0101358
0.0150905
0.0200453
0.0249774
0.0348869
0.044819
0.0547738
0.0647059
0.0746154
0.0845249
0.0943892
0.104253
0.109118
0.113982
0.128824
0.143643
0.158484
0.173348
0.193213
0.213077
0.227919
0.242738
0.262557
0.247353
0.317104
0.346787
0.36638
0.385928
0.42052
0.460181
0.499955
0.539683
0.574299
0.608824
0.633281
0.652873
0.667692
0.68767
0.707602
0.722624
0.722511
0.717353
0.697149
0.662127
0.607353
0.547692
0.478077
0.403281
0.323303
0.253258
0.188145
0.122986
0.0528054
0.00762443
-0.0325566
-0.0627149
-0.0828507
-0.102986
-0.123122
-0.128281
-0.133462
-0.138688
-0.143959
-0.149186
-0.154367
-0.16457
-0.169796
-0.170023
-0.170249
-0.170475
-0.170747
-0.166063
-0.16129
-0.16138
-0.160973
-0.160023
-0.15914
-0.153484
-0.15
-0.153937
-0.161176
-0.171516
-0.181267
-0.189615
-0.191018
-0.180294
-0.165362
-0.152036
-0.141765
-0.130385
-0.123281
-0.130407
-0.138575
-0.142534
-0.146109
-0.149231
-0.15129
-0.157398
-0.1631
-0.163462
-0.163733
-0.163937
-0.164163
-0.159389
-0.154593
-0.159774
-0.169955
-0.185158
-0.180385
-0.175611
-0.175814
-0.176018
-0.176244
-0.176471
-0.176697
-0.176923
-0.177149
-0.177376
-0.177602
-0.177851
-0.178122
-0.178371
-0.18362
-0.188937
-0.184321
-0.179683
-0.180023
-0.180407
-0.175837
-0.171244
-0.171652
-0.172127
-0.17267
-0.168258
-0.15405
-0.134661
-0.115294
-0.100973
-0.0917195
-0.0874887
-0.0882353
-0.0689141
-0.0445023
-0.0200453
0.00445697
-0.00106339
-0.0166064
-0.0372172
-0.0227602
-0.0481674
-0.0333258
-0.0332353
-0.0328054
-0.0620815
-0.0961539
-0.135113
-0.169072
-0.173054
-0.177127
-0.176312
-0.175611
-0.175023
-0.174615
-0.174615
-0.174525
-0.174548
-0.174661
-0.174819
-0.175023
-0.175272
-0.175543
-0.170837
-0.166154
-0.166493
-0.166833
-0.162172
-0.157557
-0.157964
-0.158348
-0.15371
-0.139072
-0.124434
-0.139751
-0.165023
-0.265271
-0.375498
-0.365747
-0.336018
0.0787557
0.518575
1.21339
1.88821
1.99803
2.02785
1.09767
0.202489
-0.412647
-0.922738
-0.937828
-0.907919
-0.697964
-0.497964
-0.317986
-0.178032
-0.123077
-0.0831222
-0.0781675
-0.0731901
-0.0732127
-0.073258
-0.0683032
-0.0583484
-0.0483937
-0.0434163
-0.0383937
-0.0333484
-0.0283258
-0.0183711
-0.0085068
-0.00359729
0.00135745
0.0113122
0.021267
0.0262217
0.0311765
0.0411312
0.051086
0.0610407
0.0709955
0.0859502
0.100905
0.10586
0.115814
0.135724
0.155588
0.165475
0.175385
0.200294
0.225204
0.240136
0.260045
0.289887
0.319615
0.349231
0.378824
0.408439
0.443122
0.472941
0.507715
0.547421
0.582036
0.606539
0.626199
0.651041
0.676063
0.706267
0.731358
0.76129
0.766199
0.75629
0.716425
0.66181
0.582398
0.498122
0.418665
0.339005
0.279186
0.214231
0.159253
0.104253
0.0592534
0.0192534
-0.00576922
0.0141855
-0.0508371
-0.0658371
-0.0758371
-0.0858371
-0.0958371
-0.105837
-0.10586
-0.105928
-0.106018
-0.106109
-0.111176
-0.116222
-0.116244
-0.11629
-0.12129
-0.12629
-0.126109
-0.125339
-0.129005
-0.132873
-0.137262
-0.144208
-0.143937
-0.146878
-0.162262
-0.176244
-0.182376
-0.181086
-0.172964
-0.161584
-0.148303
-0.13914
-0.139412
-0.143552
-0.145882
-0.148937
-0.157285
-0.164955
-0.166833
-0.167919
-0.168394
-0.16862
-0.168665
-0.17371
-0.178756
-0.178824
-0.178914
-0.179005
-0.179072
-0.184118
-0.189163
-0.189208
-0.189276
-0.184367
-0.179434
-0.18448
-0.18957
-0.189683
-0.189774
-0.189842
-0.189955
-0.190113
-0.190271
-0.19043
-0.190588
-0.190747
-0.190905
-0.191063
-0.191267
-0.186516
-0.181765
-0.182014
-0.182308
-0.182647
-0.182964
-0.183281
-0.173665
-0.159118
-0.13457
-0.110045
-0.100566
-0.0911086
-0.0866516
-0.097172
-0.0727149
-0.0482127
-0.0236425
0.0010181
-0.0142534
-0.029457
-0.0445475
-0.059457
-0.0391403
-0.0185068
-0.0324887
-0.0561539
-0.0895702
-0.127805
-0.170905
-0.199072
-0.18733
-0.175724
-0.179253
-0.182851
-0.181584
-0.180453
-0.179457
-0.17862
-0.172919
-0.167285
-0.171516
-0.175995
-0.175498
-0.175
-0.174502
-0.174072
-0.16871
-0.158326
-0.147919
-0.142511
-0.147104
-0.151719
-0.151357
-0.141018
-0.150701
-0.15043
-0.185204
-0.299955
-0.409683
-0.379412
-0.28914
0.176086
0.681267
1.40147
1.9717
2.0769
1.88708
0.942262
0.107443
-0.502376
-0.892172
-0.911946
-0.82672
-0.586516
-0.391312
-0.246086
-0.150882
-0.090724
-0.0655883
-0.0604525
-0.0553168
-0.055181
-0.0550226
-0.0498416
-0.0446833
-0.0395475
-0.0344118
-0.0292761
-0.0241403
-0.0190045
-0.0138688
-0.00873305
0.0014027
0.0115384
0.0166742
0.0218099
0.0369457
0.0470814
0.0522172
0.0573529
0.0724887
0.0876244
0.0977602
0.107896
0.118032
0.128167
0.143303
0.158439
0.173552
0.193643
0.213756
0.233891
0.254027
0.274163
0.294299
0.319389
0.349434
0.384412
0.414344
0.449321
0.489344
0.524457
0.554638
0.584751
0.619729
0.644661
0.669615
0.684683
0.69491
0.700181
0.70043
0.685543
0.665543
0.620611
0.565814
0.501086
0.436448
0.356878
0.27224
0.207443
0.142511
0.0925792
0.0426697
-0.00223985
-0.0371493
-0.0620588
-0.0869683
-0.0968552
-0.106719
-0.116584
-0.126448
-0.136335
-0.146244
-0.156109
-0.165995
-0.160905
-0.155837
-0.160769
-0.165656
-0.165498
-0.165317
-0.165158
-0.16509
-0.16009
-0.154977
-0.149706
-0.143891
-0.147873
-0.15233
-0.157896
-0.165
-0.164095
-0.164344
-0.169434
-0.172195
-0.170679
-0.164638
-0.156063
-0.148846
-0.144231
-0.14724
-0.152534
-0.153824
-0.155588
-0.162104
-0.168145
-0.163801
-0.159095
-0.159118
-0.159027
-0.158937
-0.158846
-0.163778
-0.168756
-0.168688
-0.16871
-0.168733
-0.168756
-0.168778
-0.168824
-0.173891
-0.178982
-0.179095
-0.179186
-0.174253
-0.169344
-0.174457
-0.179525
-0.179593
-0.179706
-0.179842
-0.179955
-0.180045
-0.180113
-0.180181
-0.180271
-0.180407
-0.180566
-0.175724
-0.17086
-0.170973
-0.171086
-0.171199
-0.17129
-0.17138
-0.161493
-0.151652
-0.126833
-0.102036
-0.0872851
-0.0725113
-0.0826697
-0.0878055
-0.0679412
-0.048077
-0.0131901
0.00669682
0.00660632
-0.0034163
-0.0283937
-0.0383258
-0.0232353
-0.0131222
-0.0079638
-0.0177375
-0.047466
-0.0921493
-0.141787
-0.166448
-0.176199
-0.17595
-0.165724
-0.160475
-0.165249
-0.17009
-0.169955
-0.169819
-0.174728
-0.179661
-0.17457
-0.169434
-0.169299
-0.169208
-0.179163
-0.174163
-0.169208
-0.164253
-0.159276
-0.159276
-0.159276
-0.159253
-0.159208
-0.144186
-0.129186
-0.144163
-0.189118
-0.30905
-0.388959
-0.398891
-0.263869
0.106109
0.636041
1.35597
1.82595
2.03095
1.65595
0.76095
0.0109729
-0.633982
-0.893937
-0.923891
-0.808869
-0.608869
-0.418846
-0.233801
-0.143801
-0.0838462
-0.0688688
-0.0688688
-0.0688009
-0.0637104
-0.0586426
-0.0535973
-0.0435747
-0.0485747
-0.0235747
-0.0185747
-0.0135521
-0.0085068
0.00153843
0.0115837
0.0216063
0.0316063
0.0366063
0.0416063
0.0516516
0.0617421
0.0668099
0.0768552
0.0919004
0.101878
0.111833
0.12181
0.12681
0.13681
0.15181
0.17181
0.19181
0.206719
0.216561
0.231312
0.250995
0.270656
0.285294
0.304932
0.329525
0.364005
0.398394
0.437828
0.477353
0.507059
0.5319
0.561765
0.591606
0.621448
0.651358
0.676471
0.696833
0.697421
0.6981
0.693756
0.689412
0.670136
0.640905
0.58172
0.517511
0.443167
0.36862
0.293824
0.228891
0.163914
0.103959
0.0490724
0.00420815
-0.0256787
-0.0556109
-0.0805656
-0.0955204
-0.100498
-0.11552
-0.135543
-0.145566
-0.145611
-0.145656
-0.145747
-0.14586
-0.14095
-0.140882
-0.150543
-0.154751
-0.158801
-0.163077
-0.158484
-0.155837
-0.160656
-0.168507
-0.177692
-0.187217
-0.194072
-0.191335
-0.185249
-0.175588
-0.16319
-0.157783
-0.150973
-0.139095
-0.129728
-0.130226
-0.13448
-0.136946
-0.140656
-0.144548
-0.147941
-0.15543
-0.162104
-0.157986
-0.153507
-0.153801
-0.15405
-0.169321
-0.174593
-0.169842
-0.165113
-0.165407
-0.165701
-0.166063
-0.166335
-0.171606
-0.1769
-0.177217
-0.177534
-0.177851
-0.178167
-0.178507
-0.178891
-0.184299
-0.189683
-0.190068
-0.190498
-0.19095
-0.17638
-0.171855
-0.177398
-0.182986
-0.18362
-0.184344
-0.185158
-0.186018
-0.1669
-0.147828
-0.123824
-0.109887
-0.105995
-0.102149
-0.103122
-0.0944118
-0.060724
-0.0319457
-0.0180769
-0.0140724
-0.0399321
-0.0556787
-0.0713349
-0.0717647
-0.0519231
-0.0467421
-0.0561991
-0.0902262
-0.138869
-0.167217
-0.185249
-0.192986
-0.190452
-0.187738
-0.189932
-0.192195
-0.189593
-0.18724
-0.180158
-0.173348
-0.171765
-0.175407
-0.179276
-0.178371
-0.177647
-0.172036
-0.166538
-0.166154
-0.165837
-0.16052
-0.155249
-0.15009
-0.145
-0.144909
-0.144819
-0.134751
-0.134661
-0.164502
-0.219367
-0.319299
-0.354276
-0.304299
-0.0543213
0.390701
0.950747
1.60579
1.85584
1.81088
1.14093
0.115973
-0.488982
-0.908937
-0.983846
-0.92871
-0.768597
-0.578507
-0.398439
-0.218394
-0.138348
-0.0733032
-0.0582579
-0.0482127
-0.0431448
-0.0430543
-0.0329864
-0.0229412
-0.0128507
-0.00271498
0.00239815
0.00748865
0.0075339
0.00757914
0.017647
0.0277375
0.037828
0.0479185
0.053009
0.0580995
0.0681674
0.0782126
0.0882578
0.0983031
0.108348
0.123371
0.138371
0.148394
0.153416
0.163371
0.178258
0.193032
0.202715
0.222421
0.247104
0.266765
0.28138
0.310928
0.345385
0.374706
0.398937
0.423258
0.447715
0.477376
0.507149
0.536923
0.511674
0.60138
0.631154
0.646177
0.661561
0.672262
0.6831
0.688891
0.694638
0.675294
0.645928
0.601629
0.55233
0.483009
0.418552
0.353869
0.284027
0.214118
0.14914
0.0891403
0.0391629
-0.00581449
-0.0408371
-0.0608824
-0.0759502
-0.0910181
-0.106063
-0.121109
-0.131176
-0.136267
-0.141403
-0.146584
-0.151787
-0.1519
-0.151742
-0.156244
-0.160294
-0.154434
-0.149163
-0.150656
-0.154842
-0.156538
-0.170566
-0.189774
-0.1931
-0.193281
-0.189502
-0.18371
-0.186244
-0.187489
-0.1819
-0.174638
-0.165385
-0.155656
-0.146765
-0.141131
-0.135339
-0.13233
-0.141244
-0.150498
-0.154502
-0.157828
-0.155339
-0.152059
-0.157986
-0.163575
-0.163891
-0.164163
-0.169412
-0.174683
-0.175
-0.175317
-0.180633
-0.185928
-0.181199
-0.176471
-0.181742
-0.187059
-0.187443
-0.187828
-0.188213
-0.188597
-0.188982
-0.189412
-0.189887
-0.190407
-0.19095
-0.191538
-0.192172
-0.187828
-0.183507
-0.189208
-0.194977
-0.185837
-0.171787
-0.147805
-0.128891
-0.120068
-0.111267
-0.112489
-0.108778
-0.0951584
-0.0764932
-0.0477602
-0.0289819
-0.030181
-0.0413122
-0.0623756
-0.0733258
-0.0691403
-0.0596832
-0.0501584
-0.0549774
-0.0743891
-0.123394
-0.177014
-0.200294
-0.213258
-0.215928
-0.208326
-0.200566
-0.192738
-0.184955
-0.187262
-0.189796
-0.187557
-0.180543
-0.183801
-0.177353
-0.171131
-0.175113
-0.179299
-0.173688
-0.168235
-0.162896
-0.157647
-0.157443
-0.157285
-0.157195
-0.157149
-0.147127
-0.137172
-0.12724
-0.14233
-0.202421
-0.277511
-0.372624
-0.347783
-0.212941
0.1819
0.77672
1.33156
1.85645
1.89631
1.67113
0.92095
-0.0542307
-0.534366
-0.854457
-0.889548
-0.849638
-0.659728
-0.444842
-0.3
-0.160181
-0.110362
-0.065543
-0.0557014
-0.0508371
-0.0509955
-0.0511765
-0.0413349
-0.0314706
-0.0265611
-0.0216064
-0.0166969
-0.0118326
-0.00694574
-0.00203624
0.00782801
0.017647
0.0274887
0.0373529
0.0421946
0.0470362
0.0519231
0.0568099
0.0666516
0.0814706
0.0912896
0.101109
0.110928
0.120747
0.135566
0.150317
0.169977
0.184525
0.203959
0.223326
0.237647
0.257036
0.276471
0.300792
0.324955
0.354005
0.383054
0.412285
0.441697
0.466244
0.495815
0.530226
0.564615
0.584072
0.603733
0.623688
0.643891
0.654253
0.664615
0.66991
0.670181
0.640475
0.600815
0.546199
0.486561
0.411878
0.341946
0.276742
0.216425
0.156041
0.100656
0.0453167
-3.72529e-09
-0.0352941
-0.0655882
-0.0859276
-0.10129
-0.116652
-0.126991
-0.132353
-0.147715
-0.163077
-0.168507
-0.168982
-0.169344
-0.164412
-0.158982
-0.163258
-0.167421
-0.167127
-0.167919
-0.170814
-0.16638
-0.174231
-0.184163
-0.19362
-0.201719
-0.206403
-0.202081
-0.195905
-0.187986
-0.178552
-0.176946
-0.173824
-0.164366
-0.155136
-0.141584
-0.132262
-0.137466
-0.144842
-0.153665
-0.16267
-0.166516
-0.164525
-0.156584
-0.153009
-0.153824
-0.154457
-0.154932
-0.155385
-0.155837
-0.156335
-0.161878
-0.167398
-0.172896
-0.178416
-0.173959
-0.16948
-0.175
-0.180566
-0.176176
-0.17181
-0.177466
-0.183122
-0.183756
-0.189389
-0.195068
-0.190814
-0.186629
-0.187466
-0.188303
-0.189163
-0.190068
-0.191018
-0.192059
-0.178167
-0.159344
-0.135566
-0.111855
-0.0981674
-0.0895475
-0.101018
-0.107511
-0.0890271
-0.060543
-0.0270588
-0.0135068
-0.0298869
-0.0511538
-0.0723077
-0.0683484
-0.0342307
-0.0247964
-0.0250226
-0.0498869
-0.0843439
-0.118371
-0.151968
-0.160226
-0.163145
-0.165769
-0.163145
-0.160453
-0.157783
-0.155226
-0.162828
-0.155679
-0.148778
-0.147127
-0.145679
-0.149434
-0.153416
-0.152647
-0.152082
-0.146674
-0.141403
-0.141222
-0.141109
-0.141041
-0.140996
-0.135973
-0.131041
-0.121199
-0.11638
-0.136561
-0.196742
-0.301901
-0.362036
-0.387195
-0.267376
-0.0275566
0.437262
1.03708
1.55195
2.02181
1.90165
1.54147
0.71129
-0.268891
-0.65405
-0.904186
-0.844299
-0.729389
-0.50948
-0.27957
-0.189638
-0.264683
-0.0797285
-0.0547737
-0.054819
-0.0548642
-0.0499321
-0.0450226
-0.0400905
-0.0351131
-0.0300905
-0.0250452
-0.015
-0.00495473
0.000113143
0.00520364
0.0152941
0.0253846
0.0304525
0.0354978
0.0455204
0.0555204
0.055543
0.0605882
0.0756109
0.0905882
0.105566
0.120543
0.130452
0.135226
0.139887
0.154457
0.173959
0.193507
0.208077
0.222557
0.236923
0.256176
0.275362
0.30457
0.333824
0.363213
0.392715
0.422262
0.4469
0.481652
0.516584
0.541629
0.566833
0.592308
0.617964
0.633801
0.649729
0.655588
0.661358
0.662014
0.65767
0.623484
0.584367
0.525272
0.456063
0.381697
0.307172
0.242489
0.17776
0.118009
0.0632353
0.0184615
-0.0163122
-0.046086
-0.0708824
-0.0907466
-0.105633
-0.115543
-0.130475
-0.14543
-0.150385
-0.15009
-0.149253
-0.148145
-0.147081
-0.147104
-0.149072
-0.158597
-0.171109
-0.180158
-0.184909
-0.18733
-0.190995
-0.191471
-0.189072
-0.186086
-0.183303
-0.181335
-0.180204
-0.179412
-0.178439
-0.175701
-0.17052
-0.163054
-0.148529
-0.134593
-0.12733
-0.123846
-0.124819
-0.127534
-0.13138
-0.134977
-0.143077
-0.150226
-0.15638
-0.162149
-0.158281
-0.153597
-0.158824
-0.164072
-0.164344
-0.164638
-0.169977
-0.175362
-0.175769
-0.176154
-0.176538
-0.176923
-0.182308
-0.187738
-0.188213
-0.188688
-0.189186
-0.189728
-0.190294
-0.19086
-0.191471
-0.192217
-0.193032
-0.188869
-0.184774
-0.180747
-0.171787
-0.147919
-0.124163
-0.110271
-0.101742
-0.108281
-0.109864
-0.0915158
-0.0681674
-0.044819
-0.031448
-0.0380543
-0.0495701
-0.0659955
-0.0722172
-0.05819
-0.0538235
-0.064095
-0.0938688
-0.12819
-0.167081
-0.205566
-0.213643
-0.216312
-0.218665
-0.215724
-0.212557
-0.204185
-0.195679
-0.192104
-0.19362
-0.195226
-0.192036
-0.18914
-0.186584
-0.184366
-0.182421
-0.180747
-0.179321
-0.178122
-0.177104
-0.176222
-0.170498
-0.164909
-0.154434
-0.144027
-0.138643
-0.133326
-0.138077
-0.197873
-0.317692
-0.377511
-0.36233
-0.117104
0.313167
0.878416
1.53862
1.87876
2.03885
1.52898
0.709163
0.00934392
-0.645475
-0.835294
-0.895113
-0.774955
-0.614819
-0.419661
-0.21948
-0.144276
-0.0840497
-0.0738235
-0.0585972
-0.048371
-0.0381448
-0.0328959
-0.0276244
-0.0273529
-0.0270588
-0.0217194
-0.0163574
-0.00604069
0.00423079
0.00945704
0.0146607
0.0199321
0.0252489
0.030543
0.0357919
0.0460181
0.0612217
0.0763801
0.0865158
0.0866516
0.0917195
0.101719
0.111629
0.126425
0.141199
0.150973
0.165701
0.180339
0.189842
0.199253
0.21862
0.247986
0.267466
0.287014
0.316561
0.346086
0.375566
0.405091
0.434819
0.409864
0.505249
0.540814
0.571403
0.602014
0.617738
0.633575
0.64948
0.665452
0.676448
0.687421
0.673303
0.64914
0.605068
0.551041
0.476968
0.412738
0.343326
0.278756
0.214027
0.149231
0.0943891
0.0445023
-0.000407234
-0.0403394
-0.0702715
-0.0902262
-0.105226
-0.125249
-0.140204
-0.144819
-0.144118
-0.143054
-0.147172
-0.15224
-0.159118
-0.168778
-0.180814
-0.194842
-0.198439
-0.199638
-0.197398
-0.196018
-0.197783
-0.193914
-0.190204
-0.182059
-0.17509
-0.174706
-0.175181
-0.186041
-0.196018
-0.189208
-0.179864
-0.162534
-0.143665
-0.139095
-0.1369
-0.133462
-0.13319
-0.135882
-0.13948
-0.138394
-0.136787
-0.14448
-0.151335
-0.15733
-0.163009
-0.163439
-0.163846
-0.159208
-0.15457
-0.159932
-0.165294
-0.165656
-0.171063
-0.181538
-0.187081
-0.182692
-0.178303
-0.173891
-0.17448
-0.185113
-0.190815
-0.191584
-0.187421
-0.183348
-0.179344
-0.175385
-0.176448
-0.177579
-0.163846
-0.150249
-0.131787
-0.113394
-0.115045
-0.116742
-0.108507
-0.0903167
-0.0621946
-0.0441176
-0.036086
-0.0380317
-0.0649095
-0.0816742
-0.0783258
-0.0697285
-0.0558371
-0.0565837
-0.0769457
-0.121855
-0.181538
-0.210475
-0.218937
-0.221968
-0.22457
-0.221878
-0.208937
-0.205792
-0.212444
-0.213937
-0.205272
-0.196561
-0.197896
-0.199434
-0.196222
-0.188326
-0.180701
-0.183394
-0.18638
-0.179638
-0.173167
-0.166968
-0.161018
-0.155249
-0.149638
-0.139163
-0.128778
-0.128462
-0.148235
-0.223077
-0.293009
-0.372964
-0.332896
-0.122828
0.277217
0.89224
1.41722
1.85715
1.76206
1.23699
0.481923
-0.423145
-0.82319
-0.958235
-0.918281
-0.798326
-0.598348
-0.368348
-0.238348
-0.138348
-0.0883711
-0.0534163
-0.0484616
-0.0484842
-0.0484163
-0.0432806
-0.0281674
-0.0180769
-0.0179864
-0.0178959
-0.00780544
0.00228506
0.0074208
0.0126018
0.0227828
0.0329638
0.0380995
0.04319
0.0482579
0.0533032
0.0633937
0.0734389
0.0783711
0.0832127
0.0929864
0.10767
0.12724
0.146787
0.156357
0.16086
0.165294
0.179638
0.198846
0.2181
0.237421
0.261787
0.286177
0.31052
0.329864
0.354276
0.383824
0.418665
0.458756
0.48405
0.509502
0.534932
0.560339
0.585814
0.616403
0.637104
0.657873
0.673688
0.689502
0.685204
0.680837
0.656493
0.622195
0.572941
0.518665
0.449321
0.374796
0.305
0.235068
0.170045
0.104977
0.0548642
0.0147285
-0.0153846
-0.0455204
-0.070724
-0.095905
-0.12095
-0.135633
-0.135045
-0.134344
-0.138914
-0.144842
-0.147624
-0.153303
-0.16629
-0.180633
-0.184276
-0.18457
-0.191448
-0.194842
-0.191448
-0.187738
-0.184163
-0.181131
-0.17905
-0.163326
-0.158552
-0.164615
-0.170747
-0.171086
-0.169661
-0.160475
-0.148959
-0.140498
-0.132489
-0.121878
-0.114706
-0.121652
-0.13043
-0.134819
-0.139118
-0.142919
-0.145837
-0.147738
-0.149072
-0.154977
-0.160701
-0.156312
-0.156946
-0.167624
-0.173348
-0.174095
-0.174796
-0.175498
-0.176267
-0.177081
-0.177896
-0.183733
-0.189615
-0.19552
-0.201448
-0.197398
-0.193439
-0.18957
-0.185814
-0.192127
-0.178484
-0.15991
-0.146425
-0.133077
-0.119842
-0.106674
-0.108552
-0.110475
-0.0925113
-0.0746154
-0.0567873
-0.0389819
-0.0561765
-0.0733032
-0.080362
-0.0822851
-0.0690498
-0.0655656
-0.0818552
-0.11276
-0.163281
-0.203281
-0.22776
-0.24181
-0.23543
-0.22862
-0.231448
-0.234027
-0.226312
-0.218348
-0.215158
-0.21181
-0.208303
-0.204751
-0.201177
-0.197715
-0.189412
-0.181335
-0.183484
-0.185905
-0.183643
-0.181697
-0.170068
-0.163756
-0.15776
-0.151991
-0.146403
-0.140973
-0.135701
-0.14552
-0.17043
-0.245453
-0.310543
-0.340656
-0.280792
0.0240497
0.438869
1.07373
1.57857
1.88337
1.73312
0.997873
0.247647
-0.517602
-0.907873
-0.968145
-0.928416
-0.808688
-0.618982
-0.394299
-0.254502
-0.149638
-0.0947964
-0.0599774
-0.050181
-0.0454072
-0.0355882
-0.025724
-0.0208597
-0.0159955
-0.0110859
-0.00613121
-0.00119908
-0.00128956
0.0186199
0.0285294
0.0334616
0.0384163
0.0433711
0.0483258
0.0582353
0.0680996
0.0779865
0.0877828
0.0974208
0.106968
0.111448
0.120905
0.135362
0.144774
0.15414
0.168394
0.182511
0.191584
0.205611
0.219683
0.243846
0.268032
0.29724
0.316425
0.335543
0.359796
0.384276
0.419027
0.454005
0.48414
0.514412
0.544706
0.580023
0.600407
0.62086
0.641403
0.662036
0.667602
0.6731
0.668575
0.65905
0.629615
0.600226
0.540747
0.486109
0.406222
0.331131
0.26095
0.190724
0.120498
0.0652715
0.035
-0.000339359
-0.0357013
-0.0660633
-0.0864253
-0.106312
-0.120769
-0.129977
-0.12914
-0.129593
-0.131584
-0.141425
-0.158982
-0.173529
-0.183982
-0.19233
-0.192805
-0.188914
-0.186855
-0.183824
-0.17543
-0.167602
-0.170566
-0.174683
-0.174661
-0.175385
-0.171606
-0.168009
-0.169163
-0.168937
-0.176833
-0.166878
-0.154683
-0.141154
-0.128348
-0.123914
-0.122896
-0.125339
-0.12957
-0.134118
-0.138507
-0.137376
-0.135407
-0.147443
-0.158891
-0.159932
-0.160769
-0.156493
-0.152217
-0.157964
-0.163688
-0.164389
-0.165113
-0.17086
-0.176652
-0.177489
-0.178348
-0.179276
-0.180204
-0.186176
-0.192195
-0.193281
-0.194457
-0.190724
-0.187081
-0.188529
-0.170091
-0.146742
-0.133484
-0.120339
-0.11733
-0.119412
-0.111561
-0.103778
-0.0810407
-0.0583258
-0.0556561
-0.0529864
-0.0702941
-0.087534
-0.0896154
-0.0914706
-0.0830769
-0.0742987
-0.0901358
-0.12052
-0.166109
-0.200566
-0.21957
-0.233167
-0.236357
-0.239186
-0.231674
-0.223914
-0.22095
-0.217805
-0.21448
-0.211063
-0.207557
-0.204027
-0.205498
-0.207104
-0.198846
-0.190837
-0.183054
-0.175611
-0.178484
-0.181674
-0.175181
-0.169027
-0.163145
-0.152398
-0.14181
-0.136357
-0.136018
-0.240769
-0.335611
-0.39052
-0.400475
-0.115452
0.229548
0.864548
1.45952
1.89446
2.09437
1.62925
1.00412
0.0439819
-0.651154
-0.86129
-0.936403
-0.806471
-0.626538
-0.381652
-0.216787
-0.126923
-0.0820362
-0.0721041
-0.0671493
-0.0671946
-0.0672398
-0.0623303
-0.0523982
-0.0424434
-0.0324434
-0.0223982
-0.0173529
-0.0173077
-0.0122851
-0.00228506
0.00271494
0.00771494
0.0127602
0.0178507
0.0278959
0.0428959
0.0528959
0.0628281
0.0726697
0.0824661
0.0871946
0.0918552
0.101471
0.111063
0.125656
0.140136
0.14948
0.163756
0.182964
0.202195
0.216493
0.235814
0.260181
0.284457
0.313665
0.342941
0.377285
0.406923
0.436878
0.472036
0.507376
0.537738
0.5681
0.593507
0.613959
0.634548
0.660272
0.670996
0.681719
0.682398
0.673032
0.648643
0.624231
0.559887
0.495611
0.421244
0.491719
0.276968
0.212036
0.151991
0.0918552
0.0417195
0.00156108
-0.0336199
-0.0588009
-0.0790045
-0.098914
-0.113462
-0.127579
-0.136244
-0.145905
-0.14457
-0.148122
-0.159389
-0.172941
-0.188416
-0.202262
-0.20914
-0.211652
-0.205317
-0.197738
-0.194276
-0.191244
-0.193801
-0.197398
-0.196833
-0.197149
-0.19819
-0.199615
-0.196176
-0.191448
-0.190158
-0.185995
-0.179163
-0.170407
-0.155769
-0.143258
-0.133597
-0.128303
-0.131177
-0.140023
-0.149253
-0.147941
-0.145837
-0.147647
-0.148733
-0.154434
-0.159955
-0.160452
-0.160995
-0.161606
-0.162262
-0.162941
-0.163643
-0.169344
-0.175068
-0.175815
-0.176606
-0.172466
-0.168371
-0.169299
-0.170272
-0.176312
-0.182443
-0.183665
-0.184955
-0.186312
-0.172783
-0.149367
-0.136063
-0.127873
-0.119842
-0.111923
-0.109095
-0.116357
-0.0986652
-0.0709955
-0.0583484
-0.0457014
-0.0530091
-0.0752489
-0.0873982
-0.0993439
-0.0809955
-0.0622851
-0.0731222
-0.0884842
-0.133348
-0.177783
-0.20681
-0.230453
-0.228733
-0.226629
-0.22414
-0.221403
-0.223416
-0.225249
-0.216878
-0.208394
-0.209796
-0.211154
-0.202511
-0.193959
-0.195498
-0.19733
-0.189457
-0.181901
-0.174005
-0.167059
-0.160385
-0.153982
-0.157851
-0.156968
-0.14629
-0.140747
-0.135294
-0.199955
-0.279729
-0.374548
-0.474412
-0.254321
-0.479276
0.595747
1.20075
1.71072
2.14068
1.78561
1.34552
0.375407
-0.469728
-0.739864
-0.93
-0.825113
-0.685204
-0.450317
-0.265453
-0.175588
-0.110724
-0.0808597
-0.0609728
-0.0610407
-0.0610633
-0.0610633
-0.0561086
-0.0461991
-0.041267
-0.0362896
-0.0312896
-0.026267
-0.0211765
-0.0160407
-0.00595023
0.00409503
0.0091629
0.0142534
0.0193665
0.0245023
0.0296154
0.0347059
0.0497964
0.0648869
0.0749547
0.0849774
0.0999548
0.109864
0.124661
0.139344
0.153959
0.168552
0.18319
0.197805
0.21233
0.231765
0.256086
0.280362
0.304638
0.333982
0.368416
0.402896
0.437443
0.472036
0.511652
0.541425
0.57138
0.601584
0.626968
0.647489
0.66319
0.678959
0.689796
0.695611
0.691335
0.666991
0.627579
0.573281
0.504095
0.429887
0.355633
0.291154
0.231448
0.181584
0.136584
0.0816063
0.0266516
-0.00330316
-0.0382579
-0.0582579
-0.0783258
-0.0934163
-0.108507
-0.118643
-0.128733
-0.133665
-0.1381
-0.137014
-0.136063
-0.140294
-0.146335
-0.154321
-0.165158
-0.173869
-0.183326
-0.188303
-0.189412
-0.196697
-0.20095
-0.192602
-0.184367
-0.186516
-0.190045
-0.189932
-0.189615
-0.18595
-0.17767
-0.171833
-0.163688
-0.153597
-0.145136
-0.133688
-0.126674
-0.123529
-0.121584
-0.130498
-0.138982
-0.141855
-0.143688
-0.144729
-0.145407
-0.145815
-0.151086
-0.156267
-0.161471
-0.166742
-0.157081
-0.147443
-0.152805
-0.158213
-0.158665
-0.159118
-0.16957
-0.180068
-0.175498
-0.171086
-0.171697
-0.172353
-0.178054
-0.183824
-0.184661
-0.185543
-0.186471
-0.187421
-0.183416
-0.174525
-0.165747
-0.152036
-0.133439
-0.114955
-0.101606
-0.0983711
-0.105204
-0.0970588
-0.0789367
-0.0608145
-0.0426923
-0.0395475
-0.0413349
-0.0580317
-0.0795475
-0.0757919
-0.0666742
-0.0621493
-0.0571719
-0.0817194
-0.110814
-0.159434
-0.202602
-0.210339
-0.21776
-0.214909
-0.211787
-0.208439
-0.204955
-0.19638
-0.187828
-0.189389
-0.191131
-0.193122
-0.195407
-0.187986
-0.18086
-0.174005
-0.167376
-0.17095
-0.174751
-0.173778
-0.172919
-0.167195
-0.156584
-0.146086
-0.140679
-0.135362
-0.150091
-0.179864
-0.284661
-0.40448
-0.379321
-0.334186
0.0709502
0.506086
1.14122
1.78133
1.9514
2.06145
1.20652
0.371606
-0.293326
-0.863281
-0.903213
-0.898122
-0.688077
-0.488077
-0.313054
-0.173009
-0.117941
-0.0778507
-0.0777149
-0.0775792
-0.0724434
-0.0673077
-0.0571493
-0.0469457
-0.0516968
-0.0514253
-0.0411765
-0.0359502
-0.030724
-0.0204977
-0.0102715
-0.00504523
-0.00481899
-0.00461536
0.000565644
0.015724
0.0308598
0.0410634
0.0513349
0.0665611
0.0817421
0.0869231
0.0920815
0.107127
0.0970588
0.141946
0.156787
0.171584
0.186357
0.206109
0.225769
0.240339
0.254796
0.274095
0.298371
0.332692
0.367172
0.39681
0.431493
0.471312
0.516086
0.555928
0.58595
0.606109
0.626539
0.64224
0.663009
0.683846
0.694683
0.700498
0.691244
0.6669
0.622602
0.568371
0.504163
0.439977
0.370679
0.296244
0.226606
0.156787
0.106923
0.0620136
0.0170814
-0.0228959
-0.0479186
-0.0729638
-0.0929864
-0.107986
-0.123032
-0.138122
-0.148258
-0.158371
-0.158348
-0.157896
-0.156968
-0.156109
-0.160498
-0.166878
-0.17543
-0.186833
-0.191086
-0.195136
-0.198801
-0.197851
-0.197511
-0.195204
-0.19129
-0.188077
-0.180747
-0.174186
-0.178281
-0.181357
-0.183145
-0.177353
-0.158891
-0.144706
-0.135068
-0.129344
-0.127443
-0.128552
-0.13224
-0.136131
-0.135045
-0.133054
-0.140204
-0.146606
-0.147398
-0.147941
-0.158326
-0.158756
-0.159231
-0.159729
-0.160249
-0.165769
-0.17129
-0.171878
-0.172511
-0.173145
-0.173801
-0.17448
-0.175158
-0.175837
-0.176561
-0.177376
-0.178281
-0.179253
-0.180249
-0.186267
-0.19233
-0.188439
-0.184593
-0.185814
-0.182172
-0.168665
-0.155249
-0.142036
-0.128756
-0.120566
-0.117443
-0.119389
-0.106357
-0.0883258
-0.0652941
-0.0322625
-0.0292082
-0.036086
-0.0628054
-0.0893213
-0.0855656
-0.0964253
-0.06681
-0.066629
-0.100905
-0.134706
-0.1831
-0.221154
-0.213891
-0.206312
-0.198416
-0.190294
-0.186991
-0.183597
-0.185181
-0.186878
-0.183891
-0.180973
-0.178303
-0.17595
-0.178937
-0.18224
-0.18086
-0.179683
-0.173688
-0.162896
-0.152285
-0.146765
-0.146335
-0.145995
-0.140724
-0.135543
-0.130452
-0.14043
-0.165475
-0.25552
-0.355566
-0.335611
-0.285656
0.149276
0.629186
1.25905
1.89387
1.85871
1.78357
0.768462
-0.196629
-0.64672
-1.03181
-0.981901
-0.906991
-0.712036
-0.522036
-0.342036
-0.192036
-0.127081
-0.0771494
-0.067172
-0.057172
-0.047172
-0.0371494
-0.0371041
-0.0370815
-0.0320815
-0.0220362
-0.0119231
-0.00178734
0.00832577
0.0134389
0.0135747
0.0186878
0.028733
0.0387783
0.0488235
0.0588688
0.068914
0.0789593
0.0890045
0.0990272
0.109027
0.119005
0.128959
0.138891
0.148733
0.163462
0.183122
0.202692
0.222262
0.241878
0.261448
0.280905
0.300226
0.324434
0.35362
0.387828
0.422149
0.456629
0.491176
0.520747
0.555362
0.585023
0.614819
0.639729
0.65991
0.675385
0.691018
0.706855
0.717715
0.718552
0.709276
0.679887
0.630498
0.566041
0.486742
0.407466
0.333032
0.263439
0.208597
0.153552
0.103529
0.0535294
0.013552
-0.0214027
-0.0513801
-0.0813801
-0.101425
-0.0865159
-0.136629
-0.146765
-0.146923
-0.147104
-0.147285
-0.147149
-0.151606
-0.155882
-0.155023
-0.155249
-0.16181
-0.171267
-0.178801
-0.187828
-0.190498
-0.192557
-0.191222
-0.186267
-0.183077
-0.180045
-0.177308
-0.175045
-0.17319
-0.170407
-0.161357
-0.149842
-0.140769
-0.131968
-0.123597
-0.119864
-0.120543
-0.123281
-0.127783
-0.132081
-0.141063
-0.14914
-0.156357
-0.162828
-0.158665
-0.154231
-0.154593
-0.154932
-0.155272
-0.160611
-0.16595
-0.161335
-0.156765
-0.167217
-0.177647
-0.178054
-0.178462
-0.183869
-0.189321
-0.184842
-0.180407
-0.180995
-0.181606
-0.182217
-0.182851
-0.188507
-0.194208
-0.189955
-0.185769
-0.181674
-0.17767
-0.173756
-0.154932
-0.131222
-0.117624
-0.0991177
-0.100679
-0.112285
-0.103914
-0.0855656
-0.0622172
-0.0338688
-0.0254751
-0.0320136
-0.0534389
-0.0747059
-0.0757692
-0.0665611
-0.0620136
-0.0620588
-0.0866742
-0.110792
-0.154434
-0.197647
-0.205475
-0.212964
-0.210113
-0.207036
-0.203778
-0.200407
-0.192036
-0.183778
-0.185701
-0.187964
-0.185543
-0.183462
-0.176697
-0.170136
-0.168778
-0.167647
-0.166742
-0.166018
-0.160452
-0.155023
-0.149728
-0.144525
-0.139253
-0.134185
-0.12914
-0.124095
-0.12905
-0.204027
-0.294027
-0.33405
-0.359095
-0.10914
0.195815
0.840747
1.52066
1.85054
1.55541
1.42529
0.680204
-0.129864
-0.86991
-0.924977
-0.960068
-0.835158
-0.695249
-0.465339
-0.26543
-0.180498
-0.110543
-0.0855882
-0.0656335
-0.0556787
-0.0457014
-0.0407014
-0.0357014
-0.0307014
-0.0256787
-0.0306561
-0.0306335
-0.0156109
-0.00563349
-0.000656106
0.00434389
0.00934389
0.0193665
0.0294118
0.0394344
0.0494344
0.0594344
0.0694344
0.0744118
0.0793665
0.0893213
0.099276
0.114208
0.129118
0.144027
0.158937
0.173869
0.183824
0.198778
0.213733
0.233643
0.253507
0.278394
0.308281
0.338145
0.367941
0.39767
0.432398
0.472149
0.511946
0.546855
0.576674
0.601335
0.625928
0.645498
0.665158
0.679932
0.694932
0.705045
0.705
0.694796
0.669615
0.624525
0.569548
0.504706
0.424977
0.345294
0.27043
0.200385
0.140339
0.0802941
0.0402262
0.000113115
-0.0350453
-0.0652263
-0.090362
-0.115452
-0.120566
-0.130701
-0.130837
-0.130973
-0.141109
-0.151244
-0.151403
-0.151584
-0.151742
-0.151878
-0.152014
-0.152149
-0.152285
-0.152421
-0.157557
-0.162534
-0.162285
-0.161538
-0.155339
-0.149842
-0.150271
-0.152805
-0.157557
-0.164276
-0.172217
-0.177896
-0.174955
-0.166267
-0.160091
-0.151629
-0.14457
-0.140973
-0.135973
-0.13224
-0.134593
-0.137195
-0.139706
-0.141425
-0.142376
-0.142941
-0.143213
-0.143416
-0.143552
-0.148665
-0.153756
-0.153801
-0.153824
-0.158869
-0.163937
-0.169072
-0.174231
-0.169344
-0.164457
-0.164593
-0.164729
-0.169842
-0.174955
-0.174977
-0.175136
-0.170294
-0.16543
-0.170543
-0.175679
-0.175837
-0.176018
-0.176222
-0.176425
-0.171629
-0.166833
-0.172036
-0.17724
-0.177489
-0.177783
-0.173122
-0.168507
-0.168914
-0.164344
-0.154774
-0.135181
-0.115611
-0.0961086
-0.0766516
-0.0721719
-0.0776471
-0.0580769
-0.0334615
-0.00882353
0.0158371
0.0205204
0.0252715
-0.0149321
-0.0450226
-0.0299774
-0.0147059
-0.0192308
-0.0285521
-0.0477375
-0.0768326
-0.125882
-0.159977
-0.16414
-0.168371
-0.177647
-0.187036
-0.181538
-0.171109
-0.160747
-0.155498
-0.160339
-0.165226
-0.165158
-0.165113
-0.165113
-0.165091
-0.160045
-0.155045
-0.150091
-0.145136
-0.150181
-0.155226
-0.150272
-0.145294
-0.140294
-0.135294
-0.130294
-0.160317
-0.205362
-0.31043
-0.41552
-0.335566
-0.220566
0.204412
0.669367
1.35432
1.92928
2.07423
1.95419
1.01416
0.169163
-0.465837
-0.900837
-0.945882
-0.890928
-0.66595
-0.46095
-0.28095
-0.16095
-0.10595
-0.0759502
-0.0759502
-0.0709502
-0.0609502
-0.0559502
-0.0509502
-0.0459502
-0.0509502
-0.0509502
-0.0409502
-0.0309729
-0.0210181
-0.016086
-0.0111765
-0.00124435
0.0087104
0.0136651
0.0136199
0.023552
0.0134615
0.053371
0.0632805
0.0682353
0.0732353
0.0832127
0.0931674
0.1081
0.123009
0.137896
0.15276
0.16767
0.182624
0.197557
0.217443
0.242353
0.267059
0.296674
0.321244
0.350747
0.380272
0.404842
0.439457
0.484095
0.528688
0.563258
0.592783
0.61724
0.636923
0.656833
0.676833
0.691923
0.696991
0.702081
0.692104
0.672172
0.622557
0.568167
0.498801
0.424412
0.349932
0.275317
0.205475
0.140475
0.0804525
0.0204072
-0.0147059
-0.0498869
-0.0750226
-0.100091
-0.110091
-0.120045
-0.135045
-0.15009
-0.150136
-0.150181
-0.155249
-0.160362
-0.160475
-0.160566
-0.160633
-0.160724
-0.160882
-0.161063
-0.166176
-0.170882
-0.170226
-0.169276
-0.168326
-0.168484
-0.165407
-0.165611
-0.178914
-0.194118
-0.199683
-0.202195
-0.204932
-0.200023
-0.189457
-0.176697
-0.163869
-0.155498
-0.151697
-0.151878
-0.144774
-0.148394
-0.152036
-0.154842
-0.156765
-0.157873
-0.158439
-0.158778
-0.159005
-0.159253
-0.159502
-0.159729
-0.159955
-0.165181
-0.170407
-0.170701
-0.171018
-0.171312
-0.171606
-0.1719
-0.172195
-0.172489
-0.17276
-0.173009
-0.173281
-0.173597
-0.173914
-0.174321
-0.174593
-0.179864
-0.185158
-0.185498
-0.185882
-0.181312
-0.176765
-0.17224
-0.167715
-0.17319
-0.178665
-0.179186
-0.174774
-0.180407
-0.136063
-0.111765
-0.0974887
-0.0832805
-0.0841403
-0.0850226
-0.0759502
-0.0618552
-0.0327149
-0.00846154
0.00585972
0.0152715
-0.0152489
-0.0407014
-0.0360634
-0.0311539
-0.0209955
-0.020543
-0.0447738
-0.0836878
-0.137308
-0.170814
-0.179231
-0.182692
-0.181222
-0.179887
-0.178688
-0.177624
-0.176697
-0.175973
-0.170453
-0.165023
-0.169706
-0.174457
-0.179276
-0.184118
-0.178982
-0.173914
-0.173914
-0.173914
-0.168914
-0.158937
-0.153982
-0.154005
-0.154005
-0.144027
-0.134072
-0.134095
-0.144095
-0.229118
-0.304163
-0.364186
-0.359186
-0.144186
0.200814
0.820814
1.40081
1.90079
2.09575
1.84572
1.25572
0.250724
-0.424276
-0.764276
-0.899276
-0.854276
-0.689276
-0.444276
-0.279276
-0.164231
-0.104186
-0.0641403
-0.054095
-0.0540498
-0.0539819
-0.0488914
-0.0438009
-0.0387104
-0.0336199
-0.0285294
-0.0234389
-0.0183484
-0.0132806
-0.00323531
0.00180994
0.00685519
0.0169231
0.0270136
0.0321041
0.0371946
0.0422851
0.0473756
0.0574661
0.0675566
0.0776471
0.0877376
0.0978281
0.107919
0.117986
0.133032
0.153077
0.173145
0.193258
0.213348
0.228416
0.243507
0.258575
0.283597
0.313597
0.343575
0.373462
0.408462
0.443484
0.483507
0.528552
0.56362
0.598688
0.62871
0.663688
0.683643
0.703643
0.713733
0.723937
0.729095
0.729163
0.689208
0.649253
0.589344
0.524548
0.444842
0.360113
0.285294
0.210407
0.150543
0.0906788
0.0457919
0.000882363
-0.0390045
-0.0738688
-0.088733
-0.103643
-0.118529
-0.128371
-0.138213
-0.148077
-0.152964
-0.157873
-0.15776
-0.157647
-0.157557
-0.157466
-0.157353
-0.157195
-0.162014
-0.166878
-0.161787
-0.156674
-0.161538
-0.166403
-0.166109
-0.165769
-0.170385
-0.174955
-0.174864
-0.174729
-0.170068
-0.165385
-0.165566
-0.165837
-0.164706
-0.162986
-0.16
-0.1569
-0.155226
-0.154231
-0.154186
-0.154525
-0.155113
-0.155633
-0.15586
-0.155973
-0.155882
-0.155656
-0.155362
-0.160045
-0.164774
-0.164525
-0.164299
-0.164095
-0.163914
-0.163756
-0.163575
-0.163371
-0.16319
-0.163009
-0.162828
-0.167647
-0.172466
-0.172285
-0.172104
-0.171923
-0.171765
-0.171652
-0.171561
-0.171493
-0.171425
-0.171335
-0.171199
-0.171063
-0.170973
-0.170905
-0.175837
-0.180747
-0.170611
-0.160475
-0.160362
-0.160271
-0.155204
-0.150158
-0.140113
-0.12509
-0.10509
-0.0850905
-0.0701131
-0.0601131
-0.0650679
-0.0650226
-0.0449773
-0.0199095
0.0152037
0.030362
0.0255656
0.0107692
-0.00902715
-0.0137557
-0.00339367
0.0019683
0.00237554
-0.0221946
-0.0667195
-0.101267
-0.13586
-0.15543
-0.170023
-0.174593
-0.169163
-0.16371
-0.168303
-0.172941
-0.17267
-0.162421
-0.162172
-0.1669
-0.171606
-0.171312
-0.171041
-0.170769
-0.170498
-0.165249
-0.160023
-0.159774
-0.159502
-0.159208
-0.158891
-0.148597
-0.138371
-0.133122
-0.127828
-0.127534
-0.172285
-0.267059
-0.351855
-0.421697
-0.341538
-0.136358
0.313824
0.929027
1.47925
1.99948
1.88468
1.50486
0.635068
-0.394706
-0.75448
-0.944253
-0.868959
-0.738665
-0.518416
-0.28819
-0.187986
-0.0978054
-0.0826018
-0.0723756
-0.0771493
-0.0819231
-0.0716968
-0.0614706
-0.0512669
-0.041086
-0.0308823
-0.0206561
-0.0204072
-0.0201357
-0.00988688
0.000339374
0.00558825
0.0108597
0.0211086
0.0313349
0.0365611
0.0417873
0.0520136
0.0672398
0.0824661
0.0976697
0.107851
0.113054
0.113258
0.123348
0.143348
0.163258
0.1831
0.197851
0.207534
0.227285
0.247059
0.266697
0.286199
0.315633
0.345091
0.379683
0.414412
0.449276
0.489208
0.524118
0.559072
0.594072
0.629276
0.654819
0.680611
0.691652
0.702783
0.713891
0.724932
0.715882
0.69681
0.657806
0.608824
0.544774
0.470611
0.396244
0.321719
0.242036
0.172285
0.107489
0.0476697
-0.00212669
-0.0369231
-0.0667647
-0.081629
-0.0914932
-0.106312
-0.126131
-0.140973
-0.15086
-0.155837
-0.160882
-0.165928
-0.16086
-0.15552
-0.159819
-0.163733
-0.167851
-0.172624
-0.174186
-0.168122
-0.174548
-0.188529
-0.202602
-0.205814
-0.20543
-0.200769
-0.194276
-0.196471
-0.198303
-0.194502
-0.189593
-0.182896
-0.174457
-0.157986
-0.143733
-0.141493
-0.143235
-0.144683
-0.147783
-0.166765
-0.170453
-0.163597
-0.160792
-0.156991
-0.152738
-0.158077
-0.163348
-0.163597
-0.163937
-0.169344
-0.174751
-0.170158
-0.165543
-0.170905
-0.176222
-0.181538
-0.186946
-0.182421
-0.177896
-0.183371
-0.188891
-0.189434
-0.189955
-0.190498
-0.191109
-0.19181
-0.192557
-0.193281
-0.188982
-0.184706
-0.190475
-0.19138
-0.167443
-0.148575
-0.129729
-0.115973
-0.102285
-0.0936878
-0.100204
-0.0967873
-0.0684389
-0.0401358
-0.0218778
-0.0235747
-0.0452263
-0.0617421
-0.0731222
-0.0693439
-0.050362
-0.0511086
-0.0665159
-0.111448
-0.165905
-0.194864
-0.213371
-0.216516
-0.214276
-0.211674
-0.208756
-0.205656
-0.207444
-0.204208
-0.186086
-0.183168
-0.180498
-0.1781
-0.175996
-0.179208
-0.182715
-0.181516
-0.180588
-0.174887
-0.169344
-0.168937
-0.168597
-0.168281
-0.168009
-0.167783
-0.162647
-0.142579
-0.127534
-0.127511
-0.152534
-0.207557
-0.282557
-0.367579
-0.322625
-0.177692
0.217194
0.752059
1.31197
1.88188
1.90676
1.71663
0.876516
-0.163575
-0.653643
-1.01369
-1.01378
-0.948914
-0.744027
-0.524118
-0.359231
-0.509367
-0.134457
-0.0695023
-0.0595702
-0.0496607
-0.0447286
-0.0397738
-0.0299096
-0.0200453
-0.0100905
-9.0532e-05
-9.05246e-05
-9.05171e-05
-9.04873e-05
0.00490952
0.0199095
0.0298869
0.0398643
0.049819
0.0547964
0.0597964
0.0597738
0.0697059
0.0895928
0.10448
0.114412
0.124344
0.139231
0.149095
0.153959
0.168801
0.18862
0.213416
0.233167
0.242828
0.252398
0.271878
0.291335
0.325792
0.360249
0.384751
0.409231
0.448688
0.483167
0.517692
0.552285
0.586946
0.621674
0.651538
0.681493
0.701471
0.721493
0.726516
0.731697
0.732059
0.727511
0.703122
0.663733
0.594253
0.524593
0.439706
0.364661
0.294502
0.219321
0.14914
0.0889819
0.0388461
-0.00628959
-0.051448
-0.076629
-0.0967647
-0.1169
-0.132036
-0.142195
-0.152376
-0.157579
-0.157805
-0.158032
-0.158281
-0.158552
-0.158824
-0.159095
-0.164231
-0.16914
-0.178688
-0.172805
-0.167104
-0.166878
-0.168529
-0.167647
-0.169593
-0.179593
-0.190158
-0.200747
-0.207014
-0.202986
-0.194887
-0.187262
-0.177104
-0.16448
-0.152851
-0.143167
-0.137964
-0.1381
-0.140679
-0.140091
-0.139525
-0.148688
-0.156923
-0.154163
-0.150701
-0.157964
-0.163552
-0.163869
-0.164163
-0.169434
-0.174729
-0.170045
-0.170339
-0.180611
-0.18586
-0.181086
-0.176335
-0.181629
-0.186968
-0.18733
-0.18267
-0.187986
-0.188281
-0.188575
-0.188891
-0.189253
-0.184683
-0.180136
-0.185566
-0.190996
-0.186448
-0.181923
-0.182398
-0.182919
-0.178348
-0.174005
-0.169683
-0.160362
-0.141063
-0.121833
-0.0976923
-0.0886199
-0.0946154
-0.0956109
-0.0816064
-0.0576245
-0.0336652
-0.024638
-0.0205656
-0.0264253
-0.0471946
-0.0578507
-0.0583937
-0.0487557
-0.0338688
-0.0436878
-0.06319
-0.112398
-0.161267
-0.174774
-0.187986
-0.186018
-0.178937
-0.181855
-0.184887
-0.178122
-0.171538
-0.170136
-0.168959
-0.173009
-0.177262
-0.176674
-0.176267
-0.171041
-0.165905
-0.165837
-0.165815
-0.160837
-0.155905
-0.156018
-0.156176
-0.156357
-0.151538
-0.141719
-0.136878
-0.137014
-0.167127
-0.21724
-0.297398
-0.392624
-0.347851
-0.223077
0.206697
0.751471
1.35127
1.97109
2.02091
1.94072
1.03054
0.00536197
-0.499819
-0.965
-0.965159
-0.940294
-0.695453
-0.455634
-0.305815
-0.165996
-0.116176
-0.0713575
-0.0664932
-0.0615837
-0.0616968
-0.0618326
-0.0519457
-0.0420362
-0.0371267
-0.0322172
-0.0273077
-0.0223982
-0.0125113
-0.00264708
0.0022398
0.00712668
0.0119683
0.0168099
0.0216968
0.0315837
0.0414253
0.0512443
0.0610633
0.065905
0.070724
0.080543
0.090362
0.105181
0.12
0.134819
0.149638
0.164434
0.179186
0.193914
0.208597
0.228145
0.212624
0.277081
0.301538
0.326041
0.350566
0.375068
0.404548
0.439005
0.473484
0.507986
0.542557
0.572262
0.602081
0.626968
0.651878
0.67181
0.686878
0.696968
0.70724
0.697738
0.673303
0.628959
0.579548
0.520023
0.450249
0.370226
0.300136
0.234977
0.169864
0.099819
0.0547511
0.0146606
-0.0204299
-0.0505204
-0.0755882
-0.0956335
-0.110701
-0.125814
-0.130973
-0.136154
-0.141335
-0.146516
-0.156697
-0.161878
-0.162059
-0.162195
-0.157262
-0.151946
-0.151109
-0.150136
-0.154095
-0.15957
-0.1669
-0.177489
-0.181584
-0.187059
-0.193824
-0.196425
-0.199434
-0.197511
-0.190362
-0.180226
-0.167149
-0.154751
-0.14362
-0.137443
-0.131606
-0.128303
-0.137308
-0.14638
-0.145407
-0.143326
-0.145158
-0.146335
-0.1469
-0.14724
-0.152376
-0.157534
-0.157738
-0.157986
-0.158258
-0.158507
-0.163733
-0.168937
-0.16914
-0.169367
-0.169638
-0.169932
-0.170204
-0.170475
-0.170747
-0.176018
-0.181335
-0.176697
-0.172059
-0.172421
-0.17276
-0.173077
-0.173439
-0.173869
-0.174344
-0.174864
-0.175385
-0.170905
-0.166471
-0.167081
-0.162715
-0.153394
-0.13914
-0.109955
-0.0958371
-0.0869457
-0.0828959
-0.0888914
-0.0849321
-0.0610181
-0.0371267
-0.00821266
-0.00423076
-0.0151584
-0.0309955
-0.0466968
-0.0472398
-0.0375566
-0.0326244
-0.032353
-0.0667421
-0.090724
-0.139299
-0.187489
-0.190407
-0.193145
-0.185815
-0.178507
-0.17129
-0.164208
-0.16233
-0.160656
-0.169163
-0.177896
-0.176991
-0.176109
-0.170362
-0.164751
-0.169253
-0.173846
-0.173507
-0.168258
-0.1581
-0.152941
-0.147783
-0.14267
-0.142602
-0.142557
-0.137511
-0.142489
-0.157489
-0.242466
-0.357421
-0.382353
-0.387262
-0.0471946
0.362851
1.05285
1.77781
2.00278
2.19278
1.31783
0.427919
-0.231991
-0.841901
-0.90181
-0.93172
-0.731652
-0.531606
-0.346538
-0.191448
-0.136357
-0.091267
-0.0761765
-0.061086
-0.0609955
-0.0608824
-0.0557466
-0.0505882
-0.0504072
-0.0502262
-0.0400679
-0.0249547
-0.0148642
-0.00975112
-0.00461537
0.000520378
0.000633504
0.00572401
0.0158145
0.0308824
0.0459276
0.0509729
0.0560181
0.061086
0.0661765
0.0812444
0.0962896
0.106357
0.116448
0.121516
0.126561
0.141606
0.161629
0.181606
0.201516
0.216335
0.231041
0.255679
0.280317
0.299977
0.324638
0.354276
0.383846
0.418416
0.453032
0.482692
0.517443
0.552285
0.587127
0.617059
0.642059
0.662149
0.677353
0.692624
0.6981
0.69371
0.674367
0.645113
0.595882
0.541652
0.467262
0.38776
0.313054
0.243145
0.17819
0.11819
0.0732127
0.0332579
-0.00669683
-0.0416516
-0.0665837
-0.0914932
-0.106471
-0.0965158
-0.136584
-0.146674
-0.151742
-0.156787
-0.161878
-0.167014
-0.162172
-0.15733
-0.162466
-0.167353
-0.161923
-0.155995
-0.159593
-0.163982
-0.157511
-0.155407
-0.161018
-0.16948
-0.185611
-0.200633
-0.209005
-0.211335
-0.202896
-0.19
-0.177851
-0.165023
-0.1569
-0.153801
-0.150588
-0.150792
-0.154095
-0.157805
-0.156742
-0.154774
-0.1619
-0.16819
-0.163801
-0.159208
-0.164434
-0.169615
-0.164751
-0.16491
-0.17009
-0.175271
-0.180475
-0.180724
-0.180995
-0.176244
-0.171448
-0.176629
-0.181833
-0.182059
-0.182308
-0.182602
-0.182919
-0.178235
-0.173552
-0.173846
-0.174163
-0.179502
-0.184909
-0.185385
-0.185837
-0.186267
-0.186742
-0.182262
-0.177828
-0.178462
-0.174163
-0.16491
-0.150724
-0.131584
-0.107511
-0.0885068
-0.0845249
-0.0905882
-0.0867195
-0.0728733
-0.0440045
-0.0151131
-0.0111539
-0.0121041
-0.0279638
-0.0537104
-0.0493439
-0.0447964
-0.0350227
-0.0249322
-0.0445249
-0.0687105
-0.127443
-0.17086
-0.179027
-0.186991
-0.184796
-0.182579
-0.180385
-0.178326
-0.181403
-0.184706
-0.178213
-0.171946
-0.170882
-0.17
-0.164276
-0.15871
-0.163281
-0.167964
-0.16276
-0.157602
-0.152376
-0.147308
-0.147262
-0.14724
-0.14224
-0.137308
-0.132443
-0.127557
-0.122647
-0.172738
-0.237828
-0.342873
-0.447873
-0.272919
-0.458009
0.5019
1.08681
1.63174
2.1067
1.83663
1.46654
0.471425
-0.39371
-0.688824
-0.903914
-0.829005
-0.704095
-0.469186
-0.279276
-0.184367
-0.10948
-0.0795702
-0.0596381
-0.0596607
-0.0596607
-0.0596833
-0.0547285
-0.0447512
-0.0397512
-0.0347738
-0.029819
-0.0248417
-0.0198417
-0.0148416
-0.00486426
0.00509049
0.0100452
0.015
0.02
0.0250452
0.0350452
0.045
0.0549321
0.0648416
0.0747511
0.0846606
0.0996154
0.109615
0.119615
0.129615
0.14957
0.16948
0.179389
0.189299
0.209208
0.229095
0.243959
0.263733
0.293394
0.323009
0.357602
0.387262
0.417036
0.446855
0.476697
0.511403
0.545928
0.575498
0.600158
0.625091
0.645249
0.660385
0.670475
0.680498
0.690453
0.685588
0.665905
0.621471
0.572195
0.497851
0.413416
0.348688
0.288733
0.22371
0.15862
0.103552
0.0535068
0.00848415
-0.0415158
-0.0665385
-0.0915837
-0.106629
-0.121674
-0.126697
-0.131697
-0.136674
-0.141652
-0.141697
-0.141787
-0.146878
-0.151968
-0.157036
-0.162081
-0.162172
-0.162217
-0.152172
-0.141674
-0.140747
-0.139661
-0.14362
-0.149163
-0.156674
-0.167489
-0.171312
-0.176018
-0.181878
-0.180475
-0.183213
-0.179706
-0.166584
-0.154276
-0.138756
-0.128552
-0.128122
-0.129887
-0.13319
-0.136448
-0.144299
-0.151131
-0.152127
-0.147715
-0.152986
-0.158145
-0.163258
-0.163416
-0.163597
-0.163801
-0.164005
-0.164186
-0.164367
-0.164548
-0.164729
-0.16991
-0.175113
-0.175271
-0.175498
-0.175701
-0.175905
-0.181109
-0.186357
-0.181652
-0.176946
-0.17224
-0.167557
-0.167896
-0.168235
-0.173575
-0.178891
-0.179231
-0.179593
-0.174977
-0.170362
-0.170747
-0.171176
-0.171652
-0.167149
-0.15767
-0.133281
-0.108959
-0.094638
-0.0803167
-0.0809729
-0.0866516
-0.0723303
-0.058009
-0.0236878
0.0106787
0.00511312
-0.000339357
-0.0307013
-0.0509502
-0.0410633
-0.0309728
-0.0307013
-0.0401131
-0.0742081
-0.107986
-0.151538
-0.174977
-0.178326
-0.181742
-0.175294
-0.168937
-0.162647
-0.156493
-0.160498
-0.164661
-0.168959
-0.173394
-0.172986
-0.172647
-0.167376
-0.162172
-0.167036
-0.171878
-0.171697
-0.166538
-0.156403
-0.151267
-0.146131
-0.141018
-0.140928
-0.140837
-0.130747
-0.140679
-0.155633
-0.250543
-0.340407
-0.370272
-0.355136
-0.0550226
0.315068
0.940136
1.50018
1.87023
1.94027
1.29534
0.585453
-0.249389
-0.794253
-0.884118
-0.859004
-0.678891
-0.488756
-0.29862
-0.173484
-0.108348
-0.0732126
-0.0630995
-0.058009
-0.0529185
-0.0477828
-0.042647
-0.0325339
-0.0224434
-0.0173529
-0.0122624
-0.00719456
-0.0021493
0.00296381
0.00809956
0.0132579
0.0184389
0.0285747
0.0236652
0.048733
0.0537783
0.0588235
0.0638688
0.078914
0.0939593
0.104005
0.11405
0.129118
0.144208
0.154299
0.164389
0.174457
0.189412
0.204457
0.219186
0.238846
0.258529
0.278213
0.297828
0.322376
0.346787
0.381131
0.415633
0.445294
0.475136
0.505113
0.540023
0.569842
0.599774
0.629842
0.655158
0.675769
0.681584
0.687489
0.688281
0.679005
0.649774
0.620588
0.56138
0.502104
0.42767
0.358077
0.288281
0.218371
0.158439
0.103484
0.0585747
0.0137104
-0.0211312
-0.0509502
-0.0707692
-0.0905882
-0.105453
-0.120362
-0.130294
-0.140271
-0.140249
-0.140226
-0.150249
-0.160339
-0.160452
-0.160317
-0.159864
-0.158959
-0.157783
-0.157127
-0.162579
-0.170588
-0.171131
-0.174299
-0.183529
-0.19138
-0.196765
-0.197941
-0.196244
-0.192262
-0.186312
-0.177896
-0.16267
-0.146787
-0.136357
-0.134412
-0.146041
-0.146674
-0.149887
-0.148552
-0.147127
-0.149887
-0.151787
-0.152851
-0.153394
-0.153688
-0.153846
-0.153982
-0.15414
-0.159321
-0.164502
-0.164706
-0.164887
-0.165045
-0.165226
-0.16043
-0.155633
-0.170837
-0.176063
-0.181312
-0.186584
-0.181878
-0.177195
-0.172602
-0.167919
-0.168258
-0.168643
-0.174072
-0.179525
-0.175
-0.17052
-0.171109
-0.171742
-0.172421
-0.173145
-0.173914
-0.154774
-0.175679
-0.106652
-0.0877149
-0.0888461
-0.0900452
-0.0762896
-0.0625565
-0.0288462
-0.00513575
-0.0163801
-0.0275113
-0.0535521
-0.0694796
-0.0552489
-0.0407692
-0.0512217
-0.0661312
-0.0856787
-0.114774
-0.163462
-0.18681
-0.189819
-0.192511
-0.189977
-0.18733
-0.179615
-0.171968
-0.169434
-0.167104
-0.164955
-0.163054
-0.161425
-0.160023
-0.163823
-0.167805
-0.166968
-0.166267
-0.170679
-0.175181
-0.169774
-0.164457
-0.159231
-0.149027
-0.143846
-0.138665
-0.133484
-0.123371
-0.118326
-0.168258
-0.228167
-0.323077
-0.377986
-0.257896
-0.0128054
0.55224
1.12224
1.69224
1.91226
1.51231
0.877353
-0.0826018
-0.702579
-0.907579
-0.972579
-0.892579
-0.732557
-0.507489
-0.337376
-0.21224
-0.132149
-0.0821493
-0.0571493
-0.0471493
-0.0421267
-0.0420814
-0.0420136
-0.0369231
-0.0268326
-0.0167421
-0.0116516
-0.00656109
0.00355204
0.0136878
0.0188235
0.0289593
0.0340724
0.0391629
0.0492534
0.0593439
0.064457
0.0695928
0.0796606
0.0897059
0.0997059
0.109661
0.124638
0.139548
0.144367
0.15414
0.168824
0.183484
0.2031
0.22267
0.24224
0.266697
0.291018
0.315294
0.334548
0.353914
0.383371
0.407919
0.437376
0.472104
0.5069
0.541765
0.571765
0.597059
0.627557
0.653258
0.679118
0.689932
0.700701
0.706357
0.701946
0.682602
0.698326
0.609005
0.559615
0.485136
0.41552
0.345679
0.275724
0.205747
0.145747
0.090724
0.0456787
0.000678703
-0.0342761
-0.0642534
-0.0942534
-0.109253
-0.119321
-0.129412
-0.139502
-0.144593
-0.149299
-0.153643
-0.157738
-0.156833
-0.157172
-0.154095
-0.153891
-0.166267
-0.18043
-0.190068
-0.19733
-0.196516
-0.191493
-0.193733
-0.195453
-0.192262
-0.189977
-0.188756
-0.188145
-0.182149
-0.174005
-0.163529
-0.155588
-0.151697
-0.144615
-0.140407
-0.135566
-0.133552
-0.137489
-0.141765
-0.150724
-0.158982
-0.166244
-0.172783
-0.168801
-0.16448
-0.164932
-0.165317
-0.165701
-0.166109
-0.171561
-0.177036
-0.177511
-0.178009
-0.178529
-0.179072
-0.184638
-0.190226
-0.195837
-0.201471
-0.197104
-0.19276
-0.193462
-0.194208
-0.195
-0.195837
-0.196719
-0.197647
-0.193643
-0.189706
-0.190837
-0.172014
-0.148281
-0.134729
-0.116267
-0.112896
-0.109593
-0.106335
-0.103122
-0.0749548
-0.0467421
-0.0384616
-0.0351358
-0.0617874
-0.0833484
-0.0847285
-0.0858371
-0.0766516
-0.0720362
-0.0869683
-0.116403
-0.165362
-0.193869
-0.201923
-0.209615
-0.206946
-0.204027
-0.20086
-0.197534
-0.194118
-0.190724
-0.187195
-0.184005
-0.180973
-0.178235
-0.175769
-0.17362
-0.171787
-0.170249
-0.163959
-0.157919
-0.162081
-0.166448
-0.160973
-0.155633
-0.15543
-0.140294
-0.135204
-0.135158
-0.140158
-0.230158
-0.310181
-0.365272
-0.370407
-0.100566
0.254253
0.894118
1.46903
1.87391
1.98378
1.46364
0.788507
-0.131606
-0.731719
-0.896878
-0.937036
-0.832172
-0.65233
-0.397511
-0.237692
-0.147851
-0.0929865
-0.0680996
-0.0582127
-0.0583485
-0.0584842
-0.05362
-0.0487331
-0.0438236
-0.0339141
-0.0240046
-0.0190951
-0.0141856
-0.00429869
0.00556556
0.0104524
0.010362
0.0202941
0.0302488
0.040181
0.0500905
0.055
0.0599095
0.0747963
0.0896606
0.0995022
0.109321
0.12414
0.138869
0.148462
0.157941
0.167353
0.181765
0.201176
0.220566
0.234932
0.249163
0.268258
0.29233
0.316403
0.340566
0.364796
0.399163
0.443665
0.473145
0.507647
0.537262
0.567014
0.597014
0.627217
0.642647
0.653281
0.668937
0.684593
0.685136
0.675588
0.641041
0.606493
0.546991
0.482511
0.407964
0.333281
0.258371
0.188326
0.133235
0.0780995
0.0329638
-0.012172
-0.0423303
-0.0675113
-0.0827149
-0.0979412
-0.113145
-0.128348
-0.13862
-0.148869
-0.149072
-0.148801
-0.153077
-0.15724
-0.156493
-0.157308
-0.160045
-0.165973
-0.174593
-0.184502
-0.194344
-0.200633
-0.203416
-0.20267
-0.204661
-0.201719
-0.189299
-0.182986
-0.177579
-0.171855
-0.17509
-0.175701
-0.168846
-0.160181
-0.151041
-0.144276
-0.140588
-0.136063
-0.134253
-0.143213
-0.152398
-0.151154
-0.149118
-0.15095
-0.152104
-0.152896
-0.153462
-0.153937
-0.154412
-0.154864
-0.155453
-0.156063
-0.156674
-0.157285
-0.157896
-0.163507
-0.16914
-0.169796
-0.170475
-0.171176
-0.1719
-0.17767
-0.183462
-0.179299
-0.175158
-0.181041
-0.186991
-0.183009
-0.17905
-0.175113
-0.171244
-0.177443
-0.163733
-0.140136
-0.121652
-0.103281
-0.100023
-0.101855
-0.0987331
-0.0956335
-0.0675792
-0.0395701
-0.0365611
-0.0334615
-0.0502715
-0.0669457
-0.0784389
-0.084638
-0.0654978
-0.0509276
-0.070905
-0.0953394
-0.144253
-0.182715
-0.200724
-0.213416
-0.205837
-0.198009
-0.194932
-0.191697
-0.188371
-0.185113
-0.181923
-0.178959
-0.176244
-0.173846
-0.171765
-0.17
-0.168529
-0.167285
-0.166267
-0.165475
-0.15991
-0.154457
-0.149095
-0.143824
-0.148643
-0.148529
-0.133484
-0.138484
-0.148529
-0.253575
-0.35362
-0.378688
-0.353778
-0.00384613
0.416109
1.11604
1.71595
2.00586
1.99077
1.22068
0.450588
-0.329502
-0.834615
-0.909774
-0.87491
-0.684977
-0.490045
-0.290113
-0.165158
-0.105226
-0.0753167
-0.0704072
-0.0654751
-0.0605204
-0.0555656
-0.0556109
-0.0556335
-0.0506335
-0.0406561
-0.0307014
-0.0257014
-0.0206561
-0.0106109
-0.000565626
0.00450225
0.00959275
0.0196832
0.0147737
0.0448416
0.0548869
0.0599321
0.0649774
0.0750226
0.085
0.094819
0.104548
0.119208
0.133846
0.143462
0.153054
0.167624
0.187059
0.201629
0.215882
0.235045
0.254276
0.27362
0.293009
0.317443
0.341833
0.376131
0.415588
0.450294
0.485294
0.520566
0.555973
0.586471
0.611946
0.637398
0.662986
0.68371
0.68948
0.695294
0.691063
0.676765
0.647376
0.617941
0.55362
0.489389
0.400045
0.315566
0.245882
0.176041
0.121086
0.0710407
0.0309955
-0.00904978
-0.044095
-0.0741403
-0.0941855
-0.114253
-0.124367
-0.134208
-0.138733
-0.142805
-0.146471
-0.15086
-0.156131
-0.163914
-0.164231
-0.16733
-0.182534
-0.196652
-0.198937
-0.196652
-0.195656
-0.19319
-0.189683
-0.186425
-0.183778
-0.182738
-0.183009
-0.183846
-0.189887
-0.19448
-0.187262
-0.1769
-0.168846
-0.15948
-0.150181
-0.144389
-0.142127
-0.138439
-0.137059
-0.146041
-0.154887
-0.152896
-0.150045
-0.151312
-0.152036
-0.152511
-0.152919
-0.158371
-0.163824
-0.164276
-0.164729
-0.165226
-0.165792
-0.166403
-0.167014
-0.172624
-0.178258
-0.178914
-0.179593
-0.185294
-0.191041
-0.191855
-0.192715
-0.188688
-0.184638
-0.185656
-0.186742
-0.187919
-0.174208
-0.145634
-0.132172
-0.118824
-0.115566
-0.112398
-0.109321
-0.111312
-0.0883711
-0.115452
-0.0425792
-0.0296833
-0.0517195
-0.0736878
-0.080543
-0.0872172
-0.0736425
-0.0597059
-0.0802941
-0.110339
-0.154864
-0.193914
-0.217466
-0.235588
-0.223824
-0.211177
-0.20819
-0.204932
-0.206425
-0.207805
-0.209072
-0.205294
-0.191516
-0.182851
-0.184299
-0.185995
-0.177941
-0.170272
-0.172964
-0.175996
-0.169367
-0.162964
-0.156765
-0.150747
-0.14991
-0.149231
-0.148688
-0.143235
-0.132873
-0.192579
-0.262353
-0.362149
-0.451968
-0.291787
-0.0966064
0.458529
1.01862
1.63371
2.1038
1.86889
1.46898
0.464118
-0.360724
-0.685611
-0.90052
-0.850407
-0.725272
-0.475136
-0.285
-0.184864
-0.114729
-0.0846154
-0.0645249
-0.0594118
-0.054276
-0.0541403
-0.0540045
-0.0488688
-0.038733
-0.0285973
-0.0234163
-0.01819
-0.0129638
-0.00773756
-0.0024887
0.00278279
0.00805428
0.0133031
0.0285068
0.0436878
0.0488688
0.0540497
0.0592534
0.0694796
0.0847059
0.0999321
0.110136
0.120249
0.130226
0.14009
0.154887
0.169661
0.184412
0.20414
0.223869
0.243484
0.267986
0.292443
0.31181
0.336244
0.370747
0.410362
0.445158
0.479932
0.514683
0.549525
0.57948
0.604683
0.635068
0.660679
0.686267
0.697195
0.70319
0.709118
0.704977
0.685792
0.656561
0.602398
0.533303
0.45414
0.374864
0.305407
0.230792
0.171041
0.226176
0.0563575
0.00658372
-0.0282127
-0.0630317
-0.0828959
-0.102805
-0.117738
-0.132692
-0.137647
-0.142602
-0.152579
-0.16233
-0.166787
-0.170792
-0.165226
-0.159525
-0.164615
-0.172308
-0.177579
-0.185362
-0.195181
-0.203914
-0.210882
-0.213235
-0.206674
-0.198959
-0.195611
-0.193032
-0.196425
-0.200204
-0.194005
-0.185837
-0.17552
-0.162557
-0.157557
-0.153688
-0.151652
-0.149186
-0.140498
-0.138326
-0.147149
-0.155724
-0.158733
-0.160656
-0.161765
-0.162466
-0.162896
-0.163235
-0.163507
-0.163756
-0.164005
-0.164299
-0.164638
-0.165
-0.165385
-0.170792
-0.176222
-0.181652
-0.187081
-0.187511
-0.188032
-0.188643
-0.184299
-0.175
-0.170679
-0.176335
-0.182014
-0.187738
-0.193552
-0.194434
-0.195362
-0.191358
-0.172511
-0.148778
-0.130136
-0.116606
-0.11319
-0.114887
-0.116652
-0.118439
-0.0952489
-0.0670589
-0.0538236
-0.035543
-0.0522625
-0.0688914
-0.080362
-0.0915611
-0.0724661
-0.0529412
-0.0679638
-0.0875113
-0.136584
-0.175204
-0.198348
-0.216041
-0.213303
-0.210317
-0.212081
-0.213665
-0.205113
-0.196561
-0.193054
-0.189751
-0.191719
-0.193959
-0.196471
-0.199299
-0.192466
-0.185882
-0.184027
-0.182919
-0.177014
-0.171244
-0.165611
-0.160113
-0.159751
-0.154457
-0.144231
-0.139027
-0.138846
-0.19371
-0.25362
-0.348552
-0.258507
-0.293439
-0.113348
0.466719
1.04176
1.60183
2.05192
1.81199
1.42204
0.407059
-0.447941
-0.762919
-0.972873
-0.902805
-0.777738
-0.53267
-0.332715
-0.212738
-0.127692
-0.0975792
-0.0774661
-0.0623982
-0.0573529
-0.0523303
-0.0422624
-0.0321041
-0.0269231
-0.0317647
-0.0316516
-0.0215611
-0.0114706
-0.0013801
0.00873303
0.0188688
0.0240271
0.0242081
0.0293891
0.0395475
0.0496606
0.0597511
0.0748642
0.09
0.100136
0.105226
0.110226
0.115113
0.139887
0.16457
0.179185
0.193801
0.203484
0.213145
0.222692
0.237059
0.261244
0.285407
0.309615
0.338959
0.383439
0.417919
0.447421
0.482059
0.52181
0.561765
0.591878
0.617149
0.642557
0.6631
0.678801
0.69457
0.71543
0.721222
0.721946
0.702602
0.67319
0.613891
0.549706
0.480453
0.406109
0.331538
0.256787
0.181946
0.112036
0.0671041
0.0171267
-0.0179185
-0.053009
-0.0730769
-0.0931222
-0.10319
-0.113303
-0.133484
-0.153552
-0.153439
-0.152964
-0.157081
-0.16138
-0.16595
-0.172398
-0.180769
-0.192036
-0.191041
-0.190611
-0.200226
-0.205453
-0.206493
-0.204683
-0.200611
-0.196855
-0.19362
-0.191606
-0.190023
-0.18957
-0.189072
-0.186335
-0.186244
-0.183688
-0.16914
-0.155724
-0.144118
-0.137104
-0.138959
-0.142262
-0.151538
-0.15552
-0.163959
-0.146312
-0.147783
-0.158733
-0.169321
-0.164796
-0.160249
-0.160701
-0.161176
-0.171674
-0.182172
-0.18267
-0.183167
-0.17871
-0.174321
-0.174842
-0.175498
-0.181154
-0.186833
-0.192534
-0.198281
-0.199095
-0.194955
-0.185837
-0.181765
-0.187738
-0.193756
-0.199796
-0.195928
-0.182195
-0.16362
-0.140204
-0.121833
-0.108529
-0.105317
-0.112172
-0.104095
-0.086086
-0.0531222
-0.020181
-0.0222624
-0.034276
-0.0661765
-0.0928959
-0.0743439
-0.0554751
-0.066267
-0.0765837
-0.11638
-0.150611
-0.184299
-0.212557
-0.215407
-0.217896
-0.215068
-0.212014
-0.20871
-0.205226
-0.196606
-0.187964
-0.189344
-0.190973
-0.187873
-0.185091
-0.182647
-0.180498
-0.183643
-0.187104
-0.18086
-0.169842
-0.159072
-0.153439
-0.152941
-0.152557
-0.147285
-0.137059
-0.126878
-0.156787
-0.201787
-0.286787
-0.371787
-0.32681
-0.266855
0.148077
0.577964
1.22278
1.83256
1.9624
1.97231
1.00722
0.0921267
-0.532964
-1.03305
-1.01814
-0.963235
-0.788348
-0.603484
-0.38862
-0.218756
-0.133846
-0.0789593
-0.0641176
-0.0542986
-0.044457
-0.0345701
-0.034638
-0.0346832
-0.0297285
