ekg
0
0.0166667
0.00999999
0.00714284
0.0122222
0.0268182
0.0484616
0.0556667
0.0647059
0.061579
0.06
0.0530435
0.05
0.0362963
0.0212069
0.0190323
0.0110606
-0.00771429
-0.0271622
-0.0429487
-0.055122
-0.0626744
-0.0705556
-0.0743617
-0.0786735
-0.0883333
-0.0931132
-0.0933636
-0.0941228
-0.0847458
-0.0801639
-0.0860317
-0.0875385
-0.0889552
-0.0903623
-0.0920423
-0.0940411
-0.0859333
-0.0780519
-0.0705063
-0.0628395
-0.0650602
-0.0723529
-0.0750575
-0.0679214
-0.0605494
-0.058172
-0.0560526
-0.0540722
-0.0521717
-0.055495
-0.058932
-0.0571429
-0.0553271
-0.048578
-0.042027
-0.0455752
-0.0491739
-0.0579487
-0.0666807
-0.0654132
-0.0642276
-0.05284
-0.0416142
-0.0456202
-0.0495802
-0.0537594
-0.0581481
-0.0573723
-0.0564029
-0.0508511
-0.0462587
-0.0523103
-0.0584694
-0.0641611
-0.0643046
-0.0538235
-0.0479355
-0.0520701
-0.0563208
-0.0604969
-0.064816
-0.0692424
-0.0735629
-0.0628106
-0.0569883
-0.0512428
-0.0507143
-0.0502542
-0.0598324
-0.0678729
-0.0655738
-0.0671351
-0.0727273
-0.0849471
-0.0935602
-0.0921244
-0.087718
-0.084264
-0.0774121
-0.0716169
-0.0708374
-0.07
-0.0789614
-0.0880144
-0.0872512
-0.0864319
-0.0856047
-0.0847005
-0.07879
-0.0730543
-0.0716968
-0.0700679
-0.0683937
-0.066629
-0.0597738
-0.0528733
-0.0559276
-0.0590272
-0.057172
-0.0554073
-0.0487331
-0.052172
-0.065724
-0.0594797
-0.0684163
-0.0374208
-0.0365385
-0.0408371
-0.0453394
-0.0400226
-0.034819
-0.0246833
-0.014638
-0.0196833
-0.0247964
-0.035
-0.0452715
-0.045543
-0.0359276
-0.0011765
0.0332353
0.0625339
0.0867873
0.100995
0.11009
0.0940724
0.0779412
0.0567421
0.0355203
0.014276
-0.0120136
-0.0383937
-0.0548417
-0.0663575
-0.0679186
-0.0595023
-0.056086
-0.0626471
-0.0691177
-0.0705204
-0.0668779
-0.0581675
-0.0542987
-0.0602715
-0.066086
-0.0717421
-0.0772851
-0.0777376
-0.0831448
-0.0885295
-0.0838688
-0.0791177
-0.0692308
-0.0592534
-0.0592534
-0.0592534
-0.0492761
-0.0643213
-0.159367
-0.234389
-0.254344
-0.209253
-0.0291856
0.270905
0.741018
1.19609
1.63115
1.60124
1.09131
0.56638
0.0264479
-0.273552
-0.40862
-0.42371
-0.368756
-0.293756
-0.21371
-0.143665
-0.08362
-0.0685747
-0.0735521
-0.0785973
-0.0786878
-0.0887331
-0.103733
-0.108733
-0.103733
-0.0937557
-0.0788009
-0.0838009
-0.0887557
-0.0886878
-0.0885973
-0.0935521
-0.0985068
-0.103394
-0.108281
-0.0982127
-0.0881901
-0.0831901
-0.07819
-0.0731674
-0.0681222
-0.0731222
-0.0781222
-0.0730996
-0.0680543
-0.0630317
-0.058009
-0.0579638
-0.0578959
-0.0577828
-0.0527375
-0.0378054
-0.0278507
-0.0279412
-0.0228733
-0.0127828
0.00223982
0.0171946
0.0221719
0.0221719
0.0272624
0.0374208
0.0424887
0.0474661
0.0523529
0.0470815
0.0666516
0.0411991
0.115882
0.130792
0.135973
0.141312
0.161719
0.182217
0.202715
0.223167
0.233552
0.243914
0.259253
0.27448
0.279548
0.289548
0.30448
0.314502
0.31457
0.309661
0.289729
0.274774
0.259819
0.239864
0.204932
0.170045
0.140158
0.110272
0.0803846
0.0554073
0.035362
0.0203168
0.0102715
-0.00979637
-0.0298869
-0.0399321
-0.0499321
-0.055
-0.0549774
-0.054638
-0.0540498
-0.0584842
-0.0683484
-0.0737104
-0.0750905
-0.0872624
-0.100317
-0.0937556
-0.0855656
-0.0851357
-0.0821041
-0.0830317
-0.0847964
-0.0727828
-0.0621493
-0.0623077
-0.0628959
-0.0685973
-0.074276
-0.0748869
-0.0752489
-0.0854072
-0.0904751
-0.075543
-0.0655656
-0.0705204
-0.0755203
-0.0755882
-0.075724
-0.0708823
-0.0659955
-0.0710407
-0.0761312
-0.081267
-0.0863801
-0.0864706
-0.0965611
-0.111674
-0.111878
-0.102149
-0.0923756
-0.0825566
-0.0777149
-0.0828507
-0.0879864
-0.0781222
-0.0783032
-0.0785294
-0.078733
-0.0789367
-0.0841629
-0.0893891
-0.0945928
-0.099819
-0.0901131
-0.0804072
-0.0806561
-0.0808824
-0.0861312
-0.0914027
-0.0816968
-0.0719457
-0.0721493
-0.0723756
-0.0826471
-0.0879638
-0.0733032
-0.0586425
-0.0489819
-0.0243665
0.0101584
0.0247059
0.0290724
0.013733
-0.0166063
-0.0270136
-0.0274661
-0.0378733
-0.0532579
-0.0586199
-0.0639593
-0.0793213
-0.0946833
-0.0949547
-0.0851357
-0.0853167
-0.0804525
-0.100452
-0.100317
-0.100091
-0.0997964
-0.0995249
-0.0992308
-0.0938688
-0.0884842
-0.0930995
-0.0977828
-0.102511
-0.107308
-0.092172
-0.0770814
-0.0821267
-0.0870588
-0.0769909
-0.0669683
-0.0669909
-0.0670362
-0.0521041
-0.0721946
-0.132285
-0.202376
-0.292466
-0.272579
-0.182738
0.0870588
0.441833
0.936606
1.49138
1.58615
1.52593
0.920747
0.180611
-0.15957
-0.429796
-0.425
-0.385181
-0.305362
-0.225543
-0.155724
-0.090905
-0.076086
-0.061267
-0.0664706
-0.0716742
-0.0868326
-0.101968
-0.102104
-0.10224
-0.0923982
-0.0825792
-0.0827376
-0.0828733
-0.078009
-0.0731222
-0.0782353
-0.0833937
-0.0885747
-0.0888009
-0.074095
-0.0643891
-0.064638
-0.0648416
-0.065
-0.0651131
-0.0602263
-0.0553846
-0.0505204
-0.0456561
-0.0457919
-0.0408824
-0.0309276
-0.0260407
-0.0312217
-0.0263801
-0.0115159
-0.00662899
-0.00171948
0.00319002
0.00809952
0.0179638
0.0327828
0.0376244
0.0425113
0.0524434
0.0623982
0.0772851
0.0920362
0.0967421
0.10138
0.115928
0.130611
0.14552
0.160588
0.170769
0.185905
0.205905
0.220928
0.231018
0.246109
0.261176
0.276267
0.29138
0.301448
0.296471
0.291448
0.296425
0.296425
0.281471
0.261448
0.241448
0.221403
0.206312
0.186244
0.156199
0.131176
0.0961765
0.0761312
0.0560634
0.0410181
0.0259502
0.0108823
0.0208371
-0.0192308
-0.0293439
-0.039457
-0.0493665
-0.0540272
-0.0584163
-0.0574661
-0.0569005
-0.0570815
-0.0591177
-0.0632579
-0.0695701
-0.0728054
-0.0740498
-0.0895701
-0.0979638
-0.0808823
-0.0624208
-0.0633711
-0.0673304
-0.0599322
-0.054457
-0.0505883
-0.0469683
-0.0483937
-0.049457
-0.0551584
-0.0604751
-0.0604299
-0.0603167
-0.0651357
-0.0699774
-0.0648416
-0.0597737
-0.0647738
-0.0697964
-0.0648416
-0.0598416
-0.0597964
-0.0597511
-0.0647059
-0.0746606
-0.0795928
-0.0745023
-0.0694344
-0.0694344
-0.069457
-0.0694344
-0.0693891
-0.0693213
-0.0692534
-0.0742308
-0.0792308
-0.0742081
-0.0691629
-0.0691177
-0.069095
-0.079095
-0.0890498
-0.0789367
-0.0688462
-0.0788235
-0.0888235
-0.0838009
-0.0787783
-0.0787557
-0.0787557
-0.0737783
-0.0687783
-0.063733
-0.0636878
-0.0736652
-0.0786652
-0.0736652
-0.0485973
-0.0234842
0.00656108
0.0365385
0.0315385
0.0165385
-0.00348417
-0.0235294
-0.0286199
-0.0287104
-0.0437557
-0.0587783
-0.0688009
-0.0788009
-0.0887783
-0.098733
-0.103665
-0.108575
-0.0984842
-0.088371
-0.09319
-0.0978959
-0.102557
-0.107217
-0.0968552
-0.0864706
-0.0910407
-0.095543
-0.0950226
-0.0945023
-0.0890272
-0.0885973
-0.0982127
-0.0978054
-0.0823756
-0.071991
-0.0715385
-0.0662217
-0.055905
-0.0906561
-0.145475
-0.205317
-0.265181
-0.200023
-0.0948416
0.245362
0.620588
1.12079
1.63597
1.46618
1.6614
0.581584
-0.0732805
-0.283077
-0.472828
-0.41267
-0.347579
-0.262489
-0.177376
-0.117195
-0.0669683
-0.0667195
-0.066448
-0.0811991
-0.0959728
-0.0957466
-0.0955204
-0.0953167
-0.0951131
-0.0948642
-0.094638
-0.0894796
-0.0843213
-0.0841176
-0.0838914
-0.0836651
-0.0833936
-0.0780995
-0.077828
-0.0875566
-0.0873077
-0.0770814
-0.0718552
-0.0666289
-0.0613801
-0.0661086
-0.0658597
-0.0556335
-0.0504299
-0.0502489
-0.0500226
-0.0447511
-0.0344796
-0.0292081
-0.0339593
-0.038733
-0.0284842
-0.0182127
-0.00798642
0.00219458
0.00739819
0.0126244
0.0228281
0.0330091
0.0382127
0.0434389
0.0487104
0.0590272
0.0743213
0.0845928
0.0848869
0.0902489
0.110679
0.131267
0.142014
0.15776
0.178462
0.19905
0.219525
0.234955
0.245362
0.255747
0.266109
0.276403
0.286629
0.296855
0.307059
0.312172
0.307217
0.29733
0.287511
0.262647
0.237715
0.217692
0.192579
0.167421
0.142217
0.106878
0.0714932
0.0461539
0.020905
0.0107692
0.000656109
-0.0195023
-0.0396154
-0.0445928
-0.0494796
-0.0593213
-0.0691176
-0.0638688
-0.0587557
-0.0588688
-0.0592308
-0.0648416
-0.070181
-0.0750679
-0.078371
-0.0699321
-0.059276
-0.0513348
-0.0441403
-0.0360407
-0.0328507
-0.037647
-0.0384163
-0.0300679
-0.0264479
-0.0225339
-0.0232353
-0.033552
-0.0386651
-0.043552
-0.048371
-0.0479412
-0.0472172
-0.0464253
-0.0456787
-0.0455204
-0.0512217
-0.0586878
-0.0532805
-0.0496606
-0.0626923
-0.0738914
-0.0774887
-0.0787783
-0.0878281
-0.0963801
-0.0995701
-0.103077
-0.0912896
-0.0805882
-0.0802036
-0.0799774
-0.0849095
-0.0897964
-0.0846833
-0.0795249
-0.079276
-0.0789819
-0.0836652
-0.0883484
-0.0880091
-0.0876018
-0.0921493
-0.0967647
-0.091448
-0.086086
-0.0856787
-0.0852262
-0.0847285
-0.0842308
-0.078733
-0.0731901
-0.0726018
-0.071991
-0.0763575
-0.0857014
-0.09
-0.0892308
-0.0884389
-0.0776923
-0.0669457
-0.0711312
-0.0752489
-0.0793213
-0.0833484
-0.0773303
-0.0712443
-0.0650905
-0.0588914
-0.067647
-0.0764027
-0.0701584
-0.0638687
-0.0725339
-0.076199
-0.0598642
-0.0485746
-0.0523755
-0.0562443
-0.0501809
-0.0392986
-0.0235972
-0.0080316
0.0123756
0.0326245
0.0576924
0.062534
0.052172
0.0316743
0.0109956
0.00513583
0.00411773
-0.00703611
-0.0233257
-0.0347058
-0.0461764
-0.0527601
-0.0544343
-0.0611085
-0.0677375
-0.0742986
-0.0807692
-0.0771719
-0.0734841
-0.0846832
-0.0957918
-0.0867873
-0.0776244
-0.0833258
-0.0889366
-0.084457
-0.0799095
-0.0752941
-0.0706109
-0.0708145
-0.0709276
-0.0709502
-0.0709502
-0.0559728
-0.0559728
-0.0709502
-0.125973
-0.206018
-0.236063
-0.226109
-0.0961312
0.0938688
0.483801
0.953665
1.34857
1.71853
1.31848
0.743439
0.233394
-0.261652
-0.371719
-0.44681
-0.376946
-0.452127
-0.212262
-0.132353
-0.0924208
-0.052466
-0.0575565
-0.0626923
-0.0728054
-0.0828959
-0.0879638
-0.093009
-0.0930769
-0.0931448
-0.0981674
-0.103213
-0.0932353
-0.0833936
-0.0835068
-0.0835746
-0.0836199
-0.0836877
-0.0787783
-0.0738687
-0.0739366
-0.0739592
-0.0739592
-0.0739592
-0.0739819
-0.0740045
-0.0740045
-0.0690497
-0.0591402
-0.0541855
-0.0491855
-0.0442081
-0.0442533
-0.0393212
-0.0294117
-0.0245022
-0.0195927
-0.0146379
-0.0146379
-0.0046832
0.0052263
0.00518105
0.00518105
0.0151132
0.0250001
0.0399548
0.0549548
0.0599322
0.0648869
0.0798417
0.0948191
0.104864
0.114977
0.125204
0.140566
0.156063
0.166606
0.172127
0.187489
0.217692
0.242896
0.253122
0.263303
0.278416
0.293439
0.308371
0.318281
0.32319
0.3181
0.303009
0.282919
0.262828
0.237738
0.207647
0.182511
0.16233
0.132195
0.102104
0.081991
0.0618553
0.0467195
0.0265838
0.0114707
-0.00361985
-0.0186877
-0.033733
-0.0387782
-0.0438235
-0.0537782
-0.0637104
-0.058733
-0.0540271
-0.0547058
-0.0555429
-0.0613122
-0.0664932
-0.0558823
-0.0435067
-0.0390045
-0.0326923
-0.0296832
-0.0284841
-0.0248868
-0.023552
-0.0294117
-0.0358144
-0.0326018
-0.0290723
-0.0308823
-0.0316063
-0.0369683
-0.0421719
-0.0372171
-0.032285
-0.0323755
-0.0324886
-0.0376244
-0.0427827
-0.0429637
-0.0481447
-0.0583484
-0.0536198
-0.063914
-0.0391176
-0.0442759
-0.0494796
-0.0547963
-0.0502488
-0.045837
-0.0465384
-0.0472624
-0.053009
-0.0586877
-0.0592533
-0.0597511
-0.0701809
-0.0805429
-0.0709502
-0.0611538
-0.0612669
-0.0613122
-0.0612895
-0.0612669
-0.0612669
-0.0612217
-0.0561085
-0.0509502
-0.0557465
-0.0605429
-0.0603619
-0.0601357
-0.0648642
-0.0695927
-0.0643212
-0.0590045
-0.0586425
-0.0582353
-0.0577828
-0.0573303
-0.0519004
-0.0464479
-0.0459502
-0.0453846
-0.0495475
-0.0583257
-0.0618325
-0.0651583
-0.0688008
-0.0530316
-0.0386425
-0.0458597
-0.0549999
-0.061199
-0.0668099
-0.0612895
-0.0531447
-0.0521945
-0.0499547
-0.051561
-0.0533257
-0.0553166
-0.0577149
-0.0505429
-0.0438687
-0.0426922
-0.0416967
-0.0408596
-0.0400904
-0.0393891
-0.0387782
-0.0332578
-0.0278053
-0.0274433
-0.0271266
-0.0318551
-0.0366515
-0.0365157
-0.0364253
-0.04138
-0.0463574
-0.0413574
-0.0363574
-0.0313574
-0.0263574
-0.0313574
-0.03138
-0.0164253
-0.0164479
-0.0164479
-0.0214479
-0.0264479
-0.0264705
-0.0265158
-0.036561
-0.0466063
-0.0366742
-0.0267873
-0.026923
-0.0270588
-0.0272171
-0.0273981
-0.0226018
-0.0178959
-0.0182352
-0.018552
-0.0238687
-0.0292081
-0.0295927
-0.0300226
-0.0304751
-0.0259502
-0.0164932
-0.0171041
-0.0278281
-0.0285068
-0.019276
0.00490949
0.0340271
0.0630769
0.0920815
0.101041
0.104932
0.0887331
0.0624435
0.046086
0.0296607
0.0131448
0.0214932
-0.0202262
-0.0319683
-0.0437557
-0.0555656
-0.0523982
-0.0492534
-0.0561086
-0.0629185
-0.069638
-0.0762217
-0.0727149
-0.0691177
-0.0704072
-0.0715385
-0.072828
-0.073733
-0.0745249
-0.075181
-0.070724
-0.0661991
-0.0616064
-0.0519683
-0.0422625
-0.0375113
-0.0427376
-0.0929186
-0.168077
-0.213303
-0.238575
-0.158824
-0.0240498
0.295769
0.680633
1.13048
1.59529
1.47511
1.23993
0.674796
0.0697059
-0.205385
-0.455475
-0.425588
-0.390724
-0.320882
-0.246063
-0.161199
-0.0812896
-0.0664028
-0.0515385
-0.0666743
-0.0817874
-0.0818553
-0.0819005
-0.0819457
-0.081991
-0.0870362
-0.0920589
-0.0920815
-0.0921493
-0.0872398
-0.0822851
-0.0873077
-0.0923756
-0.0874435
-0.0824887
-0.0825113
-0.0824887
-0.0824661
-0.0824661
-0.0774208
-0.0723303
-0.0721946
-0.0720815
-0.071991
-0.0718552
-0.0716968
-0.0716742
-0.0717421
-0.0667195
-0.056629
-0.0515611
-0.0465158
-0.0414706
-0.0414253
-0.0263575
-0.011267
-0.0111538
-0.0110181
-0.00592759
-0.000859715
0.00425341
0.00938914
0.00950227
0.0146154
0.0347738
0.0499321
0.0650679
0.0802036
0.0853167
0.0955656
0.115973
0.131516
0.142195
0.157919
0.173665
0.189367
0.204977
0.220498
0.230928
0.25129
0.276697
0.291946
0.302172
0.307308
0.312353
0.317443
0.317579
0.307692
0.292783
0.267828
0.242828
0.217873
0.192964
0.158032
0.188077
0.0981448
0.0782353
0.0533258
0.0283937
0.013439
-0.00151581
-0.0114253
-0.0212669
-0.0260407
-0.0307692
-0.0405429
-0.0505656
-0.0459049
-0.0414253
-0.0520588
-0.0623755
-0.0570814
-0.0503393
-0.0468552
-0.0413574
-0.0337782
-0.026742
-0.0207692
-0.0173529
-0.0166742
-0.0172172
-0.0188687
-0.0203619
-0.0216742
-0.0227149
-0.0284615
-0.0338009
-0.0287556
-0.0236651
-0.0235294
-0.0285294
-0.0386199
-0.0436877
-0.0387103
-0.0336877
-0.0337103
-0.0388687
-0.0441402
-0.0395022
-0.0350225
-0.0456787
-0.0562895
-0.0518325
-0.0473302
-0.0477375
-0.0480542
-0.0533031
-0.0584841
-0.0535972
-0.0486877
-0.058733
-0.0687103
-0.0686651
-0.068552
-0.078371
-0.0832126
-0.0630769
-0.0529411
-0.0628054
-0.0676244
-0.0623755
-0.0571266
-0.0568778
-0.0566289
-0.0564027
-0.0561085
-0.0607466
-0.0654072
-0.0600905
-0.0597285
-0.0693439
-0.0740271
-0.0685973
-0.0628054
-0.0617194
-0.0603167
-0.064095
-0.0634389
-0.0490271
-0.0563122
-0.0656108
-0.0720362
-0.0782579
-0.0834163
-0.0859728
-0.0904977
-0.0936651
-0.0858145
-0.0778733
-0.0750226
-0.072466
-0.0751809
-0.0781447
-0.0664027
-0.0546832
-0.0579864
-0.061199
-0.0593438
-0.0575113
-0.0507239
-0.0440271
-0.0474208
-0.0509728
-0.0446832
-0.0385294
-0.0422171
-0.0463122
-0.0454977
-0.0398189
-0.029276
-0.0238008
-0.0283936
-0.0330542
-0.0377827
-0.0425339
-0.0373076
-0.0321266
-0.0370135
-0.041923
-0.0418325
-0.0317646
-0.0317194
-0.0316741
-0.0316289
-0.0266063
-0.0216062
-0.0216289
-0.0216741
-0.0217194
-0.0217872
-0.0269004
-0.0320361
-0.0371718
-0.0423302
-0.032466
-0.0227375
-0.0280768
-0.0334388
-0.0287782
-0.0241628
-0.0096153
-0.00515829
-0.0108144
-0.0215158
-0.0322171
-0.0229637
0.00122178
0.0203394
0.0393666
0.0733259
0.107217
0.100996
0.0796607
0.0632806
0.0468552
0.0303168
0.0137104
-0.00298639
-0.0197511
-0.0264932
-0.0332126
-0.045
-0.0518099
-0.068552
-0.0852262
-0.0818778
-0.0784389
-0.0797737
-0.0809276
-0.0869683
-0.0929638
-0.0888688
-0.084638
-0.0802941
-0.0758371
-0.076267
-0.0765837
-0.0718326
-0.0670588
-0.0722172
-0.0723756
-0.0525792
-0.0727828
-0.152941
-0.213054
-0.263145
-0.208258
-0.0684163
0.221448
0.601403
1.05636
1.54631
1.51629
1.29129
0.731312
0.0763349
-0.208756
-0.418937
-0.424072
-0.394163
-0.309231
-0.224276
-0.154344
-0.079457
-0.0695701
-0.0596606
-0.0747738
-0.0898869
-0.0949548
-0.1
-0.105023
-0.11
-0.0999548
-0.0899547
-0.095
-0.100045
-0.10009
-0.100113
-0.0950679
-0.0900679
-0.0900905
-0.0900905
-0.0851131
-0.0801584
-0.0802262
-0.0802941
-0.0803167
-0.0752715
-0.0652036
-0.0602036
-0.0652488
-0.0702488
-0.0652488
-0.0602488
-0.0552488
-0.0502488
-0.0452488
-0.0402488
-0.0402489
-0.0352262
-0.025181
-0.0201583
-0.0201357
-0.0150905
-0.0200679
0.00995477
0.02
0.0200226
0.0200226
0.0350226
0.0500226
0.0650679
0.0801131
0.0851358
0.0901131
0.105068
0.120091
0.130204
0.145385
0.165656
0.186109
0.201697
0.217195
0.232534
0.247715
0.272715
0.287489
0.302059
0.311584
0.311086
0.310701
0.315407
0.310068
0.294751
0.279502
0.264276
0.239072
0.208891
0.178756
0.143665
0.128552
0.113416
0.0882805
0.0631448
0.0380543
0.013009
-0.0120136
-0.0320136
-0.0420136
-0.0520136
-0.0520362
-0.0520588
-0.0570136
-0.0620814
-0.0674887
-0.0731674
-0.0691177
-0.0648643
-0.0700226
-0.0738914
-0.0760407
-0.0760633
-0.0738009
-0.0711312
-0.0689819
-0.0646606
-0.0436878
-0.030181
-0.0390271
-0.0502941
-0.0635521
-0.0775113
-0.0860181
-0.0858597
-0.0775113
-0.0723982
-0.0711086
-0.0747738
-0.0835294
-0.0876471
-0.0871267
-0.0920362
-0.102217
-0.0974661
-0.0827376
-0.0780317
-0.0833258
-0.0935746
-0.108801
-0.0940271
-0.0792534
-0.0794796
-0.0797059
-0.0799095
-0.0800905
-0.0852489
-0.0903846
-0.100543
-0.110701
-0.100837
-0.0909728
-0.0911086
-0.0912443
-0.0914027
-0.0915385
-0.0866516
-0.0817647
-0.0818778
-0.0819909
-0.0871267
-0.0922398
-0.0923077
-0.0973982
-0.107534
-0.107647
-0.0977828
-0.0927828
-0.0927602
-0.0928055
-0.087896
-0.0829412
-0.0779412
-0.0728959
-0.0728054
-0.072715
-0.0776245
-0.0824661
-0.0772851
-0.0721493
-0.0720136
-0.0768326
-0.0716063
-0.0563575
-0.0411086
-0.0208597
0.00441176
0.0397511
0.0701131
0.0654978
0.0558598
0.0261539
0.00138012
0.00156111
-0.00837103
-0.0383031
-0.058552
-0.0589366
-0.059457
-0.0701357
-0.0809502
-0.0819231
-0.0829864
-0.0791403
-0.0753167
-0.0814932
-0.087647
-0.0938009
-0.1
-0.0961765
-0.0922172
-0.0931448
-0.0940045
-0.0897738
-0.0854525
-0.0910633
-0.091629
-0.0821493
-0.0726018
-0.0629864
-0.0583484
-0.0587104
-0.0740724
-0.0894344
-0.209819
-0.320204
-0.255566
-0.170905
0.0888236
0.398597
0.928348
1.39808
1.63781
1.62251
0.882172
0.251833
-0.128462
-0.37871
-0.403937
-0.399208
-0.324548
-0.249887
-0.160204
-0.105543
-0.0809276
-0.0662896
-0.0665837
-0.0718552
-0.0821493
-0.0875113
-0.0829638
-0.0783032
-0.0785294
-0.0787557
-0.0789819
-0.0792308
-0.0845023
-0.0897511
-0.0849774
-0.0802715
-0.0756335
-0.0709276
-0.0761539
-0.0814027
-0.0716742
-0.0719683
-0.0722625
-0.0674887
-0.0626697
-0.0578281
-0.0529638
-0.0531222
-0.0533258
-0.0435747
-0.0338688
-0.0342081
-0.0345475
-0.034819
-0.0300453
-0.0153167
-0.00558824
-0.000837106
0.00393665
0.00873304
0.0135747
0.0184389
0.0233484
0.0232805
0.0330996
0.0528281
0.0674887
0.0770588
0.0864932
0.0958597
0.110271
0.124774
0.134502
0.144434
0.15457
0.16491
0.180294
0.195701
0.211041
0.226312
0.246561
0.231742
0.286787
0.301742
0.306697
0.311652
0.311561
0.311425
0.31629
0.321154
0.301063
0.276018
0.24595
0.22086
0.205769
0.180656
0.140588
0.105452
0.0903167
0.0701584
0.045
0.024819
0.00957013
-0.00570136
-0.0159276
-0.0259502
-0.0357014
-0.0400452
-0.0441629
-0.0486199
-0.048733
-0.0556335
-0.069638
-0.0806109
-0.0828054
-0.0845023
-0.0887331
-0.0875113
-0.0868099
-0.0783258
-0.0591629
-0.0483484
-0.0456335
-0.0500905
-0.0560181
-0.0523756
-0.0488462
-0.0550453
-0.060905
-0.0613122
-0.061448
-0.061448
-0.0613575
-0.0612896
-0.061267
-0.056267
-0.051267
-0.0612443
-0.0712217
-0.0712217
-0.0711765
-0.066086
-0.0610633
-0.0711312
-0.0811991
-0.0762217
-0.0712443
-0.076267
-0.0812896
-0.0763575
-0.071448
-0.0664932
-0.0665611
-0.0766516
-0.0817421
-0.0868326
-0.0918778
-0.0918778
-0.0869231
-0.0770136
-0.0720815
-0.0721267
-0.0721946
-0.0773077
-0.0824661
-0.0726244
-0.0727149
-0.0727828
-0.0728733
-0.0730091
-0.0781901
-0.0833711
-0.0935294
-0.10371
-0.0839593
-0.0592308
-0.0394796
-0.0197059
0.00506787
0.0247964
0.029457
0.0241403
-0.00615385
-0.0264706
-0.03681
-0.0521719
-0.0675566
-0.0829186
-0.0982579
-0.108597
-0.103937
-0.0992081
-0.0995701
-0.099638
-0.0995928
-0.0994796
-0.0992534
-0.098914
-0.0984389
-0.0977828
-0.101968
-0.106131
-0.105272
-0.104389
-0.108507
-0.107647
-0.111833
-0.0911086
-0.0904751
-0.0848643
-0.0793213
-0.0688688
-0.0584842
-0.0531675
-0.052896
-0.0876245
-0.137376
-0.222172
-0.271968
-0.211742
-0.0815385
0.193688
0.548801
1.04887
1.40391
1.55398
1.31905
0.644095
0.12414
-0.250837
-0.415792
-0.415679
-0.360543
-0.260407
-0.185294
-0.115204
-0.0850679
-0.0698869
-0.0697512
-0.0796606
-0.0845475
-0.0894118
-0.094276
-0.0891403
-0.0840272
-0.088914
-0.093733
-0.0935068
-0.0883032
-0.0831448
-0.0930317
-0.102941
-0.0878054
-0.0726244
-0.0774887
-0.0823982
-0.0772624
-0.0720814
-0.0669457
-0.0618552
-0.0617647
-0.0616742
-0.0565385
-0.0513575
-0.0461991
-0.0411086
-0.046086
-0.0510634
-0.0410181
-0.0309502
-0.0258371
-0.0206787
-0.0154977
-0.00533936
0.00477376
0.00986426
0.01
0.0151358
0.0252715
0.0404072
0.055543
0.0606335
0.0606787
0.0706787
0.0856335
0.100679
0.115837
0.126086
0.136403
0.156765
0.182081
0.192262
0.20233
0.217217
0.232081
0.247036
0.261968
0.271855
0.281742
0.296629
0.311516
0.316471
0.321493
0.311561
0.301652
0.291742
0.271833
0.246923
0.217014
0.182104
0.152217
0.12733
0.0974434
0.0625792
0.0376697
0.0276923
0.0127376
-0.0072172
-0.0220815
-0.0319457
-0.0368326
-0.0417421
-0.0466063
-0.0464253
-0.0512443
-0.0611086
-0.0661991
-0.0663801
-0.0716063
-0.0817421
-0.0813348
-0.0854977
-0.0638914
-0.06181
-0.058914
-0.0565385
-0.0508824
-0.0467195
-0.0504299
-0.0540045
-0.061267
-0.0676471
-0.0676018
-0.067172
-0.0663122
-0.065543
-0.0690498
-0.0735973
-0.0683937
-0.0632579
-0.0682353
-0.0732127
-0.07319
-0.0731674
-0.0680996
-0.0679864
-0.0778733
-0.0827828
-0.0876923
-0.0875792
-0.0774435
-0.0723756
-0.0773756
-0.0823077
-0.082172
-0.0820588
-0.0869683
-0.0918778
-0.0867873
-0.0816742
-0.0765385
-0.0714027
-0.076267
-0.0861086
-0.0909276
-0.0807466
-0.0705656
-0.0754299
-0.0803394
-0.0802036
-0.0800226
-0.0848416
-0.0896833
-0.0845475
-0.0794118
-0.079276
-0.0791403
-0.0790045
-0.0788688
-0.0787104
-0.0784842
-0.07319
-0.0679638
-0.0678281
-0.0676697
-0.0674661
-0.0672398
-0.066991
-0.0617647
-0.0465611
-0.0163348
0.0189366
0.0392308
0.0495249
0.034819
0.00513573
-0.0045249
-0.00920817
-0.0239593
-0.0387557
-0.0485521
-0.0583484
-0.0681675
-0.0780091
-0.0829412
-0.0829412
-0.0829638
-0.0830091
-0.0830996
-0.0832353
-0.0884163
-0.09362
-0.0988462
-0.104072
-0.0943213
-0.0845702
-0.0897512
-0.0948869
-0.095
-0.0951132
-0.085181
-0.0752263
-0.0752489
-0.0752715
-0.0702715
-0.0602263
-0.0451584
-0.0751132
-0.150068
-0.220045
-0.280068
-0.245091
-0.140136
0.109909
0.429955
0.9
1.43005
1.52509
1.48514
0.935204
0.270294
-0.0896381
-0.404593
-0.434548
-0.429502
-0.334457
-0.424412
-0.164389
-0.0943892
-0.0793666
-0.0643213
-0.0692987
-0.0742987
-0.0793213
-0.0843666
-0.0893666
-0.0943213
-0.0942761
-0.0942534
-0.0942987
-0.0943439
-0.0893666
-0.0842761
-0.0842082
-0.0841629
-0.0841177
-0.0840951
-0.0791177
-0.0741629
-0.0741856
-0.0741856
-0.0741629
-0.0740724
-0.0739593
-0.0739367
-0.0689819
-0.0639367
-0.0588009
-0.0537104
-0.0536652
-0.0535747
-0.0484389
-0.0383484
-0.0283032
-0.0182579
-0.00821268
-0.0031448
-0.00305431
0.00203619
0.00712669
0.00719457
0.00726244
0.0273982
0.0475792
0.0527376
0.0578733
0.068009
0.0781448
0.0932805
0.108439
0.123643
0.138959
0.144457
0.155045
0.170656
0.181176
0.191538
0.2119
0.237285
0.257602
0.272851
0.288054
0.298213
0.308281
0.318258
0.323213
0.318167
0.303145
0.288145
0.268167
0.243213
0.21819
0.1981
0.167986
0.137851
0.11276
0.0877149
0.0626471
0.0375566
0.0224661
0.00235294
-0.00780544
-0.0179412
-0.0230996
-0.0283484
-0.0436878
-0.059095
-0.0595249
-0.0600226
-0.0607466
-0.0617195
-0.0628959
-0.0638462
-0.0642534
-0.0635068
-0.0613122
-0.0569457
-0.0451358
-0.0328733
-0.0307693
-0.0311313
-0.0294797
-0.0294118
-0.030724
-0.0322172
-0.0337331
-0.034819
-0.0363123
-0.036629
-0.036629
-0.0365837
-0.0364932
-0.0364254
-0.0313801
-0.0263801
-0.0314254
-0.0414933
-0.0516064
-0.0517647
-0.0418552
-0.0417874
-0.0364254
-0.0556335
-0.0548869
-0.054457
-0.0550679
-0.0520136
-0.0509276
-0.056991
-0.0639819
-0.0716064
-0.0766742
-0.0885973
-0.0987331
-0.0871946
-0.0755656
-0.083914
-0.0925792
-0.0866064
-0.0809955
-0.090724
-0.100588
-0.0955656
-0.0904525
-0.0852489
-0.0799548
-0.0845702
-0.0891403
-0.0886878
-0.0881901
-0.0826471
-0.0821493
-0.0916969
-0.0961312
-0.0904525
-0.0847511
-0.0840498
-0.083371
-0.0826923
-0.0819231
-0.0760634
-0.0701358
-0.0741403
-0.0731222
-0.0670588
-0.0609503
-0.054819
-0.0636426
-0.0723756
-0.0710181
-0.0695928
-0.0680996
-0.0665611
-0.0550227
-0.0434616
-0.0418779
-0.0402942
-0.0437331
-0.0472625
-0.0508824
-0.0546607
-0.04362
-0.0326698
-0.0317874
-0.031086
-0.0305657
-0.0301811
-0.0299322
-0.0298417
-0.0299096
-0.0251132
-0.00547517
-0.000905029
0.00357461
0.0229637
0.0472624
0.0714027
0.0904072
0.0743891
0.0483031
0.0321266
0.0158823
-0.000407301
-0.0167421
-0.0231449
-0.0246607
-0.0362897
-0.0479639
-0.0545928
-0.0611765
-0.0677602
-0.0743439
-0.085905
-0.0973304
-0.08862
-0.0797964
-0.0808598
-0.0817648
-0.0825114
-0.0831448
-0.0786426
-0.0740725
-0.0744344
-0.0747059
-0.0698643
-0.0649322
-0.0649548
-0.0600227
-0.0501358
-0.065181
-0.100113
-0.165068
-0.255023
-0.240023
-0.169977
0.0600452
0.355045
0.790023
1.26998
1.47995
1.61995
1.05498
0.360023
-0.035
-0.405091
-0.425113
-0.425068
-0.350091
-0.265181
-0.180249
-0.105294
-0.0753847
-0.0455204
-0.0556335
-0.065724
-0.0757693
-0.0857693
-0.0907919
-0.0958145
-0.100792
-0.105747
-0.0956788
-0.0856561
-0.0906788
-0.095724
-0.0957466
-0.0907466
-0.0757466
-0.065724
-0.0706787
-0.0756335
-0.0755656
-0.0754751
-0.0754072
-0.0753167
-0.070181
-0.0650452
-0.0649095
-0.064819
-0.0597737
-0.0547059
-0.0546154
-0.0495475
-0.0395023
-0.0344118
-0.029276
-0.0241176
-0.0239366
-0.0187783
-0.0136425
0.00149322
0.016629
0.0117873
0.00696834
0.0171267
0.0272625
0.0324208
0.0376018
0.0477602
0.0578959
0.0730543
0.0882579
0.0935521
0.103869
0.119208
0.134661
0.155249
0.170928
0.176674
0.192353
0.212919
0.228416
0.238846
0.249186
0.264434
0.289661
0.314887
0.325068
0.320204
0.315362
0.310543
0.305656
0.300701
0.270724
0.240724
0.215747
0.190792
0.15586
0.12095
0.0960408
0.0661313
0.0512218
0.0363123
0.0164254
-0.00343887
-0.0182805
-0.0331221
-0.033009
-0.0328959
-0.0477149
-0.0625791
-0.0576244
-0.0529638
-0.0636651
-0.0742986
-0.0696832
-0.0641629
-0.0524434
-0.0388687
-0.0382352
-0.0365836
-0.0342307
-0.0343665
-0.0275791
-0.0225339
-0.0291176
-0.0357239
-0.0322624
-0.0284388
-0.0292081
-0.0295474
-0.0295022
-0.0293438
-0.0290723
-0.0288235
-0.0335972
-0.0383936
-0.0382126
-0.0430542
-0.0529185
-0.0578053
-0.0577148
-0.0476017
-0.047466
-0.0473529
-0.0472624
-0.0471945
-0.0471266
-0.0520135
-0.0568778
-0.0567646
-0.0566741
-0.0565837
-0.0561312
-0.0602488
-0.0643212
-0.0583936
-0.0532353
-0.0540497
-0.0569683
-0.0669457
-0.0787104
-0.0816742
-0.0819231
-0.0845249
-0.0849321
-0.088552
-0.0917421
-0.0896832
-0.0879185
-0.0914479
-0.0953167
-0.0894344
-0.0837556
-0.0782126
-0.0726244
-0.0769909
-0.0813348
-0.0756335
-0.069819
-0.073914
-0.0779638
-0.0769683
-0.0759502
-0.0748869
-0.078733
-0.0824887
-0.0761764
-0.069819
-0.0684389
-0.0669909
-0.0654525
-0.0638688
-0.0572851
-0.0506787
-0.0489819
-0.0471493
-0.0451809
-0.04319
-0.0512669
-0.0593212
-0.0473529
-0.035475
-0.0386877
-0.0420587
-0.0355881
-0.0292533
-0.0330542
-0.0370587
-0.0362669
-0.0355882
-0.0300452
-0.0245927
-0.0292307
-0.0339818
-0.0338461
-0.0287782
-0.0188008
-0.0138913
-0.0190497
-0.0243212
-0.0197058
-0.0201357
-0.0306334
-0.0312669
-0.0169909
0.0122851
0.0415385
0.0657919
0.0900227
0.074163
0.0582354
0.0422399
0.026086
0.0148191
0.00350684
-0.0128959
-0.0293438
-0.0357692
-0.0422172
-0.0537556
-0.0652488
-0.0616968
-0.0580543
-0.0643213
-0.0704525
-0.0764706
-0.0823529
-0.0831222
-0.0838235
-0.084457
-0.0849774
-0.080362
-0.0756108
-0.0757918
-0.0759276
-0.0709955
-0.0659955
-0.0609502
-0.0558823
-0.0557918
-0.0556787
-0.055543
-0.135385
-0.230204
-0.240023
-0.234842
-0.0596606
0.15552
0.620724
1.08095
1.48113
1.74627
1.1514
0.576539
0.0966968
-0.2931
-0.382873
-0.43767
-0.367511
-0.297376
-0.207262
-0.137149
-0.0970362
-0.0719004
-0.0717421
-0.0715611
-0.0714027
-0.0762443
-0.0910407
-0.100837
-0.0956787
-0.0905204
-0.0903394
-0.0901358
-0.0949095
-0.0996606
-0.0943891
-0.0891403
-0.088914
-0.0886651
-0.0883937
-0.08319
-0.073009
-0.067828
-0.072647
-0.0774434
-0.0821945
-0.0768778
-0.0665158
-0.0762217
-0.0859728
-0.0706335
-0.0552715
-0.05
-0.0447737
-0.0395249
-0.0342307
-0.023914
-0.0136199
-0.013371
-0.0131448
-0.00787327
-0.00255653
0.00273759
0.00798645
0.0082127
0.0135068
0.0288914
0.0442761
0.0546154
0.0649322
0.0802715
0.100611
0.120905
0.131176
0.136493
0.146923
0.157466
0.173145
0.188959
0.199683
0.210317
0.240928
0.271516
0.287036
0.302489
0.307896
0.30819
0.318348
0.338394
0.328303
0.318077
0.297783
0.277466
0.247127
0.216833
0.181606
0.156403
0.136244
0.111154
0.0811312
0.0511539
0.0312444
0.0164027
0.00662898
-0.0081674
-0.0229638
-0.0327602
-0.0425565
-0.0523529
-0.0571719
-0.0620136
-0.0668778
-0.0720362
-0.0775565
-0.0830543
-0.0784615
-0.0731448
-0.0769231
-0.0785746
-0.0681221
-0.055905
-0.0425339
-0.0319004
-0.033914
-0.0430769
-0.0539819
-0.0552941
-0.0468552
-0.0431222
-0.0438235
-0.0486878
-0.0430769
-0.0422851
-0.0419683
-0.0424887
-0.0451131
-0.0552489
-0.0671946
-0.0708145
-0.071629
-0.0788009
-0.0841402
-0.087828
-0.0913574
-0.0999774
-0.108869
-0.0981674
-0.0877828
-0.0926923
-0.0976923
-0.0827828
-0.077828
-0.0728054
-0.0676923
-0.0725339
-0.0823756
-0.0972172
-0.107036
-0.10181
-0.101674
-0.111629
-0.106516
-0.0913348
-0.0861539
-0.0859729
-0.0907919
-0.100611
-0.100385
-0.0901131
-0.0848416
-0.0895701
-0.0942987
-0.0940272
-0.0887104
-0.0833711
-0.0930769
-0.102805
-0.0975113
-0.092172
-0.0917647
-0.0913349
-0.090905
-0.0904073
-0.0848416
-0.0792534
-0.0736426
-0.0680317
-0.0724208
-0.0767647
-0.0710634
-0.065362
-0.0746607
-0.0838462
-0.0779186
-0.0719683
-0.0759955
-0.0650905
-0.039276
-0.0184615
0.00239821
0.0231901
0.0438914
0.0543892
0.0547059
0.0398417
0.0197738
0.00945707
-0.00106332
-0.0167421
-0.0326018
-0.0436425
-0.0548642
-0.0662443
-0.0827375
-0.0792534
-0.0757918
-0.0723529
-0.0688913
-0.0654072
-0.0618325
-0.0581221
-0.0543212
-0.0704525
-0.0864706
-0.102376
-0.11819
-0.103869
-0.0894796
-0.0950452
-0.100543
-0.0909276
-0.0812443
-0.0714932
-0.0616742
-0.0668326
-0.0719683
-0.0720814
-0.0722398
-0.0673982
-0.122534
-0.21767
-0.252805
-0.252896
-0.123032
0.0617874
0.526606
1.08143
1.47624
1.83106
1.20093
0.400837
0.000724033
-0.364412
-0.399593
-0.384819
-0.33009
-0.235407
-0.160679
-0.0959049
-0.0761764
-0.0564932
-0.0617194
-0.0669004
-0.0820588
-0.0971945
-0.102353
-0.107556
-0.107805
-0.108077
-0.0983257
-0.0886198
-0.0889592
-0.089276
-0.0845248
-0.0797737
-0.0750452
-0.0703393
-0.0706787
-0.0709954
-0.0712443
-0.0714705
-0.0667194
-0.0619456
-0.0671266
-0.0673303
-0.0575565
-0.047828
-0.0381447
-0.0334162
-0.0386425
-0.0339366
-0.0192533
-0.0145701
-0.0098868
-0.00520356
-0.00549768
0.00427607
0.0140951
0.0189141
0.0236878
0.0333937
0.0429639
0.0473304
0.0515385
0.0606788
0.0699096
0.0892308
0.108643
0.118213
0.127941
0.132828
0.142873
0.168054
0.188371
0.198778
0.214072
0.234231
0.254344
0.269412
0.284412
0.294344
0.304208
0.319005
0.328778
0.323507
0.313258
0.303032
0.287828
0.272647
0.242534
0.207466
0.182353
0.162217
0.132014
0.101742
0.0763802
0.0509277
0.0405204
0.0251584
0.00475119
-0.0156787
-0.026018
-0.036018
-0.0455655
-0.0549773
-0.0693891
-0.0844796
-0.0754072
-0.06819
-0.0729411
-0.0799773
-0.0944796
-0.107081
-0.102489
-0.0947737
-0.0938235
-0.0901357
-0.0883936
-0.0851357
-0.0805655
-0.079208
-0.0768325
-0.0765836
-0.0732126
-0.0699773
-0.0716515
-0.0730316
-0.0739366
-0.0745022
-0.0697737
-0.0649547
-0.0700452
-0.0751809
-0.0753619
-0.0755882
-0.0758597
-0.0761764
-0.0815384
-0.0869004
-0.0872624
-0.0776018
-0.0779185
-0.0782126
-0.0785067
-0.0738235
-0.0691402
-0.069457
-0.0697737
-0.0750904
-0.0804072
-0.0807239
-0.0810633
-0.0914253
-0.101787
-0.0921719
-0.0825792
-0.0829638
-0.0833031
-0.0885973
-0.0938914
-0.0792307
-0.0746153
-0.075
-0.0753846
-0.0707692
-0.0711312
-0.0814932
-0.0868778
-0.092285
-0.0876923
-0.0681221
-0.0335746
0.000972882
0.0255204
0.0450453
0.0295023
0.00391406
-0.00667418
-0.0172398
-0.0328054
-0.048371
-0.0639592
-0.0745701
-0.0951583
-0.115747
-0.106357
-0.0969457
-0.0974887
-0.0979638
-0.0983936
-0.0987556
-0.0940271
-0.0891855
-0.0942081
-0.0990271
-0.0987104
-0.0983031
-0.097828
-0.097285
-0.106674
-0.111109
-0.0956108
-0.0851357
-0.0846606
-0.0842534
-0.078914
-0.0736651
-0.0685067
-0.063371
-0.0582805
-0.0582353
-0.0682352
-0.13328
-0.223371
-0.243462
-0.248552
-0.103756
0.0809276
0.490656
0.93043
1.38023
1.83002
1.37475
0.889434
0.329163
-0.201063
-0.341267
-0.461448
-0.401652
-0.336855
-0.257036
-0.177217
-0.107421
-0.057647
-0.0628733
-0.0680995
-0.0783031
-0.0885068
-0.0887782
-0.0890271
-0.0892307
-0.0893891
-0.0845475
-0.0797285
-0.0849095
-0.0900679
-0.0852036
-0.080362
-0.0805656
-0.0807919
-0.0760181
-0.0711539
-0.0762444
-0.0763575
-0.0664932
-0.061629
-0.0567647
-0.0518779
-0.0519683
-0.0520588
-0.0521493
-0.0472398
-0.0373303
-0.0324661
-0.0326471
-0.0278054
-0.0229412
-0.0230543
-0.0231448
-0.0182579
-0.0133937
0.00151582
0.0164253
0.0213574
0.0263122
0.0263122
0.0263348
0.0412896
0.0561991
0.061086
0.0709955
0.0859955
0.0961765
0.101538
0.111968
0.137443
0.157828
0.178077
0.193303
0.203507
0.213643
0.22371
0.238643
0.258416
0.277964
0.29233
0.301697
0.311109
0.315656
0.320294
0.319932
0.309615
0.294412
0.279276
0.24414
0.209005
0.178891
0.153846
0.123869
0.093914
0.0738914
0.0538235
0.0338009
0.0138009
-0.00117647
-0.0161312
-0.021086
-0.0260407
-0.0309728
-0.0358824
-0.0457466
-0.0555882
-0.0554751
-0.0556335
-0.0661765
-0.0768778
-0.0676697
-0.0578054
-0.0571041
-0.0546154
-0.0551584
-0.0483937
-0.0292987
-0.0169683
-0.0117421
-0.00950228
-0.0155656
-0.0239593
-0.0297964
-0.0426018
-0.0610634
-0.0735068
-0.073733
-0.0705882
-0.0652262
-0.0587557
-0.061991
-0.0604977
-0.0443891
-0.0487104
-0.0533258
-0.0582127
-0.0631674
-0.0631222
-0.0630317
-0.0678959
-0.0727602
-0.0676018
-0.0624208
-0.0622624
-0.0621267
-0.0719683
-0.0817873
-0.0766742
-0.0715611
-0.0664027
-0.0612217
-0.0660181
-0.0707692
-0.0754977
-0.0802036
-0.0798869
-0.0795928
-0.0792986
-0.0790045
-0.073733
-0.0684389
-0.0731222
-0.0778507
-0.0776244
-0.0773756
-0.0721041
-0.0667647
-0.0713575
-0.0759502
-0.080543
-0.0851131
-0.0796833
-0.0742534
-0.0738009
-0.0733484
-0.0728733
-0.077353
-0.0818326
-0.0713348
-0.0608371
-0.0552715
-0.049638
-0.0539367
-0.05819
-0.0574208
-0.0566968
-0.0410181
-0.0153394
0.0154751
0.0361991
0.0469457
0.0476923
0.0184389
-0.00088235
-0.000271484
-0.00975113
-0.0293665
-0.039095
-0.0439367
-0.0489593
-0.0541629
-0.0695475
-0.0850905
-0.0907692
-0.0865837
-0.0824434
-0.0783032
-0.0741403
-0.0799548
-0.085724
-0.081448
-0.0771041
-0.0776471
-0.0780543
-0.0833484
-0.0885747
-0.0887783
-0.0939367
-0.0990271
-0.084095
-0.0691629
-0.0691403
-0.0690498
-0.0539366
-0.0488009
-0.108688
-0.173575
-0.238439
-0.258281
-0.158077
0.0421493
0.417353
0.837557
1.33278
1.54294
1.39801
0.988054
0.313122
-0.126787
-0.376674
-0.446561
-0.396493
-0.321425
-0.22629
-0.161131
-0.10095
-0.0857918
-0.0806561
-0.0855204
-0.100385
-0.105294
-0.105249
-0.105158
-0.100023
-0.0948642
-0.0946832
-0.0945701
-0.0845249
-0.084457
-0.0843665
-0.0842308
-0.0840498
-0.0888688
-0.0936878
-0.098552
-0.103462
-0.093371
-0.0832805
-0.07819
-0.0730995
-0.0729864
-0.0728507
-0.0627375
-0.052647
-0.0525565
-0.052466
-0.0523529
-0.0521945
-0.0470362
-0.0419004
-0.0467873
-0.0466968
-0.0315837
-0.0214479
-0.0163122
-0.0111991
-0.00610856
0.00395931
0.0140046
0.0240724
0.0341629
0.0393213
0.0445475
0.0497512
0.0549322
0.0751132
0.0952715
0.110453
0.100724
0.141154
0.151697
0.162285
0.172873
0.193303
0.21362
0.233937
0.254208
0.264389
0.274525
0.279638
0.284774
0.294955
0.305045
0.305113
0.305023
0.294955
0.27491
0.249887
0.224842
0.199729
0.174615
0.154548
0.124525
0.0895249
0.0595249
0.0345023
0.0194797
0.00945704
-0.00565609
-0.0208371
-0.0309502
-0.0409955
-0.0460181
-0.0510181
-0.0560181
-0.0560181
-0.0562896
-0.0518552
-0.0526923
-0.0635973
-0.0690498
-0.0685973
-0.0714706
-0.0725566
-0.0565384
-0.0397059
-0.0336651
-0.029457
-0.0282126
-0.028914
-0.0257013
-0.0227828
-0.0246153
-0.0260181
-0.0369004
-0.047466
-0.0477601
-0.0478959
-0.0479185
-0.0479864
-0.0431448
-0.0383258
-0.0435068
-0.0486877
-0.0538461
-0.0590045
-0.0541855
-0.0493665
-0.0495023
-0.049638
-0.0547737
-0.0599095
-0.0650452
-0.070181
-0.0653393
-0.0605882
-0.060905
-0.0611765
-0.0614027
-0.061629
-0.0616968
-0.061448
-0.0609955
-0.0603394
-0.0599774
-0.0602036
-0.0620136
-0.0707466
-0.0815158
-0.0893212
-0.0959728
-0.100837
-0.10319
-0.102873
-0.101697
-0.0948416
-0.0882353
-0.0869457
-0.0859955
-0.0803846
-0.0749321
-0.084638
-0.0943439
-0.0940498
-0.0936425
-0.0931222
-0.0875113
-0.0768099
-0.0710633
-0.0753846
-0.0795249
-0.0786199
-0.0776697
-0.0716742
-0.0656108
-0.0644796
-0.0632579
-0.0619457
-0.0606108
-0.0592534
-0.0678507
-0.0814027
-0.0749321
-0.0834389
-0.0519457
-0.0504525
-0.0490271
-0.0477376
-0.0366063
-0.0256109
-0.0297285
-0.0339593
-0.0382805
-0.0427602
-0.0424434
-0.0422851
-0.0472398
-0.0472624
-0.0323303
-0.0225566
-0.0228959
-0.0232805
-0.0287104
-0.0342308
-0.0198416
-0.0154977
-0.0161765
-0.0168778
-0.0225792
-0.0283258
-0.0291629
-0.0300452
-0.0259728
-0.00201356
0.0268326
0.0556561
0.0844797
0.0782579
0.0569457
0.0455204
0.0340045
0.0274661
0.020905
-0.000701353
-0.0223529
-0.029095
-0.030905
-0.0527376
-0.0745928
-0.0714706
-0.0683484
-0.0701584
-0.0718326
-0.0734163
-0.0749321
-0.0713801
-0.0677376
-0.0689593
-0.07
-0.0708824
-0.071629
-0.0722851
-0.0728733
-0.0783937
-0.0788914
-0.0643213
-0.0547059
-0.0550679
-0.0554073
-0.050724
-0.0810634
-0.151425
-0.196742
-0.232014
-0.157262
-0.0274887
0.322262
0.746991
1.19672
1.65145
1.40115
1.00084
0.44552
-0.129796
-0.310113
-0.455453
-0.395815
-0.321176
-0.236516
-0.151833
-0.107104
-0.0623303
-0.0576018
-0.0529186
-0.0732127
-0.0934842
-0.0937783
-0.0940724
-0.0893213
-0.0845249
-0.0847059
-0.0849095
-0.085181
-0.0854299
-0.0806335
-0.0757919
-0.0759276
-0.0760634
-0.0711991
-0.0663349
-0.0714706
-0.0766516
-0.0719005
-0.0671267
-0.0673982
-0.0675113
-0.0626018
-0.0527376
-0.0429186
-0.0380317
-0.0380769
-0.0381448
-0.0382353
-0.0333258
-0.0234163
-0.0185068
-0.0185973
-0.0187104
-0.0188235
0.00113121
0.0111312
0.0111086
0.0110633
0.0259955
0.040905
0.045905
0.0509502
0.0559955
0.0610407
0.0710633
0.081086
0.0861538
0.0961991
0.116312
0.136425
0.151697
0.162127
0.172715
0.193258
0.218688
0.239072
0.249412
0.259729
0.270023
0.280226
0.290339
0.295475
0.300633
0.305633
0.310498
0.310407
0.300362
0.275339
0.250317
0.230226
0.210113
0.185068
0.160068
0.125068
0.0900679
0.0600905
0.0351357
0.0151584
-0.00484164
-0.0148869
-0.0249548
-0.0299774
-0.0349774
-0.0399548
-0.0449095
-0.039819
-0.0348869
-0.0453394
-0.0560407
-0.0619457
-0.0676697
-0.0629412
-0.0567195
-0.0586652
-0.0584163
-0.0459502
-0.0345702
-0.0299548
-0.0277602
-0.028077
-0.0241856
-0.0159276
-0.0123982
-0.0185294
-0.0242308
-0.0295023
-0.0345475
-0.0343892
-0.034276
-0.0391855
-0.0441403
-0.0391403
-0.0341629
-0.0342082
-0.0392308
-0.0492308
-0.0492308
-0.0342308
-0.0392534
-0.0442987
-0.0492987
-0.0542761
-0.0542987
-0.0544118
-0.0545928
-0.0545249
-0.0541856
-0.0534842
-0.0523756
-0.0515611
-0.0561313
-0.0623077
-0.0551131
-0.0504751
-0.0631901
-0.0747964
-0.0801584
-0.0826471
-0.087534
-0.0913349
-0.089276
-0.0874661
-0.0859729
-0.0848417
-0.0840498
-0.0834389
-0.0779864
-0.0725792
-0.0722172
-0.0717421
-0.0761313
-0.0804299
-0.0796607
-0.0788688
-0.0780543
-0.082172
-0.0912444
-0.085362
-0.0944797
-0.0685068
-0.0724435
-0.0762896
-0.0800905
-0.0738914
-0.0676018
-0.0661539
-0.0646154
-0.063077
-0.0615159
-0.0599095
-0.0582353
-0.0664706
-0.0697059
-0.0528733
-0.0411765
-0.0444797
-0.0477829
-0.0511313
-0.0496154
-0.0332353
-0.0269684
-0.0358145
-0.0398191
-0.038982
-0.0383032
-0.0427829
-0.0473756
-0.0420815
-0.036991
-0.0320815
-0.0272399
-0.0224661
-0.0177376
-0.0230996
-0.0285974
-0.0342082
-0.0298417
-0.0154752
-0.0061539
0.00307687
0.0371945
0.0662443
0.0852941
0.104276
0.0681221
0.0318552
0.0205429
0.00918548
-0.0122399
-0.0337331
-0.0402942
-0.0468552
-0.0483937
-0.0499095
-0.0614027
-0.0728507
-0.0792761
-0.0806109
-0.0668326
-0.0579638
-0.0690272
-0.08
-0.0758145
-0.071448
-0.0719457
-0.0723756
-0.0727602
-0.0730769
-0.068258
-0.0633711
-0.0684389
-0.0684389
-0.0583937
-0.0383711
-0.0183485
-0.068258
-0.133145
-0.218077
-0.303032
-0.232986
-0.147919
0.207172
0.572262
1.14738
1.67751
1.43765
1.16278
0.527919
-0.0469457
-0.281855
-0.461787
-0.401674
-0.331538
-0.251425
-0.176335
-0.116244
-0.0711538
-0.061086
-0.0509955
-0.060905
-0.0757919
-0.0906787
-0.100566
-0.10043
-0.100294
-0.105158
-0.105
-0.0898416
-0.0797059
-0.0796606
-0.0795022
-0.0843665
-0.0842534
-0.0741629
-0.0740498
-0.083914
-0.0837556
-0.0735746
-0.0683936
-0.0682127
-0.0730543
-0.0829185
-0.0778054
-0.0876923
-0.0525339
-0.0473529
-0.0471946
-0.0470588
-0.0419231
-0.0367647
-0.0315158
-0.0262217
-0.0159955
-0.00581448
-0.00561086
-0.00538462
-0.0102036
-0.0100679
0.0150905
0.0352263
0.0403846
0.0455882
0.0508371
0.0660407
0.0911539
0.111131
0.120973
0.125792
0.125633
0.135498
0.155407
0.165611
0.171063
0.191606
0.217262
0.237851
0.253348
0.268824
0.284276
0.299638
0.31491
0.320158
0.325385
0.325633
0.315905
0.301131
0.291312
0.266471
0.241629
0.221878
0.202195
0.177466
0.147692
0.112919
0.0831222
0.0632805
0.0434163
0.028552
0.0136878
-0.00615384
-0.0210181
-0.0409502
-0.055905
-0.0508145
-0.0503394
-0.0644796
-0.0685068
-0.0576244
-0.0526244
-0.0537783
-0.0614706
-0.075724
-0.085543
-0.0851584
-0.0819231
-0.0849095
-0.0856335
-0.0801131
-0.076267
-0.0693665
-0.0686199
-0.0789366
-0.0843439
-0.0797737
-0.0751357
-0.0753846
-0.0755204
-0.0654977
-0.0653846
-0.0652036
-0.0700452
-0.0749321
-0.0798642
-0.084819
-0.0847511
-0.0846606
-0.0946154
-0.104593
-0.0945249
-0.0844344
-0.0843213
-0.0841855
-0.0841177
-0.0840724
-0.0840045
-0.0839366
-0.088914
-0.0938914
-0.0938235
-0.093733
-0.0886425
-0.0835973
-0.0886199
-0.0936425
-0.088733
-0.0836878
-0.0836425
-0.0836425
-0.0886878
-0.0937104
-0.0987104
-0.103688
-0.0986425
-0.0935746
-0.0984842
-0.103416
-0.0983936
-0.0934615
-0.0935973
-0.0836651
-0.0836878
-0.088733
-0.0938235
-0.0789592
-0.0640497
-0.0390497
-0.0140045
-0.00395925
0.00606337
0.0110408
0.0110407
-0.0188914
-0.0438914
-0.0437783
-0.0488688
-0.068914
-0.083914
-0.0888914
-0.093914
-0.0939819
-0.0940045
-0.0939819
-0.093914
-0.0988009
-0.103643
-0.103462
-0.103213
-0.102896
-0.102647
-0.107421
-0.112149
-0.111833
-0.111516
-0.106244
-0.0960181
-0.0858597
-0.080724
-0.0805882
-0.0804299
-0.0802715
-0.0701584
-0.0600452
-0.0549547
-0.0549321
-0.119932
-0.184955
-0.260023
-0.30509
-0.195091
-0.0250905
0.384842
0.814729
1.29459
1.61446
1.55934
1.25428
0.514208
-0.0358823
-0.300973
-0.446086
-0.426199
-0.371335
-0.291538
-0.216742
-0.1519
-0.102059
-0.0672398
-0.0574208
-0.0675566
-0.0726697
-0.0777602
-0.0828733
-0.088009
-0.0931222
-0.0982127
-0.103348
-0.0985294
-0.093733
-0.0889593
-0.0841403
-0.089276
-0.0944344
-0.0846154
-0.0797964
-0.0749774
-0.0751358
-0.0752715
-0.0754299
-0.0756109
-0.0757692
-0.075905
-0.0710407
-0.0661765
-0.0613349
-0.0565159
-0.0516742
-0.04681
-0.036991
-0.0271493
-0.0273077
-0.0274887
-0.0276923
-0.0279412
-0.0231901
-0.0183937
-0.0135973
-0.0038462
0.0109049
0.0256787
0.0354524
0.0452262
0.0549321
0.0695475
0.0840497
0.0885067
0.0929638
0.102489
0.112127
0.121923
0.131878
0.136946
0.142059
0.167036
0.1469
0.211787
0.226719
0.236629
0.246493
0.271335
0.296154
0.30095
0.305747
0.300588
0.295452
0.285271
0.27009
0.239977
0.214842
0.204751
0.184525
0.154276
0.124027
0.0988009
0.0785294
0.0532353
0.0379864
0.0227828
0.00260178
-0.0175792
-0.0328055
-0.043077
-0.0582806
-0.0733484
-0.0731674
-0.0627376
-0.0573303
-0.0622172
-0.0678733
-0.0746833
-0.072534
-0.0615385
-0.0609729
-0.0692987
-0.0750905
-0.0723982
-0.0718326
-0.0707467
-0.0667648
-0.0650453
-0.0597964
-0.0555883
-0.0517421
-0.0479186
-0.0540046
-0.0598191
-0.0553847
-0.0507466
-0.0509276
-0.0510408
-0.0561765
-0.0612896
-0.0614027
-0.0615385
-0.0716969
-0.0818779
-0.0720815
-0.0623303
-0.0675792
-0.0727828
-0.0729412
-0.0731222
-0.0683711
-0.0636199
-0.0638009
-0.0639593
-0.0690951
-0.0742534
-0.0744344
-0.0745928
-0.0797512
-0.0849774
-0.0802489
-0.0755204
-0.0757919
-0.0760408
-0.0762896
-0.0765611
-0.0668326
-0.0720589
-0.0772398
-0.0774435
-0.0776697
-0.0729186
-0.0681901
-0.0734616
-0.0787783
-0.0741403
-0.0694797
-0.0697738
-0.0700226
-0.0602489
-0.0455204
-0.0308597
-0.0111765
0.0135294
0.0282127
0.0378733
0.0375113
0.0121267
-0.0132579
-0.0336426
-0.044095
-0.0446154
-0.0450905
-0.050724
-0.0661313
-0.0815611
-0.0870136
-0.0874661
-0.0878055
-0.0830091
-0.0831222
-0.0931448
-0.098077
-0.0929186
-0.0976697
-0.112376
-0.107127
-0.116878
-0.0865385
-0.0861539
-0.0907919
-0.0954752
-0.0852037
-0.0749548
-0.0747512
-0.0745476
-0.0743439
-0.0742082
-0.064163
-0.0541629
-0.0591629
-0.0792082
-0.129321
-0.184457
-0.244525
-0.24457
-0.149638
0.0602488
0.40009
0.824955
1.32989
1.51486
1.43484
0.984774
0.294683
-0.12543
-0.400566
-0.450701
-0.390837
-0.305928
-0.205973
-0.146018
-0.0860634
-0.0711313
-0.0612217
-0.0562896
-0.0613349
-0.0663575
-0.0713575
-0.0814027
-0.086448
-0.0864254
-0.0864254
-0.0865385
-0.0867195
-0.0818326
-0.0768778
-0.0819231
-0.0869683
-0.0770362
-0.0671267
-0.072172
-0.077172
-0.077172
-0.077172
-0.0721946
-0.0671946
-0.0721493
-0.0721493
-0.0572172
-0.0473077
-0.0423756
-0.0373982
-0.0373982
-0.0324208
-0.0224661
-0.0175113
-0.0175113
-0.0175339
-0.0125792
-0.00760181
-0.00260181
0.00246606
0.00760181
0.0226697
0.0376697
0.0426697
0.0476697
0.0526923
0.0577376
0.0778054
0.102919
0.1131
0.123371
0.133756
0.144208
0.159729
0.175272
0.185679
0.195973
0.216222
0.236425
0.251584
0.266719
0.281833
0.301878
0.3169
0.3269
0.3269
0.321878
0.306855
0.291833
0.266765
0.241674
0.211606
0.186538
0.166425
0.141312
0.111131
0.0810634
0.0559729
0.035905
0.0208597
0.00581448
-0.00923078
-0.0242534
-0.0392534
-0.0442534
-0.0442534
-0.0492308
-0.0591629
-0.0640724
-0.0640724
-0.0593665
-0.0649548
-0.0657919
-0.0666064
-0.061991
-0.056448
-0.0544118
-0.0505656
-0.0495475
-0.0477828
-0.0364706
-0.0271946
-0.0259955
-0.0265611
-0.0284842
-0.0303846
-0.0370362
-0.0432353
-0.038914
-0.0342987
-0.0343891
-0.0343665
-0.0342534
-0.0341403
-0.0390724
-0.0439819
-0.0388688
-0.0438462
-0.0588914
-0.0538914
-0.0388462
-0.0338235
-0.0388235
-0.0438009
-0.0487557
-0.0537557
-0.0488009
-0.0437783
-0.0486878
-0.0536426
-0.0536426
-0.0536652
-0.0537104
-0.0637104
-0.0733937
-0.0626697
-0.0519005
-0.0511765
-0.0512444
-0.0573077
-0.065362
-0.0655883
-0.0670589
-0.074638
-0.0793439
-0.080905
-0.0806788
-0.0837104
-0.0867195
-0.0947285
-0.103235
-0.0921946
-0.0813801
-0.0757693
-0.0701584
-0.0745475
-0.0789141
-0.073258
-0.0674887
-0.0665838
-0.0655883
-0.0645023
-0.0633711
-0.0671946
-0.0709276
-0.0645928
-0.0632806
-0.0719683
-0.070543
-0.0590045
-0.0523982
-0.0507466
-0.0490724
-0.0573303
-0.0554977
-0.0535973
-0.0466968
-0.039819
-0.0380317
-0.0363349
-0.0347285
-0.0332353
-0.0369231
-0.0407466
-0.0346833
-0.0287557
-0.0229638
-0.017353
-0.0269458
-0.0366064
-0.0263123
-0.0161313
-0.0210634
-0.026086
-0.0261991
-0.0263349
-0.0214706
-0.0216969
-0.0320362
-0.0324661
-0.0179638
-0.00846157
-0.0140272
-0.0196607
-0.0203394
-0.0160407
-0.00676474
0.017466
0.0416289
0.0607013
0.0797059
0.0787104
0.0676697
0.0364932
0.0602488
0.00393663
0.00755654
-0.00889142
-0.0254073
-0.0319457
-0.0384842
-0.0500226
-0.0615158
-0.0579412
-0.0542534
-0.0654751
-0.0765611
-0.0674661
-0.0583258
-0.0692987
-0.0799774
-0.0754525
-0.0707919
-0.0710407
-0.071267
-0.0664706
-0.0616064
-0.066629
-0.0715837
-0.0665159
-0.061448
-0.0563575
-0.0512218
-0.0560407
-0.12095
-0.21595
-0.225882
-0.200747
-0.0156109
0.209525
0.654615
1.13466
1.41473
1.66982
1.03991
0.345
-0.0499095
-0.429819
-0.429729
-0.424638
-0.309615
-0.204661
-0.139638
-0.0795475
-0.0744344
-0.0692986
-0.0691855
-0.069095
-0.0739593
-0.0787783
-0.0885973
-0.0984389
-0.0983032
-0.0981222
-0.102919
-0.102738
-0.0875339
-0.0773529
-0.0822398
-0.0871041
-0.0869005
-0.0816968
-0.0715158
-0.0663122
-0.0711312
-0.0759502
-0.0757692
-0.0755656
-0.0703394
-0.0650905
-0.069819
-0.0695701
-0.0593439
-0.0541177
-0.0488914
-0.0436426
-0.0433711
-0.0330996
-0.0128281
-0.0175792
-0.0223529
-0.0120815
-0.00176471
0.00350678
0.00873302
0.00898189
0.00925339
0.0245249
0.0397737
0.0549774
0.070181
0.0754751
0.0858371
0.101131
0.111403
0.121674
0.131968
0.142308
0.15776
0.173326
0.184005
0.189796
0.205566
0.236267
0.251833
0.267511
0.282964
0.293462
0.303869
0.314186
0.31948
0.319751
0.309977
0.295158
0.270385
0.245656
0.210882
0.176063
0.161267
0.171493
0.111674
0.0818099
0.0569909
0.0322172
0.0224208
0.0126018
-0.00721723
-0.0270362
-0.0368552
-0.0466742
-0.0514706
-0.0562218
-0.065905
-0.0755883
-0.0652489
-0.0553394
-0.0608598
-0.0664028
-0.06681
-0.0664028
-0.06
-0.0515837
-0.0459955
-0.0391403
-0.0311312
-0.0259728
-0.0239592
-0.0237104
-0.0301583
-0.0366516
-0.0331674
-0.0291855
-0.0347285
-0.0399095
-0.0397964
-0.0397738
-0.039819
-0.0399548
-0.045181
-0.0505656
-0.0510407
-0.046629
-0.0422172
-0.0526471
-0.0630091
-0.0633711
-0.0636652
-0.0588236
-0.0538688
-0.0588688
-0.0638688
-0.0588688
-0.0538462
-0.0587557
-0.0636199
-0.0634842
-0.0633484
-0.0632127
-0.0630543
-0.0678507
-0.0726471
-0.0674887
-0.062353
-0.0671946
-0.071991
-0.0717421
-0.0714932
-0.066267
-0.0610181
-0.0657014
-0.0704073
-0.0701358
-0.0698643
-0.0645928
-0.0593213
-0.0638688
-0.0680091
-0.0619005
-0.0556787
-0.0547285
-0.0543665
-0.060362
-0.0682579
-0.0630995
-0.0699095
-0.0759729
-0.08
-0.0816516
-0.0807919
-0.0788009
-0.081086
-0.0833711
-0.0758598
-0.0686878
-0.0667873
-0.0650679
-0.0685068
-0.0719005
-0.0652489
-0.0585294
-0.0567421
-0.0549095
-0.0530543
-0.0512217
-0.0544344
-0.0577828
-0.056267
-0.0548869
-0.0486425
-0.0424887
-0.0413122
-0.0404072
-0.044638
-0.0489819
-0.0434389
-0.0379864
-0.0326244
-0.0273529
-0.0321719
-0.0370362
-0.0369683
-0.0419683
-0.0519909
-0.0470136
-0.0570588
-0.0270814
-0.0271041
-0.0321946
-0.0373303
-0.0324434
-0.0275566
-0.0276923
-0.027828
-0.0279864
-0.0281674
-0.028371
-0.0286199
-0.033914
-0.0392307
-0.0295701
-0.0199774
-0.0154072
-0.0158823
-0.031448
-0.0370814
-0.0127602
0.00649323
0.0256788
0.0447964
0.0738236
0.0877828
0.101674
0.0904978
0.0542761
0.0379638
0.0315385
0.0150227
-0.00156104
-0.0181674
-0.0347963
-0.0415158
-0.0433031
-0.045113
-0.051923
-0.0587329
-0.0654977
-0.0721719
-0.073733
-0.0801809
-0.0865158
-0.0827601
-0.0788913
-0.0748642
-0.0706787
-0.0764027
-0.0820588
-0.0776244
-0.0730995
-0.0684615
-0.0637556
-0.0640271
-0.0642533
-0.0544344
-0.0445701
-0.039638
-0.0747285
-0.164887
-0.220045
-0.230158
-0.155249
-0.0103393
0.30457
0.729457
1.16932
1.61923
1.46416
1.02412
0.509072
-0.0359728
-0.270973
-0.415928
-0.40595
-0.356041
-0.266109
-0.176154
-0.121222
-0.0713122
-0.0664253
-0.066561
-0.0716515
-0.0766968
-0.081742
-0.0867873
-0.0918325
-0.0968552
-0.0918552
-0.0868778
-0.0919457
-0.0970362
-0.092104
-0.0871493
-0.0871945
-0.0872398
-0.0873529
-0.0874434
-0.077466
-0.0674886
-0.0675113
-0.0674886
-0.067466
-0.0624208
-0.0523303
-0.0523076
-0.0623755
-0.0674208
-0.0625113
-0.052466
-0.0424208
-0.0373981
-0.0423981
-0.0423982
-0.0323981
-0.0273755
-0.0223303
-0.0172624
-0.0121719
-0.00205879
0.00807696
0.0131675
0.0132127
0.0233032
0.033439
0.0485973
0.0637557
0.0738236
0.0838462
0.0989819
0.114208
0.129525
0.144932
0.155475
0.171109
0.191855
0.207557
0.218122
0.233552
0.253982
0.269344
0.279638
0.289842
0.304955
0.315023
0.325068
0.330136
0.325204
0.310272
0.290339
0.265407
0.240475
0.215452
0.190362
0.160294
0.130249
0.100249
0.0752941
0.0552488
0.0351583
0.0150905
-0.00495478
-0.0149774
-0.0249774
-0.0399774
-0.0499547
-0.0598416
-0.0696606
-0.059457
-0.0494118
-0.0547964
-0.0604525
-0.0611538
-0.0615385
-0.0613122
-0.0596833
-0.0561312
-0.0505883
-0.0479864
-0.0460633
-0.0411312
-0.0385067
-0.0483257
-0.0592533
-0.0508823
-0.042466
-0.0438235
-0.0447511
-0.0402489
-0.0355882
-0.0358145
-0.0361086
-0.0415158
-0.0471041
-0.0478281
-0.0485973
-0.0493439
-0.0549321
-0.0654299
-0.0659276
-0.0563575
-0.0516742
-0.0519457
-0.052172
-0.052353
-0.052534
-0.0426923
-0.0527602
-0.0628054
-0.0578054
-0.0527602
-0.0577376
-0.0627149
-0.0726471
-0.0825566
-0.0724661
-0.0623982
-0.0623529
-0.0623077
-0.0622624
-0.0621946
-0.0621267
-0.0620362
-0.0569683
-0.0519005
-0.0567873
-0.0617195
-0.0666742
-0.0713122
-0.0756335
-0.0795701
-0.0732805
-0.0673529
-0.0671719
-0.068552
-0.0717873
-0.0774434
-0.0793439
-0.0806335
-0.0852489
-0.0867647
-0.086086
-0.0841629
-0.081629
-0.0840724
-0.0916968
-0.0896606
-0.0928959
-0.0764254
-0.0800453
-0.0786652
-0.0772625
-0.0708145
-0.0642534
-0.057534
-0.0507466
-0.053914
-0.0570588
-0.0602489
-0.0635294
-0.0668778
-0.0653168
-0.0488688
-0.0376018
-0.0364706
-0.0354299
-0.0394797
-0.0436878
-0.0280317
-0.022534
-0.0221946
-0.0219231
-0.0217195
-0.0215385
-0.0213801
-0.0263349
-0.0363801
-0.0414706
-0.0416063
-0.0417421
-0.0368778
-0.0320136
-0.0321493
-0.0273077
-0.0175113
-0.0127602
-0.0130543
-0.0133937
-0.0187557
-0.0241403
-0.0245702
-0.0300453
-0.035543
-0.0261086
-0.0167647
-0.0174208
-0.0180543
-0.0237104
-0.0294118
-0.0101357
0.0140724
0.03319
0.0572625
0.091267
0.115158
0.118982
0.107715
0.0663575
0.0399095
0.0433484
0.0316968
0
-0.0167195
-0.0234842
-0.0302941
-0.0321493
-0.0390498
-0.0609502
-0.0678507
-0.0697285
-0.0714706
-0.0680543
-0.0695249
-0.0808823
-0.0821719
-0.073371
-0.0693891
-0.0752262
-0.0809276
-0.0765611
-0.0721719
-0.0626923
-0.0630996
-0.0634163
-0.0636425
-0.0638009
-0.0489366
-0.0390724
-0.104208
-0.169344
-0.244525
-0.284751
-0.199932
-0.0350679
0.319796
0.739661
1.28948
1.5793
1.45414
1.09403
0.423937
-0.0461538
-0.306244
-0.426335
-0.421425
-0.366538
-0.271697
-0.196855
-0.122036
-0.0871493
-0.067285
-0.0574434
-0.0576244
-0.0727601
-0.0928507
-0.0978959
-0.0978959
-0.0979185
-0.0929638
-0.0880316
-0.0931221
-0.0982352
-0.0983484
-0.083371
-0.0783257
-0.0883031
-0.0983031
-0.0933484
-0.0884389
-0.0734389
-0.0583936
-0.0633257
-0.0682579
-0.0732353
-0.0782126
-0.0681448
-0.0580769
-0.0580543
-0.0580543
-0.0480543
-0.0380316
-0.0429638
-0.0479185
-0.0429185
-0.0328959
-0.022828
-0.0127149
-0.00257915
0.00255658
0.0026697
0.00778283
0.0179186
0.0230091
0.0280543
0.0381222
0.0482127
0.0533258
0.0584616
0.068552
0.0785973
0.098733
0.118982
0.129321
0.139774
0.160407
0.176176
0.196946
0.217624
0.233077
0.248303
0.268416
0.288348
0.298032
0.307692
0.317421
0.327195
0.337036
0.3469
0.336719
0.321584
0.296493
0.266448
0.236471
0.206561
0.181674
0.151765
0.121878
0.0920136
0.0621267
0.0472172
0.0423303
0.0224434
-0.00242081
-0.0222851
-0.0371493
-0.0470136
-0.0568778
-0.0616742
-0.0664253
-0.071448
-0.0667647
-0.0624661
-0.068371
-0.0738914
-0.0736651
-0.0718552
-0.05819
-0.0521267
-0.0447285
-0.042828
-0.0421945
-0.0391402
-0.0381674
-0.0384615
-0.0401583
-0.0428507
-0.0474887
-0.0540498
-0.0618326
-0.0707466
-0.0765159
-0.0740272
-0.0695475
-0.0732353
-0.0767874
-0.0802489
-0.0840951
-0.0832806
-0.0828733
-0.0827828
-0.0828055
-0.0829638
-0.0831222
-0.0882579
-0.0933032
-0.0883032
-0.0833258
-0.078371
-0.0734163
-0.0784615
-0.0834389
-0.0883484
-0.0882579
-0.0781674
-0.0781222
-0.0881222
-0.0930995
-0.0930543
-0.0929864
-0.0928959
-0.0977828
-0.10267
-0.0926244
-0.0826244
-0.0826244
-0.0826018
-0.0875113
-0.0923529
-0.0921719
-0.0919909
-0.0967873
-0.101606
-0.0963122
-0.0911765
-0.0860181
-0.0808145
-0.0855656
-0.090362
-0.0852036
-0.0800226
-0.079819
-0.0795475
-0.0792081
-0.0788688
-0.0835294
-0.0881222
-0.0826923
-0.0722624
-0.06181
-0.0363348
-0.00585972
0.024638
0.0501584
0.0406109
0.0210408
0.00647061
-0.00809953
-0.0176923
-0.0273077
-0.0420362
-0.0518778
-0.0618552
-0.0720362
-0.0874209
-0.102964
-0.0986199
-0.0943439
-0.0951132
-0.0959503
-0.0968552
-0.0976923
-0.0934163
-0.0891177
-0.089819
-0.0904752
-0.091086
-0.0915837
-0.0919684
-0.092353
-0.0977376
-0.0980543
-0.088258
-0.0833937
-0.0835068
-0.0836652
-0.0788461
-0.0690045
-0.049095
-0.0541629
-0.0692081
-0.149276
-0.249367
-0.259412
-0.239412
-0.049457
0.175452
0.660362
1.18027
1.52518
1.85009
1.18998
0.489842
0.0597285
-0.345362
-0.390475
-0.430611
-0.350769
-0.275928
-0.186041
-0.111154
-0.0813122
-0.0564932
-0.0616742
-0.0668552
-0.0720362
-0.0772172
-0.0824208
-0.0876245
-0.0828281
-0.0779865
-0.0781448
-0.0782806
-0.0833937
-0.0885521
-0.0837104
-0.0788236
-0.0739367
-0.0690951
-0.0742761
-0.0794344
-0.0745702
-0.0647285
-0.0549095
-0.0500679
-0.0452037
-0.0403168
-0.0454073
-0.0505204
-0.0456561
-0.0407919
-0.045905
-0.0359955
-0.0511086
-0.0112444
-0.0113801
-0.0114706
-0.0115158
0.00339365
0.0182579
0.0231222
0.0279864
0.0328507
0.0377376
0.0476697
0.0576244
0.0625339
0.0723982
0.0922851
0.107217
0.117149
0.132217
0.147443
0.162805
0.188281
0.203688
0.213982
0.224186
0.239299
0.254389
0.269457
0.279457
0.284412
0.299344
0.314231
0.318959
0.318552
0.303213
0.282941
0.26767
0.252376
0.222014
0.191561
0.165995
0.140362
0.109638
0.083914
0.0482579
0.0126923
0.0072398
0.00183256
-0.0186199
-0.0390498
-0.0493665
-0.059638
-0.0548869
-0.0501131
-0.0553167
-0.0604525
-0.0654525
-0.0704525
-0.0705204
-0.0709502
-0.0818326
-0.0927376
-0.0835294
-0.0734842
-0.0724434
-0.0692308
-0.0636878
-0.0565837
-0.0430091
-0.0324435
-0.0300679
-0.0296607
-0.0311086
-0.032715
-0.0344797
-0.0409729
-0.0521041
-0.0526245
-0.0425113
-0.0369005
-0.0361765
-0.0358598
-0.041629
-0.0489367
-0.0433484
-0.045181
-0.0475113
-0.0593892
-0.0688236
-0.0801132
-0.089819
-0.0784163
-0.0670362
-0.0758824
-0.0851358
-0.0798417
-0.0747738
-0.0799548
-0.085181
-0.0853846
-0.0854978
-0.0805204
-0.0754978
-0.0804299
-0.0853394
-0.0852715
-0.0852263
-0.0851584
-0.0900905
-0.100068
-0.0999774
-0.0899322
-0.0847285
-0.0895475
-0.0944118
-0.0893213
-0.0841177
-0.0788009
-0.0734842
-0.0731675
-0.077896
-0.0876018
-0.0922172
-0.0867874
-0.0813801
-0.0809503
-0.0804525
-0.0699095
-0.0743439
-0.0787557
-0.0781448
-0.0774887
-0.0717421
-0.0659503
-0.0601358
-0.0542987
-0.0584163
-0.0624887
-0.0614706
-0.0604525
-0.0643439
-0.0633937
-0.0424208
-0.0264706
-0.0355657
-0.0447964
-0.0441856
-0.0386878
-0.0233032
-0.00309959
0.026923
0.0467647
0.0664253
0.0659049
0.0502036
0.0292307
0.00298638
-0.00834846
-0.00475118
-0.0112896
-0.0279865
-0.0347964
-0.0416969
-0.0485747
-0.0504299
-0.0572851
-0.0690951
-0.0758371
-0.0774435
-0.0788688
-0.080181
-0.0864706
-0.0926923
-0.0887331
-0.0845928
-0.0803394
-0.0760181
-0.076629
-0.077172
-0.0726245
-0.0679865
-0.0632806
-0.0585068
-0.0686878
-0.0738009
-0.0538462
-0.0589367
-0.104095
-0.169276
-0.249434
-0.24957
-0.164706
0.0701357
0.404932
0.864706
1.39453
1.49939
1.4043
0.869208
0.174118
-0.176041
-0.426267
-0.426471
-0.371652
-0.276878
-0.172149
-0.117376
-0.0675566
-0.0627828
-0.0630543
-0.0733258
-0.0835973
-0.0888235
-0.0940045
-0.0942082
-0.0944344
-0.094638
-0.094819
-0.09
-0.0852036
-0.0904751
-0.0957693
-0.0909955
-0.0861765
-0.0764254
-0.0666968
-0.0769457
-0.087172
-0.0823756
-0.0775339
-0.0626697
-0.0627828
-0.0728959
-0.0730769
-0.0632806
-0.0584389
-0.0535747
-0.0487104
-0.0438009
-0.0339593
-0.0241855
-0.0194118
-0.014638
-0.009819
-0.00495475
-6.78711e-05
0.00486426
0.00981901
0.00477376
0.0147059
-0.000384615
0.0494796
0.0593213
0.069276
0.0792986
0.0942308
0.109118
0.11905
0.129027
0.139072
0.149208
0.16448
0.179842
0.190317
0.205792
0.231222
0.256493
0.271674
0.28181
0.291968
0.307059
0.322036
0.332014
0.331991
0.331946
0.3269
0.311833
0.291719
0.256606
0.216516
0.19138
0.176199
0.150995
0.120769
0.0905882
0.0654525
0.0502715
0.0351131
0.02
0.0049095
-0.010181
-0.0252715
-0.0403167
-0.0503167
-0.0653394
-0.0803846
-0.0753846
-0.0704299
-0.0657014
-0.0612896
-0.0622172
-0.0631222
-0.0586652
-0.0531674
-0.0511312
-0.046991
-0.0454525
-0.0434389
-0.0418552
-0.0426697
-0.0366064
-0.032172
-0.028914
-0.0256787
-0.0272172
-0.0282806
-0.0338235
-0.0392082
-0.034457
-0.0297511
-0.0301358
-0.030724
-0.0364706
-0.0423077
-0.0431448
-0.0438009
-0.0493439
-0.0548869
-0.0554072
-0.0558597
-0.0512217
-0.0465158
-0.0517873
-0.0570588
-0.0473077
-0.0474661
-0.0475566
-0.0476697
-0.0478054
-0.0528959
-0.0579186
-0.0678281
-0.0777376
-0.0677376
-0.0577602
-0.0627376
-0.0676923
-0.0676244
-0.0675339
-0.0574208
-0.0473077
-0.0471946
-0.0470588
-0.0519005
-0.0566968
-0.056448
-0.061267
-0.0711312
-0.0757919
-0.0702262
-0.0642308
-0.0580995
-0.0520588
-0.0566516
-0.0575792
-0.050181
-0.055
-0.0711991
-0.0826697
-0.0878507
-0.0900226
-0.0899095
-0.0881222
-0.0905656
-0.0878959
-0.0903394
-0.0730769
-0.0760407
-0.0742534
-0.0726245
-0.061086
-0.0495023
-0.0528054
-0.0560407
-0.0542534
-0.0524435
-0.0506335
-0.0488688
-0.0522172
-0.0557466
-0.044457
-0.0332579
-0.0321494
-0.0311312
-0.0352263
-0.0395023
-0.0239367
-0.0234389
-0.0330091
-0.0376471
-0.032353
-0.0271041
-0.0319005
-0.03681
-0.04181
-0.0418779
-0.0320136
-0.0271494
-0.0222851
-0.0173982
-0.0225113
-0.0276923
-0.0229186
-0.0181222
-0.0233032
-0.0285068
-0.0287331
-0.0290046
-0.0293213
-0.0346607
-0.0400679
-0.0305204
-0.0209955
-0.0164932
-0.011991
-0.0225113
-0.0331222
-0.0138462
0.00538459
0.0196154
0.0388009
0.0729185
0.0969457
0.110882
0.104774
0.0636425
0.0373982
0.0360181
0.0295475
0.018009
0.0014027
-0.0202489
-0.0319683
-0.0288009
-0.0306787
-0.0425339
-0.0492987
-0.0560181
-0.0626923
-0.069276
-0.0807466
-0.0921267
-0.0934616
-0.0847285
-0.0808371
-0.0817647
-0.0825792
-0.0833258
-0.0840045
-0.0845928
-0.0750453
-0.065362
-0.0655883
-0.0657466
-0.0708824
-0.0759955
-0.0560634
-0.0411539
-0.0813349
-0.136561
-0.221742
-0.266878
-0.196968
-0.0470136
0.257919
0.637828
1.14276
1.46269
1.53258
1.25747
0.602376
0.107262
-0.247873
-0.402986
-0.4181
-0.378235
-0.288416
-0.213507
-0.143597
-0.0986878
-0.0687783
-0.0638235
-0.0738235
-0.0788461
-0.0838914
-0.088914
-0.093914
-0.0989366
-0.0939819
-0.0890271
-0.0890724
-0.0940724
-0.0890271
-0.0939819
-0.0989366
-0.0888914
-0.0788461
-0.0787556
-0.0786878
-0.0786425
-0.0785973
-0.0835294
-0.0884389
-0.0783937
-0.068371
-0.0683937
-0.0683484
-0.0632805
-0.0581674
-0.058009
-0.0528281
-0.0376697
-0.0275566
-0.0274434
-0.0273077
-0.0221946
-0.0170588
-0.0118778
-0.00674207
-0.00665157
0.00346155
0.0185973
0.0287557
0.0389367
0.0441629
0.0494344
0.069638
0.0897738
0.0949774
0.100249
0.115611
0.131086
0.151742
0.167511
0.173303
0.17905
0.204638
0.230136
0.245633
0.261109
0.276538
0.2919
0.312149
0.33233
0.337557
0.342805
0.323009
0.31319
0.303348
0.283529
0.253733
0.228846
0.208869
0.183891
0.158959
0.12905
0.0991403
0.0792081
0.0642534
0.0443213
0.0244118
0.00452489
-0.0153394
-0.030181
-0.04
-0.049819
-0.059638
-0.0593891
-0.049095
-0.0440045
-0.0491855
-0.0547511
-0.0605204
-0.0659955
-0.0658145
-0.0592534
-0.0509729
-0.0453846
-0.0383032
-0.0358597
-0.034638
-0.0263801
-0.020362
-0.0259729
-0.0323529
-0.0288688
-0.0252263
-0.0311539
-0.0366968
-0.0368552
-0.0368778
-0.0368326
-0.0369005
-0.0371493
-0.0375339
-0.0430543
-0.0485973
-0.0441629
-0.0396606
-0.0450453
-0.050362
-0.0506109
-0.0507919
-0.0508824
-0.0509502
-0.0559955
-0.0609502
-0.0558145
-0.0506787
-0.055543
-0.0603846
-0.0602036
-0.0600226
-0.0548416
-0.054638
-0.0494118
-0.0642081
-0.0590272
-0.0638009
-0.0685294
-0.0682579
-0.0679638
-0.0626244
-0.0572625
-0.0568778
-0.0564932
-0.0661312
-0.0757692
-0.0654073
-0.0549095
-0.0645475
-0.0734163
-0.06681
-0.060543
-0.0647059
-0.0704978
-0.0680091
-0.0678054
-0.0693213
-0.0702036
-0.0798869
-0.0865385
-0.0906561
-0.0885068
-0.0755204
-0.0676697
-0.0700453
-0.0726923
-0.0705883
-0.0687104
-0.066991
-0.0653168
-0.0586199
-0.0517874
-0.054819
-0.0577828
-0.0557014
-0.0537104
-0.0517421
-0.0597738
-0.0678733
-0.0561313
-0.0445249
-0.0430091
-0.0416064
-0.0403394
-0.0392534
-0.0333484
-0.0275566
-0.03181
-0.0361313
-0.0305657
-0.0250906
-0.0296833
-0.0343213
-0.038982
-0.0437331
-0.0385747
-0.0334163
-0.0282127
-0.0230091
-0.0228507
-0.0227376
-0.0176697
-0.0126697
-0.012715
-0.0127376
-0.0177376
-0.0277602
-0.0378055
-0.0428733
-0.0429865
-0.0431448
-0.0383258
-0.0235521
-0.00882357
-0.00409506
-0.00938918
-0.0197738
-0.0352715
-0.0208598
-0.00649326
0.0228506
0.0521267
0.0763348
0.10052
0.0996606
0.0986651
0.0775791
0.0564253
0.0451583
0.0288235
0.00744341
-0.00904982
-0.0206788
-0.032353
-0.0440951
-0.0558145
-0.0574661
-0.0590724
-0.0656788
-0.0722172
-0.0786426
-0.0849548
-0.0811313
-0.077172
-0.0730543
-0.0688688
-0.0745249
-0.0801358
-0.0806788
-0.0810634
-0.0763349
-0.0715385
-0.0766516
-0.0766516
-0.0666064
-0.0615837
-0.0565837
-0.0815611
-0.0514932
-0.211425
-0.30138
-0.21629
-0.111199
0.253801
0.638756
1.16373
1.56376
1.42885
1.16898
0.514118
-0.0307466
-0.290611
-0.460475
-0.425272
-0.370136
-0.285023
-0.204932
-0.139842
-0.0897511
-0.0646606
-0.0545701
-0.064457
-0.0743213
-0.0842081
-0.089095
-0.0889593
-0.0938009
-0.10362
-0.108484
-0.103394
-0.0983032
-0.0982127
-0.0980996
-0.0929638
-0.0828281
-0.0726923
-0.0675339
-0.0723529
-0.0771719
-0.071991
-0.0717873
-0.0765611
-0.0813348
-0.0861086
-0.0759276
-0.0657919
-0.0656335
-0.0654525
-0.0602262
-0.0549547
-0.0497059
-0.0444796
-0.0342534
-0.0240271
-0.0237783
-0.0234842
-0.01819
-0.0129185
-0.0126697
-0.00751131
0.00757919
0.0176471
0.0227149
0.0279412
0.0333258
0.0437104
0.0590498
0.079276
0.0993439
0.109367
0.114344
0.129344
0.144389
0.14957
0.15491
0.180339
0.205837
0.226267
0.246652
0.257059
0.267466
0.292851
0.323235
0.33362
0.343959
0.334208
0.324412
0.319661
0.314955
0.295272
0.270543
0.245724
0.22086
0.191018
0.161199
0.13138
0.101561
0.0867195
0.0668552
0.031991
0.0071267
-0.00271493
-0.0175339
-0.0423756
-0.0522172
-0.0570136
-0.0618552
-0.0567421
-0.0567421
-0.0664706
-0.0714706
-0.0765611
-0.0712669
-0.0557692
-0.0493665
-0.0476244
-0.0507466
-0.059276
-0.0655656
-0.0727375
-0.0804072
-0.0880317
-0.0892986
-0.095
-0.0749321
-0.0745249
-0.0739819
-0.0734389
-0.073009
-0.0726697
-0.0724887
-0.0723303
-0.0722398
-0.0721946
-0.0771493
-0.0820588
-0.0869004
-0.0917421
-0.091629
-0.0915837
-0.0815158
-0.0714253
-0.0763348
-0.0812896
-0.081267
-0.0811991
-0.081086
-0.0809502
-0.0858371
-0.0907466
-0.0906335
-0.0905204
-0.0954299
-0.100407
-0.0954525
-0.0904525
-0.0904072
-0.0903846
-0.0953846
-0.10043
-0.0954751
-0.0904977
-0.0854977
-0.0804525
-0.085362
-0.0952715
-0.100204
-0.105158
-0.110113
-0.0950905
-0.0800905
-0.0750679
-0.0700226
-0.0899774
-0.109932
-0.104887
-0.0998642
-0.0848416
-0.0647738
-0.0396606
-0.0145701
0.0104977
0.0305882
0.0257014
0.0157466
-0.00427601
-0.0192534
-0.0241855
-0.034095
-0.0489819
-0.063914
-0.0788914
-0.0938235
-0.103688
-0.103529
-0.0933484
-0.0932127
-0.103122
-0.113032
-0.122919
-0.117805
-0.102692
-0.0976018
-0.0975113
-0.0974208
-0.0923303
-0.0872625
-0.0872172
-0.0871267
-0.0870136
-0.0869457
-0.0868778
-0.0867647
-0.0866968
-0.0867195
-0.0867421
-0.0717421
-0.0567421
-0.0566968
-0.086629
-0.186584
-0.256584
-0.256697
-0.196765
-0.0317421
0.278348
0.773484
1.2636
1.73867
1.67371
1.12873
0.57371
0.0136425
-0.281448
-0.416584
-0.436606
-0.381606
-0.301629
-0.211674
-0.141719
-0.0817647
-0.0667873
-0.0617873
-0.0617873
-0.0717647
-0.0867195
-0.101697
-0.106742
-0.106833
-0.0969231
-0.0970136
-0.0970588
-0.0970588
-0.0871041
-0.0771946
-0.0772624
-0.0772851
-0.0772624
-0.0772172
-0.0771946
-0.0771946
-0.0771719
-0.0771493
-0.0671267
-0.0572172
-0.0572851
-0.0573529
-0.0524434
-0.0475339
-0.0326471
-0.0278054
-0.0279638
-0.0280995
-0.0282127
-0.028371
-0.0286425
-0.0240498
-0.0145701
-0.010181
-0.00581447
0.00375567
0.0135068
0.0183484
0.0232579
0.0280769
0.0328281
0.0476471
0.0625339
0.072534
0.0826697
0.0979638
0.108394
0.118937
0.12957
0.150158
0.170679
0.186131
0.201538
0.216923
0.23224
0.252443
0.272557
0.287602
0.302579
0.307511
0.312466
0.312489
0.312534
0.307557
0.297466
0.277262
0.252059
0.2319
0.206719
0.176538
0.146606
0.121968
0.0976471
0.0733937
0.0486425
0.0229638
-0.00438914
-0.0286199
-0.0400905
-0.0524887
-0.0691855
-0.0839819
-0.0906335
-0.0952489
-0.0988009
-0.102172
-0.0962444
-0.0760181
-0.0812217
-0.0864706
-0.0961991
-0.104593
-0.100769
-0.0947059
-0.0864253
-0.0784389
-0.0679638
-0.06
-0.0545249
-0.050362
-0.0568326
-0.0634163
-0.0597511
-0.0557466
-0.0563575
-0.056629
-0.0616063
-0.0665158
-0.0664027
-0.0712896
-0.0812217
-0.0812443
-0.0713575
-0.0665158
-0.0666968
-0.0668326
-0.0669683
-0.0671493
-0.0623756
-0.0575566
-0.0626923
-0.0728281
-0.0829638
-0.0881222
-0.0883032
-0.0884842
-0.0936878
-0.0939593
-0.099276
-0.0795701
-0.0798416
-0.0751131
-0.0704299
-0.0707919
-0.0711538
-0.0664706
-0.0617873
-0.0621267
-0.0625339
-0.048009
-0.0285068
-0.00902714
0.0103846
0.0249095
0.0242082
-0.00653845
-0.0323077
-0.0480995
-0.0589593
-0.0598869
-0.0658371
-0.07681
-0.0877828
-0.0987557
-0.109729
-0.120701
-0.126561
-0.12733
-0.128054
-0.12371
-0.119208
-0.124525
-0.129661
-0.129615
-0.124389
-0.113959
-0.108303
-0.107443
-0.10638
-0.105136
-0.108756
-0.112262
-0.115679
-0.11905
-0.102443
-0.0858597
-0.0793213
-0.0728507
-0.0614253
-0.0600905
-0.113914
-0.172896
-0.236991
-0.251199
-0.140498
0.0651131
0.435611
0.850996
1.34629
1.55154
1.39674
0.976901
0.297014
-0.137896
-0.372828
-0.442783
-0.38776
-0.302738
-0.207647
-0.137557
-0.087466
-0.0724208
-0.0674208
-0.0723981
-0.0873529
-0.0873303
-0.0773303
-0.077285
-0.0871945
-0.0920814
-0.0869457
-0.0818552
-0.0818099
-0.0767194
-0.0715837
-0.0764253
-0.0812443
-0.0810859
-0.0809502
-0.0807918
-0.0806334
-0.0755429
-0.0704751
-0.065362
-0.0602262
-0.0600905
-0.0599547
-0.0498642
-0.0397737
-0.0396606
-0.0395022
-0.0393439
-0.0392081
-0.034095
-0.0289819
-0.0288461
-0.0237556
-0.00873301
0.001267
0.00622175
0.0113122
0.0114254
0.0214932
0.0365159
0.0414706
0.0463349
0.0511086
0.0558145
0.0704525
0.0851131
0.09
0.0950679
0.115226
0.100498
0.155905
0.171357
0.186697
0.201946
0.222149
0.24233
0.252534
0.262738
0.277919
0.293077
0.303213
0.313348
0.303484
0.293575
0.29371
0.288688
0.273665
0.253688
0.22871
0.20371
0.17871
0.14871
0.118733
0.0938009
0.0638914
0.0389593
0.0140045
-0.00597285
-0.0259955
-0.0361312
-0.0362443
-0.0409276
-0.0502715
-0.0593665
-0.0685973
-0.0734163
-0.0694344
-0.0674434
-0.0727828
-0.0807014
-0.0937104
-0.104729
-0.107466
-0.105701
-0.100679
-0.0876471
-0.0736652
-0.0656335
-0.0598869
-0.057647
-0.0576697
-0.0590271
-0.0607466
-0.0571946
-0.0532127
-0.0587557
-0.0639367
-0.0638688
-0.0637104
-0.0685068
-0.0733484
-0.0682806
-0.0632353
-0.0681674
-0.0730769
-0.0730091
-0.0730091
-0.0680317
-0.0630317
-0.0680317
-0.0729864
-0.0778959
-0.0828507
-0.0828507
-0.082828
-0.0878054
-0.0928507
-0.0879412
-0.083009
-0.0830543
-0.0830995
-0.0831674
-0.0832805
-0.0734163
-0.0735068
-0.073552
-0.0785973
-0.0836425
-0.0887104
-0.0938009
-0.0988688
-0.103959
-0.0941176
-0.0842986
-0.079457
-0.0745928
-0.0847285
-0.0899095
-0.075181
-0.0604525
-0.0457014
-0.0259729
-0.00126697
0.0184163
0.0330769
0.0277828
-0.00748869
-0.0278507
-0.0282805
-0.0336652
-0.0491629
-0.0594796
-0.064819
-0.070181
-0.0755656
-0.0809276
-0.0862443
-0.0915158
-0.0967421
-0.101878
-0.106878
-0.116719
-0.126425
-0.121109
-0.130724
-0.0952263
-0.0896154
-0.0939367
-0.0982579
-0.0976245
-0.0970136
-0.0914254
-0.0858824
-0.0903847
-0.0949322
-0.0895475
-0.0842308
-0.0839819
-0.0788009
-0.0587104
-0.0686426
-0.148552
-0.208484
-0.258462
-0.223507
-0.0836199
0.181244
0.566131
1.02106
1.52602
1.53097
1.2009
0.680837
0.0557918
-0.249299
-0.419434
-0.424548
-0.369638
-0.284706
-0.189751
-0.124864
-0.065
-0.0551131
-0.0602036
-0.0702715
-0.0802941
-0.0902941
-0.0952941
-0.100294
-0.105294
-0.100339
-0.0954299
-0.0904978
-0.085543
-0.0905883
-0.0956335
-0.0857014
-0.0757919
-0.0758597
-0.0758824
-0.0808824
-0.0858824
-0.080905
-0.0759276
-0.0809276
-0.0809729
-0.066086
-0.0562217
-0.0563348
-0.0564027
-0.051448
-0.0415384
-0.0316742
-0.0268099
-0.0269004
-0.0269683
-0.0270136
-0.0270588
-0.022104
-0.0171493
-0.0171945
-0.00730766
0.00751135
0.0173756
0.0273077
0.0323077
0.0373077
0.052172
0.071991
0.0819231
0.0919457
0.102059
0.112285
0.122602
0.133009
0.138529
0.149027
0.174321
0.194502
0.204683
0.214842
0.229955
0.250023
0.27
0.289977
0.304955
0.31491
0.314842
0.314751
0.309638
0.294525
0.269412
0.249208
0.233914
0.208643
0.183326
0.153167
0.123032
0.102828
0.0875566
0.0673304
0.0471494
0.026991
0.00685523
-0.00830314
-0.0234841
-0.0336199
-0.043733
-0.0488914
-0.0490497
-0.0541176
-0.0592307
-0.0597285
-0.0605203
-0.0565384
-0.0523982
-0.0526244
-0.0516516
-0.0539593
-0.0543213
-0.0475113
-0.0407692
-0.0406108
-0.042828
-0.0328733
-0.0241629
-0.0261312
-0.0280995
-0.0347964
-0.0410633
-0.0268552
-0.0223303
-0.0275113
-0.0325792
-0.0326018
-0.0376923
-0.0478507
-0.053009
-0.0531448
-0.0533258
-0.048552
-0.0437556
-0.0439366
-0.044095
-0.0492308
-0.0544117
-0.049638
-0.0447964
-0.0448869
-0.05
-0.0601357
-0.0652941
-0.0654751
-0.0706561
-0.0758371
-0.0660407
-0.0559502
-0.0554072
-0.0547285
-0.0590724
-0.0642082
-0.0552489
-0.0479412
-0.0523756
-0.0586652
-0.0718552
-0.0827828
-0.0913349
-0.0974661
-0.10129
-0.104729
-0.0928733
-0.0813349
-0.0800905
-0.0842082
-0.0936199
-0.0881901
-0.0678959
-0.0624887
-0.0719457
-0.0763122
-0.0805883
-0.084819
-0.0790045
-0.0781222
-0.087172
-0.0862444
-0.0753168
-0.0692534
-0.0680769
-0.0668552
-0.0705882
-0.069276
-0.0528959
-0.0564253
-0.0598642
-0.0582127
-0.0564932
-0.0547964
-0.0531222
-0.056448
-0.0598416
-0.0483937
-0.0370588
-0.0357919
-0.034638
-0.0336199
-0.0327828
-0.0221493
-0.011629
-0.0211991
-0.0308597
-0.0306109
-0.0304977
-0.0305203
-0.0306109
-0.0357692
-0.0360181
-0.0263575
-0.0217647
-0.0222172
-0.0226923
-0.0182127
-0.0138235
-0.0145249
-0.0152715
-0.0160407
-0.0168326
-0.0126697
0.0114027
0.0353846
0.0543213
0.0731901
0.0769457
0.0756109
0.044276
0.0229186
0.0164932
0.00999999
-0.00162897
-0.0133032
-0.0199321
-0.0265611
-0.0432353
-0.0599548
-0.0566516
-0.0532353
-0.0647285
-0.0761765
-0.0726697
-0.068914
-0.0700226
-0.0709955
-0.0718552
-0.0726018
-0.0682579
-0.0638236
-0.0692534
-0.0746154
-0.0699321
-0.0652036
-0.0654299
-0.0655882
-0.0606787
-0.0558371
-0.0560634
-0.121222
-0.206312
-0.22638
-0.221425
-0.0465611
0.158258
0.533122
0.928032
1.34296
1.76292
1.26287
0.737828
0.20276
-0.30233
-0.382466
-0.447647
-0.36776
-0.287805
-0.197851
-0.122919
-0.0830317
-0.0481448
-0.0582127
-0.0682579
-0.0783032
-0.0883258
-0.0883484
-0.0884163
-0.0934842
-0.0985294
-0.0885973
-0.0786652
-0.0836878
-0.0886878
-0.0886878
-0.0886652
-0.0836425
-0.0786199
-0.0785294
-0.0784615
-0.0834163
-0.0883484
-0.0832579
-0.07819
-0.0831448
-0.0830769
-0.073009
-0.0679412
-0.0678507
-0.0677375
-0.0626018
-0.0524661
-0.0373303
-0.0321493
-0.0269231
-0.0267421
-0.0266064
-0.0164706
-0.00633486
-0.00617649
-0.00597287
0.00425337
0.0145022
0.0247737
0.0350452
0.0353167
0.0405882
0.0608824
0.0811765
0.096448
0.106697
0.111923
0.122195
0.137534
0.152986
0.163552
0.179231
0.200023
0.215792
0.226516
0.242127
0.25767
0.27319
0.298688
0.304118
0.30948
0.314819
0.320136
0.325453
0.320724
0.290996
0.26129
0.246584
0.256833
0.202036
0.177217
0.152421
0.127647
0.102851
0.0780317
0.0532127
0.0283937
0.0185521
0.00871043
-0.00606332
-0.0257918
-0.0455203
-0.0602488
-0.0499547
-0.0396606
-0.0444344
-0.0495022
-0.0549547
-0.0604751
-0.0459502
-0.0406561
-0.039457
-0.0365611
-0.0368778
-0.0353167
-0.0318552
-0.0306561
-0.0268325
-0.0253846
-0.0211764
-0.0173755
-0.023914
-0.0300904
-0.0309049
-0.0313121
-0.03138
-0.0262669
-0.0159954
-0.0157692
-0.0256108
-0.0355429
-0.0405429
-0.0355655
-0.0307239
-0.0360859
-0.0415384
-0.0419456
-0.0422171
-0.0423981
-0.0425791
-0.0477827
-0.0529411
-0.0529864
-0.0529411
-0.052828
-0.0526922
-0.0575791
-0.0624208
-0.0571719
-0.0519457
-0.0617873
-0.0666289
-0.0564253
-0.051199
-0.0559728
-0.0607466
-0.0604977
-0.0602036
-0.0598416
-0.0594796
-0.0591176
-0.0587556
-0.0583936
-0.0579637
-0.062466
-0.0720135
-0.0815837
-0.0860633
-0.0802488
-0.0739366
-0.0724887
-0.0712443
-0.0705882
-0.0657013
-0.0624434
-0.0612217
-0.061742
-0.0788913
-0.094276
-0.0968778
-0.0972398
-0.100498
-0.103032
-0.0900452
-0.0771945
-0.07957
-0.082285
-0.0803619
-0.0785746
-0.0718777
-0.065113
-0.0632804
-0.06138
-0.0744116
-0.0773754
-0.0703166
-0.0684388
-0.076742
-0.0751356
-0.0585067
-0.0471039
-0.0507917
-0.0546153
-0.0485745
-0.0426696
-0.0369003
-0.0312216
-0.0306333
-0.0350904
-0.04457
-0.0490723
-0.048665
-0.0484162
-0.0482804
-0.0430994
-0.0278731
-0.0276921
-0.027579
-0.0325338
-0.0375338
-0.0324659
-0.0273754
-0.0273075
-0.0272849
-0.0273302
-0.0274207
-0.0275111
-0.0276243
-0.0377148
-0.0479184
-0.038122
-0.0283256
-0.0285745
-0.0289365
-0.029389
-0.0298641
-0.0303619
-0.0308822
-0.0314026
-0.0269908
-0.0176922
-0.0134614
-0.00929855
0.0197739
0.0587784
0.072715
0.0715612
0.0503168
0.023982
0.017534
0.0210408
0.00950234
-0.012104
-0.0287556
-0.0454524
-0.0521945
-0.0539366
-0.070656
-0.0873302
-0.0788913
-0.0703167
-0.0716968
-0.0729863
-0.0740723
-0.0750452
-0.0759501
-0.0767646
-0.077466
-0.0780768
-0.0735972
-0.0690044
-0.0693212
-0.0695474
-0.0746832
-0.0798189
-0.0699773
-0.0651583
-0.0753619
-0.130566
-0.230724
-0.250882
-0.206063
-0.0712217
0.118643
0.498529
0.963439
1.35837
1.72333
1.34326
0.743168
0.263032
-0.192149
-0.33733
-0.432511
-0.387647
-0.327738
-0.237873
-0.143054
-0.0982352
-0.0534162
-0.063552
-0.0736425
-0.0837556
-0.0938687
-0.104004
-0.11414
-0.104253
-0.0943665
-0.0895475
-0.0847511
-0.0898642
-0.0949321
-0.0900905
-0.0852488
-0.0803619
-0.0754524
-0.0805203
-0.0855656
-0.0856108
-0.0906561
-0.100724
-0.100837
-0.0859728
-0.0761086
-0.0762443
-0.0763348
-0.0713574
-0.0614479
-0.0515837
-0.0467194
-0.0468552
-0.0469457
-0.0419909
-0.0320362
-0.0220588
-0.0170362
-0.0220135
-0.0220362
-0.0270814
-0.0021719
0.00269235
0.00760187
0.012534
0.0324209
0.0522851
0.057172
0.0620815
0.071991
0.0818779
0.0967195
0.111538
0.116358
0.126041
0.150882
0.17052
0.180317
0.195294
0.215385
0.235385
0.260272
0.270204
0.275226
0.285249
0.295226
0.305204
0.315181
0.315113
0.305023
0.289887
0.269706
0.244548
0.224412
0.199276
0.16414
0.144027
0.123937
0.0988236
0.0736878
0.0535295
0.0333485
0.00821272
-0.011923
-0.0321267
-0.0523076
-0.0524434
-0.0526018
-0.0577601
-0.0629185
-0.0681448
-0.0736425
-0.0695927
-0.0657013
-0.0716968
-0.0769909
-0.0762896
-0.0733937
-0.0679411
-0.0609276
-0.0575565
-0.0568552
-0.0449774
-0.0375339
-0.0493212
-0.0633484
-0.0734616
-0.0804977
-0.0795701
-0.0760181
-0.0754525
-0.0744344
-0.0781448
-0.0822172
-0.0766742
-0.076561
-0.0867421
-0.092104
-0.0926018
-0.0930543
-0.0884615
-0.0838235
-0.0891402
-0.0894796
-0.0748416
-0.080181
-0.0854977
-0.0858145
-0.0861312
-0.0864706
-0.0868326
-0.0921945
-0.0975792
-0.0929864
-0.0884163
-0.0888461
-0.0892534
-0.0946606
-0.0950679
-0.0804525
-0.0708145
-0.0761538
-0.0814932
-0.0868552
-0.0922172
-0.0925566
-0.0978733
-0.108167
-0.108462
-0.0988009
-0.0941855
-0.094638
-0.095
-0.095362
-0.0907013
-0.0810181
-0.0762896
-0.0815158
-0.0867647
-0.0870362
-0.0822851
-0.0725339
-0.0627828
-0.053009
-0.0182127
-0.0484163
0.0264027
0.0312444
0.00608598
-0.0190724
-0.0192081
-0.0193439
-0.034457
-0.0495701
-0.0597059
-0.0698642
-0.0850452
-0.100271
-0.095543
-0.0908597
-0.0961991
-0.101697
-0.097285
-0.0928959
-0.0935068
-0.0941855
-0.0999774
-0.105701
-0.10138
-0.0970362
-0.0926697
-0.0882579
-0.0938009
-0.0893212
-0.074819
-0.080362
-0.0959276
-0.0964253
-0.0868778
-0.0823077
-0.0777149
-0.0731674
-0.0736425
-0.0590498
-0.0394117
-0.0597737
-0.0901584
-0.195588
-0.296041
-0.246471
-0.181878
0.0276923
0.27224
0.771833
1.25147
1.60109
1.74568
1.11025
0.514796
0.0243665
-0.326041
-0.381448
-0.396855
-0.327285
-0.252692
-0.168032
-0.113416
-0.0838914
-0.0643891
-0.0648869
-0.065362
-0.0707919
-0.0762217
-0.0766968
-0.0771493
-0.0775113
-0.0778959
-0.0733032
-0.0687104
-0.0691177
-0.0694796
-0.0697964
-0.0701584
-0.0755656
-0.0709276
-0.0562443
-0.0515611
-0.0518778
-0.0522398
-0.0526244
-0.0479412
-0.0432127
-0.0384842
-0.0337556
-0.0340498
-0.0343439
-0.0295927
-0.0248642
-0.0202262
-0.0156108
-0.00595021
0.00373304
0.00843892
0.0131448
0.0127828
0.0124434
0.0221493
0.0319005
0.0416516
0.0514027
0.0561765
0.0659955
0.0808824
0.0907919
0.090724
0.100792
0.120701
0.13595
0.146222
0.16138
0.176425
0.196471
0.216516
0.226516
0.236471
0.251357
0.266176
0.28595
0.305679
0.315407
0.310136
0.329842
0.329525
0.309231
0.288937
0.278597
0.268235
0.232873
0.202511
0.172172
0.141833
0.111471
0.0810407
0.0504977
0.0248643
0.0143891
-0.00126696
-0.0169231
-0.0274887
-0.0379185
-0.0483258
-0.0437104
-0.0439593
-0.054095
-0.0591403
-0.0640724
-0.0640724
-0.0541855
-0.0497285
-0.0556787
-0.0614253
-0.0619004
-0.061448
-0.0599095
-0.056086
-0.0500679
-0.0424887
-0.029276
-0.0189367
-0.0162896
-0.0158597
-0.0170136
-0.0183937
-0.019819
-0.0309276
-0.0417421
-0.0322398
-0.0225113
-0.0226697
-0.0227602
-0.0278733
-0.0328281
-0.0275792
-0.0220588
-0.0262217
-0.0307692
-0.0307466
-0.0322172
-0.0352036
-0.0404751
-0.0578733
-0.0748416
-0.0760407
-0.0742081
-0.0796606
-0.0838462
-0.0820136
-0.0803846
-0.0740272
-0.0680996
-0.0675339
-0.0672398
-0.0721041
-0.0769683
-0.07681
-0.0815611
-0.0912443
-0.0909276
-0.0806109
-0.0752715
-0.0749095
-0.0744796
-0.0790045
-0.078552
-0.0630996
-0.0626471
-0.0621946
-0.0666968
-0.0711538
-0.0755656
-0.0799095
-0.0841855
-0.0884163
-0.0826244
-0.07681
-0.0710181
-0.0652036
-0.0642986
-0.0633484
-0.0624208
-0.0614253
-0.060362
-0.0592081
-0.0629638
-0.0666742
-0.0603394
-0.0539593
-0.0575339
-0.0610633
-0.0545475
-0.0480091
-0.0465159
-0.0449321
-0.0433711
-0.0369683
-0.0257014
-0.0195249
-0.0234389
-0.027534
-0.0267874
-0.0211991
-0.0108145
0.00934387
0.0293212
0.0541403
0.0337783
0.0682805
0.052647
0.0319004
0.0110407
0.0100679
0.00895926
-0.0172172
-0.0434389
-0.0497512
-0.0561539
-0.0626471
-0.0692082
-0.0807919
-0.0923756
-0.0889819
-0.085543
-0.0820815
-0.0785294
-0.0848869
-0.0911765
-0.0873982
-0.0834616
-0.0843892
-0.0851584
-0.0858145
-0.0863349
-0.0917195
-0.0970136
-0.0972172
-0.0873529
-0.0724434
-0.0674887
-0.0624887
-0.0574434
-0.0523529
-0.0872851
-0.13724
-0.202172
-0.272081
-0.186991
-0.0919005
0.23819
0.578281
1.08837
1.55848
1.4636
1.29367
0.62371
0.0187557
-0.256222
-0.466222
-0.416222
-0.356222
-0.261222
-0.181222
-0.116222
-0.0761991
-0.0711765
-0.0711765
-0.0911765
-0.106154
-0.101131
-0.0961539
-0.0961765
-0.0961765
-0.101176
-0.101176
-0.0911991
-0.0862217
-0.0861765
-0.0861086
-0.0860181
-0.0859276
-0.0858371
-0.0908145
-0.10086
-0.100882
-0.0908824
-0.0858597
-0.0808145
-0.075724
-0.0755882
-0.0704751
-0.0553846
-0.0553167
-0.0552715
-0.0552036
-0.0551131
-0.0550226
-0.0549321
-0.0497964
-0.0446154
-0.0344796
-0.0243891
-0.019276
-0.0141403
-0.0140045
-0.00889139
0.00615386
0.0162444
0.0264027
0.0365837
0.0417421
0.0468778
0.0520136
0.0671946
0.0874434
0.0977602
0.103145
0.11862
0.138982
0.154525
0.165023
0.180385
0.195611
0.21586
0.236131
0.246312
0.256403
0.271448
0.286471
0.301516
0.316538
0.321471
0.321335
0.306222
0.301131
0.281086
0.261063
0.245973
0.230837
0.195724
0.170633
0.140566
0.11552
0.0854525
0.0554072
0.0354072
0.015362
-0.00963801
-0.0297511
-0.029819
-0.0298416
-0.039819
-0.049819
-0.0498416
-0.05
-0.050362
-0.0509955
-0.0569231
-0.0624661
-0.0625792
-0.0611765
-0.0582127
-0.0579864
-0.0606787
-0.0538009
-0.0376923
-0.0296154
-0.029276
-0.0302036
-0.0321041
-0.0337557
-0.0301131
-0.0260407
-0.0266063
-0.0318552
-0.0369005
-0.0369457
-0.0370136
-0.0471719
-0.0573982
-0.0476018
-0.0377828
-0.0379638
-0.0381448
-0.0383258
-0.0385068
-0.0386878
-0.0388688
-0.0440498
-0.0492081
-0.0543439
-0.0595023
-0.0496833
-0.0398869
-0.0501357
-0.0603846
-0.0605882
-0.0607466
-0.0658597
-0.0709729
-0.0661086
-0.0612443
-0.0563348
-0.0514027
-0.056448
-0.0614706
-0.0664706
-0.0715158
-0.0766063
-0.081629
-0.0766063
-0.0715837
-0.0715385
-0.071448
-0.0713122
-0.0661765
-0.0510181
-0.0558145
-0.0605882
-0.0603168
-0.06
-0.059638
-0.0592534
-0.0638914
-0.0684842
-0.0629638
-0.0573756
-0.0517873
-0.0461538
-0.0504072
-0.0545701
-0.0436425
-0.0327376
-0.0368552
-0.0410181
-0.0452262
-0.0494796
-0.0437782
-0.0429638
-0.0520362
-0.0509502
-0.0397059
-0.0333937
-0.0320136
-0.0306109
-0.0341629
-0.0328281
-0.0216063
-0.0154072
-0.0142308
-0.0131674
-0.017172
-0.0213122
-0.0155656
-0.0199321
-0.0344118
-0.0290045
-0.0387104
-0.00352943
0.00156106
-0.00334844
-0.00825795
0.00176468
0.0117194
0.00667419
0.00162894
-0.00343893
-0.00852942
-0.00866517
-0.0085068
-0.0129412
-0.0173303
-0.0067421
0.00332577
0.00266966
6.7845e-05
-0.00443442
-0.0109955
-0.014095
-0.0151584
-0.0240498
-0.0302489
-0.029276
-0.0278055
-0.031086
-0.0347285
-0.0287783
-0.0232353
-0.0230317
-0.0230543
-0.0232353
-0.0233484
-0.0233937
-0.0234163
-0.0283937
-0.0283258
-0.0182353
-0.0131448
-0.0130543
-0.0179864
-0.0229412
-0.0178959
-0.0128733
-0.0128507
-0.0128054
-0.0128054
-0.0128507
-0.0178733
-0.0228959
-0.0179864
-0.0131222
-0.00821265
-0.0032579
-0.00830315
-0.013371
-0.0184842
-0.0235747
-0.0136425
-0.00380092
-0.0140498
-0.0193213
-0.00957014
-0.00481901
-0.0100905
-0.0154073
-0.0157693
-0.0161086
-0.0113801
-0.00669685
-0.00705884
-0.00746608
-0.0129186
-0.0133484
-0.0037783
0.000678722
-0.00497739
-0.0106561
-0.00635747
-0.00208145
-0.00785068
-0.013733
-0.0247059
-0.00567874
0.0133484
0.0423077
0.0711765
0.0899548
0.108688
0.0974208
0.0860181
0.0644344
0.0427828
0.0311086
0.0144344
-0.00726245
-0.0240272
-0.020905
-0.0178054
-0.0296833
-0.0414706
-0.0531901
-0.0647964
-0.0663122
-0.0677602
-0.0740724
-0.0802715
-0.0764027
-0.0723982
-0.0733258
-0.0739819
-0.0745023
-0.0749548
-0.070362
-0.0656787
-0.0658824
-0.0660181
-0.0611086
-0.0561538
-0.0511991
-0.121267
-0.211335
-0.221357
-0.216357
-0.106335
0.0437104
0.473778
0.903869
1.36396
1.70405
1.25414
0.774231
0.179299
-0.295656
-0.400588
-0.455498
-0.380452
-0.295453
-0.20543
-0.130362
-0.0903167
-0.0652715
-0.0702262
-0.075181
-0.0801357
-0.0900905
-0.100068
-0.105023
-0.10491
-0.104751
-0.10457
-0.104412
-0.109276
-0.109118
-0.0989367
-0.0937557
-0.0935747
-0.093371
-0.0981674
-0.0980543
-0.0879864
-0.0828281
-0.0876018
-0.0923529
-0.0870815
-0.07681
-0.0715385
-0.0812896
-0.0910634
-0.0758145
-0.060543
-0.0602941
-0.0600453
-0.0547511
-0.0494344
-0.0391629
-0.0289367
-0.0286878
-0.0284163
-0.0231222
-0.0178054
-0.00748871
0.00285066
-0.00180997
-0.00147061
0.018914
0.0392986
0.049638
0.0599547
0.0702941
0.0856335
0.105928
0.121222
0.131493
0.141855
0.152308
0.167896
0.18362
0.18948
0.195475
0.22638
0.257195
0.272919
0.288552
0.29414
0.299661
0.315068
0.335385
0.340747
0.346154
0.331538
0.3169
0.292195
0.267421
0.24767
0.222941
0.19319
0.163394
0.138575
0.113756
0.0889593
0.0641855
0.0443665
0.0295475
0.0197511
0.00497735
-0.0147964
-0.0295475
-0.0442534
-0.0489141
-0.0435294
-0.0434842
-0.0588688
-0.0692987
-0.0647059
-0.0596154
-0.0638462
-0.0661539
-0.0615385
-0.0548643
-0.0416742
-0.0304978
-0.0264706
-0.0251358
-0.0309277
-0.0371267
-0.0335521
-0.0297059
-0.0305204
-0.0359276
-0.0309955
-0.0308824
-0.0306561
-0.0304751
-0.0303394
-0.0302263
-0.0301584
-0.0351131
-0.0400679
-0.0450226
-0.05
-0.0500226
-0.0500679
-0.0501358
-0.0501358
-0.0500226
-0.0499095
-0.054819
-0.0548869
-0.0401584
-0.0356109
-0.0511765
-0.0617195
-0.0622625
-0.0626923
-0.0679865
-0.0732127
-0.0733711
-0.0734616
-0.0685068
-0.063439
-0.068258
-0.0730543
-0.0728281
-0.0725566
-0.0672399
-0.0619005
-0.0665385
-0.0711539
-0.0707466
-0.0702942
-0.0697964
-0.0742761
-0.0787331
-0.0781901
-0.0776245
-0.071991
-0.0662896
-0.065543
-0.0647512
-0.0589141
-0.0530317
-0.0571041
-0.0611313
-0.0601358
-0.0587557
-0.0569684
-0.0549322
-0.0626697
-0.0709503
-0.0599322
-0.0507014
-0.0533258
-0.0581222
-0.0642987
-0.0689367
-0.0667195
-0.0616743
-0.0643666
-0.0661313
-0.0673304
-0.068801
-0.0606109
-0.0529412
-0.0557467
-0.0589141
-0.0573756
-0.0510182
-0.0397964
-0.0336426
-0.0375792
-0.0416064
-0.030724
-0.0299548
-0.0292761
-0.02862
-0.0280091
-0.0324887
-0.0370362
-0.0416516
-0.0462896
-0.0408824
-0.0354752
-0.035181
-0.0349548
-0.0346833
-0.0343892
-0.0291856
-0.0240272
-0.0188915
-0.0137105
-0.0184616
-0.0231901
-0.0229186
-0.0276471
-0.0423982
-0.0472172
-0.0320589
-0.0219005
-0.0217647
-0.0216969
-0.0216516
-0.021629
-0.016629
-0.0116743
-0.0117648
-0.0118779
-0.0170136
-0.022172
-0.022353
-0.0175566
-0.00782809
-0.00319008
-0.00361994
-0.019095
-0.034638
-0.0302489
-0.0259276
0.00830313
0.0474434
0.0865158
0.120679
0.119932
0.114118
0.0832353
0.057285
0.0512443
0.0400678
0.0139819
-0.00737559
-0.0187557
-0.0302263
-0.0368326
-0.0435068
-0.0502263
-0.0569683
-0.0537104
-0.050362
-0.0569457
-0.0634389
-0.069819
-0.0760633
-0.0721493
-0.0681222
-0.0739819
-0.0796833
-0.0752489
-0.0707014
-0.0710407
-0.071267
-0.0714253
-0.0665158
-0.0565385
-0.0515158
-0.046448
-0.121335
-0.201199
-0.241041
-0.275837
-0.150633
0.00954751
0.434751
0.874977
1.3702
1.69043
1.35563
0.950814
0.341018
-0.138756
-0.338529
-0.458303
-0.4131
-0.352919
-0.262715
-0.182443
-0.122149
-0.0819005
-0.0716742
-0.071448
-0.0811991
-0.085905
-0.0906109
-0.095362
-0.0900905
-0.084819
-0.0895475
-0.0942534
-0.0939367
-0.0936652
-0.0934389
-0.0932127
-0.0979864
-0.0977376
-0.087466
-0.0821946
-0.0869231
-0.0866289
-0.0713348
-0.0660633
-0.0607918
-0.0704751
-0.0801131
-0.0797511
-0.0793891
-0.0790271
-0.0786878
-0.0684389
-0.0582353
-0.0529638
-0.047647
-0.0373077
-0.0269683
-0.0216968
-0.0164027
-0.00606332
0.0043213
0.00972854
0.0151358
0.0155204
0.0158824
0.0162444
0.0265838
0.0469231
0.0623077
0.072715
0.0880091
0.103167
0.118258
0.133281
0.153371
0.183552
0.168846
0.134276
0.139819
0.155407
0.170928
0.186403
0.211901
0.192398
0.252828
0.263235
0.288665
0.314072
0.324434
0.334751
0.340045
0.345317
0.330634
0.310996
0.286312
0.261584
0.231855
0.197127
0.167421
0.137692
0.102941
0.0731675
0.0534163
0.0336426
0.00882357
-0.00599543
-0.0158144
-0.0256108
-0.0403619
-0.0552036
-0.0650678
-0.0701583
-0.0754072
-0.0854751
-0.0954525
-0.0998642
-0.0938461
-0.0866515
-0.0838687
-0.0809954
-0.0737556
-0.0700226
-0.0729411
-0.0767194
-0.0852715
-0.0920362
-0.0928959
-0.0927601
-0.0922398
-0.101516
-0.110792
-0.105226
-0.0997737
-0.0945701
-0.0894796
-0.0945248
-0.0995927
-0.094638
-0.0896606
-0.0896153
-0.0895248
-0.094457
-0.0993891
-0.0942986
-0.0892533
-0.0942533
-0.0992533
-0.099276
-0.0992986
-0.099276
-0.0992533
-0.104276
-0.104321
-0.0943212
-0.0892986
-0.0942534
-0.0992308
-0.104231
-0.109276
-0.109366
-0.10948
-0.104615
-0.0997285
-0.099819
-0.0998642
-0.104887
-0.104909
-0.0899321
-0.0949774
-0.100023
-0.105023
-0.109977
-0.109932
-0.109909
-0.109932
-0.109977
-0.100023
-0.0900452
-0.0950226
-0.1
-0.09
-0.0749547
-0.0548869
-0.0348416
-0.014819
0.00527152
0.0204751
0.025543
0.000384629
-0.014819
-0.0300226
-0.045181
-0.0553167
-0.0654298
-0.075724
-0.0908371
-0.105995
-0.111109
-0.106176
-0.101267
-0.101357
-0.101425
-0.106471
-0.111516
-0.106606
-0.101742
-0.106855
-0.111946
-0.112059
-0.102195
-0.102353
-0.102557
-0.102805
-0.0930316
-0.0832579
-0.0835067
-0.083733
-0.083914
-0.0840723
-0.0592307
-0.0494343
-0.0746832
-0.119932
-0.200226
-0.255475
-0.255769
-0.191086
-0.02638
0.283348
0.758077
1.21778
1.65749
1.61722
1.19695
0.666697
0.071448
-0.248846
-0.424163
-0.449457
-0.404729
-0.325068
-0.230475
-0.165837
-0.101154
-0.0764706
-0.0567873
-0.0571267
-0.0674887
-0.0778054
-0.0880769
-0.0933484
-0.0936199
-0.0988914
-0.104163
-0.0944344
-0.0847059
-0.085
-0.0853167
-0.0856109
-0.0859276
-0.0813122
-0.0766968
-0.0720588
-0.0673982
-0.0676697
-0.0678959
-0.0731448
-0.078371
-0.0685747
-0.0588688
-0.0542308
-0.0495701
-0.0448643
-0.0401357
-0.0454072
-0.0457014
-0.0360407
-0.0263575
-0.0165837
-0.0118326
-0.0121041
-0.0123982
-0.00771495
0.00199093
0.0117194
0.0164027
0.0160407
0.0207466
0.0305203
0.0452488
0.0598869
0.0644796
0.0740271
0.093552
0.113122
0.11776
0.122534
0.137489
0.152557
0.167579
0.182557
0.187489
0.197376
0.21724
0.237127
0.257036
0.2769
0.291652
0.306403
0.321199
0.331018
0.330837
0.330633
0.315385
0.305181
0.290068
0.259955
0.224796
0.194593
0.169367
0.144186
0.119005
0.0987783
0.0735068
0.0533032
0.0331674
0.0130091
-0.00717194
-0.0223756
-0.0375792
-0.0426244
-0.0424208
-0.0470136
-0.0416516
-0.0615837
-0.0622172
-0.0635747
-0.0661991
-0.0699548
-0.0743439
-0.0736652
-0.0699774
-0.0676244
-0.0628281
-0.0621493
-0.0629186
-0.0556109
-0.0499321
-0.054819
-0.0607466
-0.0569005
-0.0529186
-0.058733
-0.064276
-0.0595475
-0.0546607
-0.054638
-0.0546154
-0.059638
-0.0646607
-0.0646833
-0.0647738
-0.0699095
-0.0750226
-0.0701131
-0.0652036
-0.0652941
-0.0653846
-0.0704751
-0.0655656
-0.0506561
-0.0507466
-0.0608371
-0.065905
-0.0709502
-0.0760181
-0.0761086
-0.0862217
-0.0963575
-0.0814253
-0.066448
-0.0714932
-0.0765385
-0.0765837
-0.0766516
-0.0717873
-0.0669457
-0.0720588
-0.0771267
-0.0771719
-0.0772398
-0.0773303
-0.0774434
-0.0825566
-0.0876244
-0.0776471
-0.0677149
-0.0728507
-0.0780317
-0.0732353
-0.0583937
-0.0385068
-0.0136652
0.0111539
0.0210181
0.025905
0.0157466
-0.009457
-0.0296833
-0.0449095
-0.0500905
-0.0552715
-0.0605204
-0.0657918
-0.0810407
-0.096267
-0.101471
-0.0916516
-0.09681
-0.101923
-0.101946
-0.101833
-0.096629
-0.0913348
-0.106018
-0.120611
-0.115091
-0.109593
-0.10414
-0.0986878
-0.0982127
-0.0977602
-0.0873077
-0.0769005
-0.0815611
-0.086267
-0.0810181
-0.0757919
-0.0705882
-0.0704525
-0.0803846
-0.125317
-0.195226
-0.230158
-0.245068
-0.145045
0.015
0.360045
0.77509
1.22509
1.68505
1.48005
1.11009
0.530158
-0.0847738
-0.294774
-0.464819
-0.424819
-0.474774
-0.269751
-0.174751
-0.124729
-0.0746833
-0.0696607
-0.0646607
-0.074638
-0.0845928
-0.0845249
-0.0844344
-0.0943892
-0.104344
-0.0942308
-0.0841177
-0.0940045
-0.103982
-0.093914
-0.0838462
-0.0838009
-0.0837557
-0.083733
-0.0836652
-0.0785068
-0.0733258
-0.0731674
-0.0730543
-0.0679864
-0.0628959
-0.0627602
-0.0626923
-0.0676923
-0.0676244
-0.0574887
-0.0523756
-0.0472851
-0.0372172
-0.0271719
-0.0220814
-0.0219457
-0.0218326
-0.0167421
-0.00665158
-0.00156108
0.00355204
0.00868779
0.00877829
0.00882354
0.023914
0.0390498
0.0541629
0.0692534
0.0743439
0.0794797
0.0947059
0.110045
0.12052
0.136063
0.151629
0.167172
0.187624
0.202986
0.208281
0.223507
0.243665
0.258801
0.273914
0.288937
0.303869
0.318801
0.328801
0.333756
0.328643
0.308462
0.288213
0.267919
0.247557
0.217014
0.176403
0.15095
0.125611
0.0953394
0.0651131
0.0448869
0.0196833
0.00961541
-0.000384603
-0.0103846
-0.020362
-0.0352715
-0.0501357
-0.0499547
-0.0497511
-0.0546154
-0.0597059
-0.0601131
-0.0606787
-0.0663122
-0.0714932
-0.0709955
-0.0689366
-0.055
-0.0390271
-0.0359728
-0.0338461
-0.0333936
-0.0305656
-0.0205203
-0.0164479
-0.0231674
-0.0297737
-0.0316289
-0.0323529
-0.0323755
-0.0317873
-0.0308823
-0.0303167
-0.030543
-0.0322171
-0.0407692
-0.0516063
-0.0535746
-0.0656787
-0.0861086
-0.0884389
-0.0936878
-0.0775339
-0.0809728
-0.0744117
-0.0681221
-0.0672398
-0.0667421
-0.0716063
-0.0765611
-0.0815158
-0.0864479
-0.0813348
-0.0761991
-0.0860407
-0.0958597
-0.0906787
-0.0854525
-0.0852488
-0.0850226
-0.0847285
-0.0844344
-0.0791403
-0.0738235
-0.0784841
-0.0831222
-0.0827602
-0.0823756
-0.0819457
-0.0814932
-0.0860407
-0.0905882
-0.0851357
-0.0797059
-0.0792986
-0.0788235
-0.0782805
-0.0776923
-0.0720588
-0.0664253
-0.0657918
-0.0650905
-0.0693213
-0.0735294
-0.0726923
-0.0767873
-0.0808597
-0.0799095
-0.078914
-0.0679185
-0.0569004
-0.0558371
-0.0547511
-0.0486425
-0.0425113
-0.0463574
-0.050181
-0.0440045
-0.0328733
-0.0168099
-0.00088232
0.0149095
0.0355204
0.0609503
0.0611765
0.0311539
0.0109503
0.000565648
-0.00504521
-0.00588232
-0.0118778
-0.0330543
-0.0392986
-0.0456108
-0.0569909
-0.0684162
-0.0748416
-0.0812669
-0.0876244
-0.0838687
-0.08
-0.0810407
-0.0819683
-0.0827601
-0.0834615
-0.0740724
-0.0745701
-0.0749773
-0.0752488
-0.0753846
-0.0754751
-0.0754977
-0.0754525
-0.0753846
-0.0702715
-0.0651357
-0.0500226
-0.0449095
-0.0897511
-0.149593
-0.234502
-0.254389
-0.174253
0.00585976
0.31595
0.721086
1.22624
1.4764
1.49661
1.11674
0.441765
-0.00823527
-0.328281
-0.428235
-0.41819
-0.348167
-0.258167
-0.173145
-0.0930995
-0.0730543
-0.068009
-0.0679864
-0.0779864
-0.0829638
-0.0829185
-0.0828959
-0.0828959
-0.0928733
-0.092828
-0.0977602
-0.10267
-0.0976018
-0.0925565
-0.0875113
-0.082466
-0.0824208
-0.0823529
-0.0872398
-0.0921267
-0.0870588
-0.0820135
-0.0769909
-0.0719683
-0.0669457
-0.0618552
-0.0617194
-0.0616063
-0.0565158
-0.0514479
-0.0463801
-0.0412669
-0.0411312
-0.0409728
-0.0358144
-0.0307466
-0.0307466
-0.0207239
-0.00567869
-0.000633448
0.0044118
0.0145023
0.024638
0.0347738
0.0449095
0.0550453
0.065181
0.0753168
0.0854525
0.100611
0.110814
0.121063
0.131357
0.151742
0.17224
0.187828
0.203394
0.218846
0.234231
0.254548
0.274819
0.290091
0.305317
0.310407
0.315475
0.320543
0.320611
0.305679
0.290679
0.275611
0.250543
0.22052
0.19552
0.17052
0.14052
0.11552
0.0904978
0.0654977
0.0454978
0.0254977
0.00552037
-0.00943438
-0.0294117
-0.0494118
-0.0543665
-0.0542986
-0.0542534
-0.0542081
-0.059095
-0.0689593
-0.0690271
-0.0543665
-0.0601131
-0.0659728
-0.0614706
-0.0561538
-0.0644117
-0.0708145
-0.0699547
-0.0679864
-0.050905
-0.0355204
-0.0282127
-0.0229638
-0.0291629
-0.0358145
-0.0274208
-0.018733
-0.0246606
-0.0302036
-0.0353846
-0.0404525
-0.0404751
-0.040543
-0.0407014
-0.0408371
-0.0459276
-0.0510407
-0.0511991
-0.0514932
-0.0569004
-0.0624887
-0.0582353
-0.0540271
-0.0497964
-0.0454298
-0.0509502
-0.0614027
-0.0717647
-0.0720588
-0.0623303
-0.0575565
-0.0577375
-0.0628733
-0.0579638
-0.068009
-0.078009
-0.0730316
-0.0680768
-0.0630995
-0.0580995
-0.0630542
-0.0679637
-0.0728732
-0.0777827
-0.062647
-0.0474886
-0.0573076
-0.0671719
-0.0669683
-0.0667646
-0.066561
-0.0663574
-0.0661538
-0.0658597
-0.0604072
-0.0545248
-0.0582805
-0.0620135
-0.0609728
-0.0607692
-0.0567873
-0.0547737
-0.064638
-0.0761764
-0.0774886
-0.0759502
-0.0818778
-0.0856334
-0.0781447
-0.0702488
-0.0673077
-0.0596606
-0.0473077
-0.0453393
-0.0485746
-0.0569231
-0.0653167
-0.0537783
-0.0423077
-0.0458823
-0.0495475
-0.0483484
-0.0472624
-0.0462896
-0.0454525
-0.0397285
-0.0341177
-0.0335973
-0.0331448
-0.0377828
-0.0425113
-0.0373077
-0.0322172
-0.0422398
-0.0472851
-0.0373303
-0.0323982
-0.0324887
-0.0326244
-0.0328281
-0.0330543
-0.0282353
-0.0234389
-0.0236652
-0.0238914
-0.0291176
-0.0343439
-0.0295928
-0.0249547
-0.0304072
-0.0358144
-0.0311764
-0.0265384
-0.026923
-0.0273982
-0.0279411
-0.0234615
-0.0189592
-0.0194796
-0.0200452
-0.0256787
-0.0313574
-0.0220362
-0.0127828
-0.0236199
-0.0345249
-0.0305204
-0.0215611
-0.00262443
0.0211991
0.0548643
0.0834389
0.0969683
0.0954525
0.0688914
0.0473077
0.0306561
0.00886874
-0.0130543
-0.0250453
-0.0320589
-0.0390951
-0.0461765
-0.053258
-0.0602942
-0.067353
-0.0644118
-0.0613575
-0.0631448
-0.0647512
-0.0711991
-0.0775566
-0.078801
-0.0799322
-0.0859729
-0.0868552
-0.0926019
-0.0733258
-0.0740046
-0.0696154
-0.0652037
-0.0557693
-0.0462896
-0.0567648
-0.0822172
-0.167624
-0.237986
-0.233348
-0.17371
0.0259502
0.305611
0.750317
1.17493
1.5645
1.53407
0.918688
0.373326
-0.0920589
-0.352466
-0.422851
-0.413213
-0.333575
-0.253914
-0.164208
-0.11448
-0.0847512
-0.0750905
-0.0754978
-0.0758597
-0.0811765
-0.0865159
-0.0868779
-0.0872398
-0.0876018
-0.0879638
-0.0883258
-0.0886425
-0.093914
-0.0991629
-0.0993891
-0.0996154
-0.0998416
-0.0950453
-0.0902263
-0.0904751
-0.0907466
-0.0859276
-0.081086
-0.0762896
-0.0715159
-0.0667195
-0.0619005
-0.0620362
-0.062172
-0.057353
-0.0524887
-0.0626018
-0.0677602
-0.0479186
-0.0330543
-0.0332127
-0.0333937
-0.028552
-0.0187104
-0.00389141
0.00592759
0.0107466
0.0156109
0.0155204
0.0204299
0.0303394
0.0352715
0.0352262
0.0502036
0.0702036
0.0851584
0.100068
0.105
0.109977
0.135023
0.165158
0.180453
0.195882
0.21138
0.226878
0.237285
0.247579
0.267738
0.287828
0.302896
0.317941
0.327941
0.337896
0.332828
0.327738
0.322624
0.312443
0.29224
0.262104
0.227014
0.196923
0.17181
0.141674
0.111538
0.0864253
0.0663122
0.0511991
0.0360634
0.0159729
0.000837106
-0.00427601
-0.00936652
-0.0194118
-0.0294118
-0.034457
-0.0396154
-0.0451584
-0.0510181
-0.0568778
-0.0624661
-0.0620814
-0.0654299
-0.0368552
-0.0264027
-0.0242082
-0.0222851
-0.0183032
-0.0169005
-0.0176923
-0.0195702
-0.0216064
-0.0235294
-0.0250453
-0.0261312
-0.0317421
-0.0370588
-0.0322851
-0.027353
-0.0274435
-0.0275113
-0.0275792
-0.0276471
-0.0276923
-0.0277828
-0.0279186
-0.0280317
-0.0331222
-0.03819
-0.0432579
-0.0483937
-0.0535747
-0.0587104
-0.0588009
-0.058914
-0.0540498
-0.0541855
-0.0643213
-0.0645023
-0.0546833
-0.0498643
-0.054819
-0.0592986
-0.063552
-0.0577376
-0.0473982
-0.0578507
-0.0701584
-0.0698643
-0.071448
-0.0796154
-0.0857692
-0.0890272
-0.0901358
-0.0842082
-0.0777149
-0.0757919
-0.074095
-0.0776923
-0.081629
-0.080905
-0.0803168
-0.0898416
-0.0994118
-0.0940498
-0.088552
-0.0878959
-0.0871267
-0.0862444
-0.085362
-0.0794796
-0.0734842
-0.072353
-0.0711539
-0.0698869
-0.068552
-0.0721493
-0.0656561
-0.049095
-0.0525113
-0.0658824
-0.0691855
-0.0624208
-0.0556109
-0.0537557
-0.0519457
-0.050181
-0.0384389
-0.0267421
-0.0351584
-0.0437331
-0.0424887
-0.0414028
-0.0404073
-0.0395702
-0.0439367
-0.0484389
-0.0480317
-0.0476923
-0.0374435
-0.027353
-0.0274208
-0.0275566
-0.0277602
-0.0280091
-0.0283032
-0.0286652
-0.0290951
-0.0295475
-0.0250227
-0.0256109
-0.0413349
-0.0421494
-0.0230543
-0.0138915
-0.0097738
0.0192307
0.0531221
0.0769457
0.0957013
0.0743891
0.0380316
0.0216063
0.0101357
-0.00640275
-0.0230091
-0.0396833
-0.0314028
-0.0581222
-0.0547964
-0.0614028
-0.0679412
-0.0744118
-0.0807466
-0.0719231
-0.0629638
-0.0688462
-0.0746154
-0.0802942
-0.0858598
-0.0763123
-0.0666969
-0.077172
-0.0874661
-0.0777376
-0.0679638
-0.0681222
-0.0682579
-0.0534163
-0.0485294
-0.0435521
-0.0885295
-0.188507
-0.233507
-0.248529
-0.143484
0.0366516
0.451697
0.971652
1.38163
1.75163
1.32163
0.681629
0.206629
-0.238371
-0.353348
-0.433303
-0.373258
-0.30319
-0.2231
-0.148009
-0.112896
-0.0778054
-0.0628281
-0.0479186
-0.0629638
-0.0779638
-0.0879638
-0.0979864
-0.0930543
-0.0881222
-0.0881222
-0.0880769
-0.0880317
-0.0880091
-0.0880091
-0.0879638
-0.0978959
-0.102805
-0.0876471
-0.0775113
-0.0774434
-0.0773982
-0.0773303
-0.0772851
-0.0722851
-0.0672851
-0.0672851
-0.0671946
-0.0620136
-0.0568778
-0.0517873
-0.0466742
-0.0515385
-0.046448
-0.0314027
-0.0263801
-0.0263801
-0.0263575
-0.0213122
-0.00624434
0.0138462
0.0239367
0.0340272
0.0341403
0.034276
0.0443891
0.0545023
0.0546606
0.054819
0.0749548
0.100045
0.120023
0.134955
0.144932
0.159796
0.179502
0.199321
0.214276
0.229434
0.244774
0.255068
0.270249
0.280475
0.295769
0.310995
0.321154
0.326312
0.331584
0.326742
0.311923
0.297036
0.282081
0.252127
0.217172
0.187285
0.152466
0.127602
0.102715
0.0728507
0.0429638
0.0230769
0.0382127
-0.00671947
-0.0117195
-0.0216742
-0.0315837
-0.0364932
-0.0414027
-0.051267
-0.0611312
-0.0659729
-0.0710407
-0.0716064
-0.0720815
-0.0822398
-0.0917195
-0.0805656
-0.0676471
-0.0629638
-0.0581901
-0.0535521
-0.0532579
-0.0578055
-0.0636652
-0.0702715
-0.0742082
-0.0758145
-0.0811312
-0.0904299
-0.0945475
-0.0985747
-0.0928054
-0.0772398
-0.0719231
-0.0767421
-0.0816516
-0.0816516
-0.0766742
-0.0667195
-0.0667195
-0.0766742
-0.081629
-0.0815837
-0.0765385
-0.0714932
-0.081448
-0.0914027
-0.0914254
-0.0914932
-0.0914932
-0.091448
-0.0914027
-0.0913575
-0.0813349
-0.0713349
-0.0713349
-0.0713349
-0.0813349
-0.0913349
-0.0913122
-0.091267
-0.0961991
-0.101154
-0.0911765
-0.0811991
-0.0811765
-0.0811312
-0.086086
-0.091086
-0.0861086
-0.081086
-0.0809955
-0.0808824
-0.0857466
-0.0906335
-0.085543
-0.0854525
-0.095362
-0.0952941
-0.0852715
-0.0752036
-0.0650679
-0.0548869
-0.0446833
-0.00950227
0.0306787
0.0358597
0.041086
0.0213348
0.00160632
-0.00809957
-0.0178281
-0.0425566
-0.067353
-0.0671946
-0.0670136
-0.0818326
-0.0966516
-0.0964706
-0.0963801
-0.086448
-0.0765159
-0.0815838
-0.0866969
-0.0918779
-0.0970815
-0.0923077
-0.0924887
-0.102647
-0.102851
-0.093077
-0.0882806
-0.0833032
-0.078439
-0.0785295
-0.07862
-0.0787105
-0.0787783
-0.0738236
-0.0688688
-0.0689141
-0.063982
-0.0540725
-0.11914
-0.204186
-0.249299
-0.20948
-0.184615
-0.0547059
0.335204
0.735113
1.265
1.69486
1.50973
1.22959
0.52448
-0.0705883
-0.295611
-0.450679
-0.41086
-0.356086
-0.276335
-0.196516
-0.126629
-0.0817421
-0.0769005
-0.0720588
-0.0771946
-0.0823077
-0.0873756
-0.0924208
-0.0924887
-0.0925566
-0.0926018
-0.0926471
-0.0926923
-0.0927828
-0.0879186
-0.0830317
-0.0831222
-0.0832579
-0.0834389
-0.0835973
-0.078733
-0.0738235
-0.0688688
-0.0638914
-0.0638914
-0.0639367
-0.0640272
-0.0641177
-0.0642081
-0.0543439
-0.0445249
-0.0396606
-0.0347511
-0.034819
-0.0348643
-0.0249548
-0.0150905
-0.010181
-0.00522625
-0.000294117
0.00461538
0.00950226
0.0143891
0.0243213
0.0342534
0.0391403
0.0489819
0.0588235
0.0687104
0.0786199
0.0883937
0.103032
0.117738
0.137579
0.147602
0.15776
0.167919
0.178054
0.19319
0.208326
0.233326
0.258213
0.268145
0.278122
0.283077
0.287986
0.302873
0.322738
0.30767
0.29267
0.272624
0.252534
0.227443
0.197353
0.162308
0.132262
0.112127
0.0869683
0.0618552
0.0367647
0.0167195
0.00171946
-0.00832579
-0.0183937
-0.0284842
-0.0385973
-0.0487104
-0.0588235
-0.0589367
-0.0588688
-0.0635521
-0.0681448
-0.0628733
-0.0580769
-0.0586425
-0.0603167
-0.0629638
-0.066086
-0.0640498
-0.0602941
-0.0586425
-0.0547285
-0.0546833
-0.0611991
-0.0696154
-0.0640272
-0.0493892
-0.0450453
-0.0458371
-0.0566063
-0.0571493
-0.0524208
-0.0475113
-0.0525792
-0.0576244
-0.0576697
-0.0577149
-0.0627602
-0.0678054
-0.0728507
-0.0778733
-0.0728507
-0.0678281
-0.0677828
-0.0678281
-0.0728507
-0.0778733
-0.0679186
-0.0579864
-0.0630769
-0.0681674
-0.0682353
-0.0682579
-0.0732353
-0.0782127
-0.0782127
-0.0782127
-0.0782127
-0.0782579
-0.0733484
-0.0684163
-0.0684615
-0.0684842
-0.0735068
-0.0785973
-0.073733
-0.0688235
-0.0738688
-0.0788914
-0.0738914
-0.0688914
-0.0688914
-0.0738914
-0.0789367
-0.0790045
-0.079095
-0.0692308
-0.0593439
-0.0594344
-0.0545475
-0.0146833
0.025181
0.0450679
0.0549548
0.0198643
-0.00527149
-0.0254299
-0.0405882
-0.0507466
-0.0609502
-0.0561991
-0.0564027
-0.0665611
-0.0766742
-0.0867421
-0.0918326
-0.0869457
-0.0819457
-0.0867873
-0.0915837
-0.0863349
-0.081086
-0.0857919
-0.0904299
-0.0950679
-0.0947738
-0.0845023
-0.0792308
-0.0789819
-0.0787331
-0.0835068
-0.0883258
-0.0781675
-0.0730091
-0.0678733
-0.0627602
-0.0576697
-0.0526245
-0.0526018
-0.087534
-0.132443
-0.217398
-0.272398
-0.212376
-0.0923304
0.177715
0.52276
1.01776
1.38278
1.53285
1.32292
0.637964
0.108032
-0.2519
-0.426855
-0.431833
-0.376833
-0.27181
-0.186765
-0.111719
-0.0816968
-0.0716516
-0.0666063
-0.0665611
-0.0665385
-0.0715385
-0.0765158
-0.0814706
-0.0864253
-0.0863801
-0.0913575
-0.101357
-0.101357
-0.106357
-0.0863348
-0.0862896
-0.081267
-0.076267
-0.0712217
-0.0661312
-0.066086
-0.066086
-0.0710634
-0.0760181
-0.0709955
-0.0659955
-0.0660181
-0.0660407
-0.056086
-0.0460634
-0.0410407
-0.0359955
-0.0359502
-0.0308823
-0.0158145
-0.00579185
-0.00576923
-0.00572398
-0.00570135
-0.00567873
-0.000610856
0.00447964
0.00957014
0.0246833
0.039819
0.0549095
0.0699548
0.0750453
0.080181
0.0953168
0.110475
0.120814
0.131335
0.146946
0.162602
0.1831
0.198484
0.208778
0.219005
0.244208
0.269389
0.28457
0.299729
0.299819
0.299842
0.309842
0.319842
0.309842
0.294842
0.269842
0.244819
0.224796
0.194796
0.154774
0.124751
0.104729
0.0796833
0.0596606
0.0396833
0.0147285
-0.00522625
-0.0152036
-0.0252262
-0.0352262
-0.0402036
-0.0451584
-0.0501131
-0.0500679
-0.055
-0.0649321
-0.0700226
-0.0653394
-0.061086
-0.0621493
-0.0630317
-0.0634842
-0.0628507
-0.0506787
-0.0511765
-0.0499095
-0.0378507
-0.0266968
-0.0286425
-0.0329185
-0.038733
-0.0453167
-0.0369457
-0.0283258
-0.0291855
-0.029638
-0.0347285
-0.0396833
-0.0346606
-0.0295928
-0.0295023
-0.0294118
-0.0343439
-0.0392986
-0.044276
-0.0492534
-0.0492082
-0.0492082
-0.044276
-0.0393439
-0.0444344
-0.049457
-0.0495249
-0.049638
-0.0496833
-0.049457
-0.043914
-0.0380543
-0.0421946
-0.0467874
-0.0474661
-0.0497285
-0.0489367
-0.0553394
-0.057353
-0.078914
-0.0782806
-0.0796154
-0.0791855
-0.0825339
-0.0856335
-0.0788009
-0.0722625
-0.0711086
-0.0702941
-0.0747964
-0.0793439
-0.0788914
-0.0784389
-0.0879638
-0.097353
-0.0866516
-0.0758824
-0.0750453
-0.0742082
-0.0733711
-0.0724661
-0.0714932
-0.0704525
-0.0693439
-0.0681674
-0.0669231
-0.0655656
-0.0641177
-0.0626471
-0.0661539
-0.0695702
-0.0628959
-0.0561539
-0.0493439
-0.0425566
-0.0457919
-0.0489819
-0.0421267
-0.0353168
-0.0385747
-0.0369683
-0.0304978
-0.0291177
-0.0278733
-0.0318326
-0.0359729
-0.0302489
-0.0246606
-0.0291629
-0.0337783
-0.033552
-0.0334389
-0.0283937
-0.0234389
-0.0235747
-0.0237783
-0.0190272
-0.0142986
-0.0145701
-0.0149548
-0.0154751
-0.011086
-0.00174209
0.0125792
0.0318552
0.0560633
0.0852036
0.089276
0.0683258
0.0422624
0.0161312
0.00497736
0.00380089
-0.0124208
-0.033733
-0.040181
-0.0367195
-0.0382127
-0.049638
-0.0560181
-0.0623529
-0.0636425
-0.0498643
-0.0559729
-0.0619231
-0.0627376
-0.0633937
-0.063914
-0.0643213
-0.069638
-0.0749095
-0.0701131
-0.0652489
-0.0652941
-0.0652489
-0.0601584
-0.0500679
-0.0349774
-0.0448643
-0.0997285
-0.16457
-0.234367
-0.234118
-0.138869
0.0963801
0.451652
0.8869
1.37215
1.5074
1.41767
0.942896
0.278167
-0.106606
-0.376425
-0.426267
-0.396131
-0.32095
-0.235724
-0.160475
-0.0902036
-0.0799547
-0.0747285
-0.0695249
-0.0693439
-0.0842308
-0.0891629
-0.0890045
-0.0887783
-0.083552
-0.0783258
-0.0780995
-0.0778733
-0.0826471
-0.0874208
-0.0871719
-0.0869004
-0.0916516
-0.0963801
-0.0911538
-0.0858371
-0.0805883
-0.075362
-0.0751131
-0.0748416
-0.0695475
-0.0642308
-0.0639367
-0.0636652
-0.063371
-0.0630317
-0.0576923
-0.0523077
-0.0518778
-0.0515158
-0.0461991
-0.0358824
-0.0255656
-0.0202036
-0.019819
-0.0145249
-0.00427601
0.00101811
0.00633486
0.0166742
0.0270362
0.0373982
0.0427602
0.0431674
0.0435973
0.0639819
0.0843439
0.0997059
0.115091
0.125543
0.136086
0.151697
0.167398
0.183235
0.199095
0.219864
0.23052
0.241063
0.251561
0.257059
0.272489
0.297828
0.313145
0.313484
0.308824
0.299118
0.289367
0.27457
0.254796
0.235113
0.205407
0.175679
0.140928
0.106154
0.0764027
0.0516742
0.0369005
0.0220815
0.00728507
-0.00748869
-0.0222624
-0.0370362
-0.0417873
-0.0414932
-0.0461312
-0.0508145
-0.0557466
-0.0609729
-0.0665385
-0.0721041
-0.0771946
-0.0812217
-0.0736878
-0.0642081
-0.0575113
-0.0501809
-0.0482578
-0.0485067
-0.0368325
-0.0268777
-0.0281221
-0.0296153
-0.0359954
-0.0420135
-0.0476243
-0.0528958
-0.0528506
-0.0528053
-0.0477827
-0.0426922
-0.0375565
-0.0375112
-0.0475565
-0.0527375
-0.0530542
-0.0534615
-0.0539366
-0.0545022
-0.0550678
-0.0554977
-0.0608597
-0.066199
-0.0614932
-0.0667647
-0.0570135
-0.0771719
-0.0672624
-0.0673077
-0.0672851
-0.0672172
-0.0671267
-0.0670362
-0.0669457
-0.0668326
-0.0666969
-0.0715385
-0.0763575
-0.0861539
-0.0909276
-0.0757014
-0.0654977
-0.0702489
-0.0749774
-0.0796833
-0.0793891
-0.0641177
-0.0588462
-0.068552
-0.0732806
-0.0730091
-0.072534
-0.0717647
-0.070543
-0.074095
-0.0729864
-0.0625566
-0.0583032
-0.0606561
-0.0652036
-0.0761086
-0.0873982
-0.0873077
-0.084095
-0.0835973
-0.0814706
-0.0786652
-0.0757919
-0.0731222
-0.0707919
-0.0687783
-0.0671041
-0.0655204
-0.0638914
-0.0621945
-0.0604525
-0.0587104
-0.0520135
-0.0453619
-0.0487556
-0.0522171
-0.0507918
-0.0495248
-0.0433936
-0.0373981
-0.0415384
-0.0458596
-0.0403393
-0.0348868
-0.0345022
-0.0341628
-0.0338687
-0.0336877
-0.0336198
-0.0335746
-0.0335293
-0.0335067
-0.0335067
-0.0335746
-0.0287104
-0.0288461
-0.0389819
-0.0391855
-0.029457
-0.0247059
-0.0299321
-0.035181
-0.0354751
-0.0308371
-0.0162444
-0.0216063
-0.0269457
-0.0223303
-0.0177602
-0.0232579
-0.0288009
-0.0293665
-0.0299774
-0.0206335
-0.0113575
-0.0221267
-0.032896
-0.0286652
-0.0145249
0.014457
0.0433484
0.0671719
0.0859502
0.104683
0.103371
0.0670136
0.0456109
0.0391176
0.0274887
0.0157919
0.00400453
-0.0128054
-0.0247285
-0.031629
-0.0435747
-0.0555656
-0.0625113
-0.0593891
-0.0561764
-0.0628507
-0.0694117
-0.0758371
-0.0821493
-0.083371
-0.0845475
-0.0856334
-0.0815384
-0.087285
-0.0829412
-0.0785746
-0.0742081
-0.0697737
-0.0652036
-0.0605882
-0.0509955
-0.0463801
-0.0817194
-0.137036
-0.227376
-0.272715
-0.1981
-0.0483936
0.231358
0.606109
1.10584
1.42059
1.51534
1.22005
0.544751
0.0544797
-0.290792
-0.426063
-0.421335
-0.366606
-0.281878
-0.202104
-0.122285
-0.0875113
-0.0727828
-0.0730543
-0.0833258
-0.0885747
-0.0888009
-0.0890272
-0.0942534
-0.0994797
-0.0947059
-0.0899322
-0.0901584
-0.095362
-0.10052
-0.0906562
-0.0807919
-0.0809276
-0.0810634
-0.0861991
-0.0913349
-0.0814706
-0.0716064
-0.0717421
-0.0718779
-0.0720136
-0.0721493
-0.0622851
-0.0523982
-0.0574661
-0.0625339
-0.0526471
-0.0427602
-0.0428281
-0.0428959
-0.038009
-0.0281448
-0.0182805
-0.0134163
-0.0135068
-0.00857466
0.00138009
0.0113575
0.0213575
0.0263801
0.0264253
0.0314253
0.0413801
0.0563575
0.0713575
0.0763122
0.0812217
0.101154
0.126154
0.14129
0.156561
0.166946
0.177421
0.187986
0.198552
0.208982
0.224321
0.249593
0.269796
0.284977
0.300136
0.305226
0.310272
0.320294
0.330249
0.320136
0.305023
0.284955
0.259887
0.234774
0.204683
0.174615
0.14948
0.129299
0.104095
0.0788688
0.0537104
0.0285747
0.0184163
0.0132353
-0.00190046
-0.016991
-0.0220588
-0.0271041
-0.0371267
-0.0471267
-0.0522398
-0.0475792
-0.0483484
-0.0443439
-0.065
-0.0649774
-0.0586878
-0.050724
-0.050543
-0.0489593
-0.0369231
-0.0261991
-0.0235068
-0.023009
-0.024095
-0.0258598
-0.0276697
-0.0294118
-0.0406109
-0.0519231
-0.0429864
-0.0337783
-0.0343892
-0.0349321
-0.0404525
-0.0459502
-0.0414027
-0.0367647
-0.0420589
-0.047353
-0.0476018
-0.0477602
-0.0478507
-0.0529865
-0.0631675
-0.0683032
-0.0633937
-0.0584616
-0.0585068
-0.0586426
-0.0588236
-0.0589593
-0.0590272
-0.0590498
-0.0590498
-0.0590724
-0.0591177
-0.0640951
-0.0690498
-0.0690951
-0.0691856
-0.0692534
-0.0692534
-0.0641856
-0.0588236
-0.0581222
-0.0573304
-0.0514706
-0.0461086
-0.0563575
-0.0683258
-0.0720362
-0.0779186
-0.0956788
-0.111606
-0.105656
-0.097172
-0.091448
-0.0848643
-0.0826245
-0.0805656
-0.0787331
-0.0772172
-0.075905
-0.0747512
-0.0736878
-0.0726471
-0.0716064
-0.0705204
-0.0743892
-0.0731901
-0.0619005
-0.0554752
-0.0589367
-0.0623304
-0.0606561
-0.0589593
-0.0572399
-0.0504752
-0.0436652
-0.0469005
-0.0502036
-0.0436199
-0.037172
-0.0458597
-0.0546833
-0.0435973
-0.032647
-0.0268552
-0.0211991
-0.0306335
-0.0401584
-0.0297964
-0.0195023
-0.0242534
-0.029095
-0.0290271
-0.0289819
-0.0239593
-0.0240498
-0.0342534
-0.039457
-0.0346154
-0.029819
-0.0300453
-0.0303846
-0.0307466
-0.0261086
-0.0164706
-0.0119005
-0.0173982
-0.0229186
-0.0284616
-0.0340272
-0.0296607
-0.0153847
-0.00115391
0.0380542
0.00219452
0.106199
0.130068
0.103914
0.0777375
0.0614479
0.0450905
0.0336425
0.022104
0.000520326
-0.021086
-0.0277602
-0.0344797
-0.0512218
-0.0679865
-0.0647512
-0.0615159
-0.063258
-0.0649095
-0.0714254
-0.0778281
-0.0641177
-0.0602489
-0.0612218
-0.0670363
-0.077715
-0.0832806
-0.0787557
-0.0741403
-0.0794571
-0.0747512
-0.0600227
-0.0552489
-0.0504299
-0.0555883
-0.070724
-0.135837
-0.205905
-0.215928
-0.22095
-0.105996
0.0289592
0.413869
0.808778
1.29876
1.72376
1.32369
0.908552
0.353439
-0.131652
-0.306697
-0.436697
-0.391719
-0.336765
-0.24681
-0.176855
-0.1269
-0.0919457
-0.076991
-0.066991
-0.0669457
-0.0669005
-0.0718779
-0.0768552
-0.0817874
-0.0866968
-0.086629
-0.0866063
-0.0866063
-0.0866063
-0.0866063
-0.0865837
-0.0865385
-0.0865159
-0.0815159
-0.076448
-0.0713122
-0.0712217
-0.0811765
-0.076086
-0.0609502
-0.0558145
-0.0606787
-0.0656109
-0.0655882
-0.0604751
-0.0552941
-0.0501584
-0.0450679
-0.0449774
-0.0448869
-0.0297511
-0.0145928
-0.0195023
-0.024457
-0.0143891
-0.00429862
0.000814501
0.00595025
0.0110407
0.0161539
0.0263122
0.0365159
0.0467195
0.0569005
0.0620588
0.0772172
0.0974208
0.107624
0.112828
0.12819
0.148371
0.168959
0.184548
0.199887
0.225023
0.240068
0.255068
0.270158
0.285294
0.295407
0.305453
0.310498
0.315566
0.320634
0.320701
0.315837
0.301018
0.276199
0.25138
0.231538
0.206674
0.171855
0.137036
0.102217
0.0723756
0.0475113
0.0276471
0.00778281
-0.00708145
-0.0169683
-0.0268326
-0.0366742
-0.0464706
-0.0512217
-0.0559955
-0.0558371
-0.0610181
-0.0715611
-0.0721946
-0.0628733
-0.0579185
-0.0571493
-0.0641629
-0.0741403
-0.0721041
-0.0587104
-0.0483031
-0.0413574
-0.0390497
-0.0508371
-0.065
-0.0689366
-0.0695475
-0.0723982
-0.072828
-0.0719909
-0.0706561
-0.0692081
-0.0779411
-0.0869457
-0.0862669
-0.0858597
-0.085724
-0.0856787
-0.0856335
-0.0855882
-0.0805203
-0.0754298
-0.0753393
-0.0752488
-0.0751357
-0.0750226
-0.0749321
-0.0748416
-0.0847285
-0.0945701
-0.0943665
-0.0941855
-0.0940724
-0.0939366
-0.088733
-0.0835068
-0.0783031
-0.0781674
-0.0880769
-0.0929638
-0.087828
-0.0826923
-0.0825565
-0.082466
-0.0874208
-0.092285
-0.0870588
-0.0818778
-0.081742
-0.0815837
-0.0864027
-0.0912217
-0.0810633
-0.0809276
-0.0808145
-0.0857013
-0.0905656
-0.0903846
-0.090181
-0.095
-0.099819
-0.0846153
-0.0694117
-0.0642307
-0.0590271
-0.0437782
-0.0185294
0.0116742
0.0319005
0.0371946
0.0324887
0.00278284
-0.0169457
-0.0316968
-0.0364253
-0.0411312
-0.0509049
-0.0657466
-0.0806108
-0.0905203
-0.0954298
-0.0953846
-0.0954525
-0.0956108
-0.0957692
-0.0909276
-0.0861312
-0.0863801
-0.0866289
-0.0918778
-0.097104
-0.0923303
-0.0875792
-0.0878054
-0.0879864
-0.0781221
-0.0832352
-0.088371
-0.0885068
-0.0886199
-0.0786877
-0.0687556
-0.0588461
-0.053914
-0.0789366
-0.123914
-0.228846
-0.283823
-0.238846
-0.113959
0.145973
0.495905
0.965837
1.38577
1.73566
1.55552
0.865407
0.310362
-0.134638
-0.344661
-0.404706
-0.394729
-0.339729
-0.269796
-0.199932
-0.140045
-0.0851357
-0.0702489
-0.0753846
-0.080543
-0.085724
-0.0908597
-0.0909276
-0.0909502
-0.0959502
-0.0959502
-0.0909502
-0.0909276
-0.0908824
-0.095905
-0.100995
-0.0961086
-0.0912443
-0.0913575
-0.091448
-0.0915158
-0.0915611
-0.0816063
-0.0716742
-0.0717873
-0.0719004
-0.0669683
-0.0620362
-0.0521267
-0.0421719
-0.0471946
-0.0522624
-0.0473303
-0.0423529
-0.0373529
-0.0323756
-0.0274435
-0.0175566
-0.00764706
0.00226244
0.0121719
0.0170814
0.0169909
0.0218778
0.0317421
0.0466063
0.0613801
0.0710181
0.0805656
0.0900452
0.0995701
0.119299
0.144231
0.154344
0.164593
0.179909
0.195249
0.215498
0.235679
0.240792
0.245928
0.266109
0.286267
0.296335
0.306312
0.301267
0.296222
0.296176
0.291086
0.27095
0.245837
0.220769
0.195724
0.160679
0.130634
0.100566
0.0804525
0.0653394
0.0452489
0.0251584
0.00506788
-0.00999999
-0.015181
-0.0204072
-0.0305203
-0.0403846
-0.0447964
-0.0490271
-0.0534163
-0.0535068
-0.0598642
-0.0732805
-0.0795701
-0.0923303
-0.0854299
-0.0960181
-0.0922172
-0.0848643
-0.0738688
-0.0606787
-0.0510407
-0.0425792
-0.0476923
-0.0556561
-0.0509502
-0.0472398
-0.0537783
-0.0602489
-0.0564706
-0.0523303
-0.057828
-0.0630769
-0.0580995
-0.0530769
-0.0480995
-0.0431222
-0.0481448
-0.05819
-0.0682353
-0.0733258
-0.0734841
-0.0735973
-0.0786425
-0.0837104
-0.0788009
-0.0739366
-0.0691176
-0.0642534
-0.0693439
-0.0745022
-0.0746832
-0.0748869
-0.0701131
-0.0652941
-0.0654299
-0.0705656
-0.0757013
-0.0708145
-0.0659502
-0.0761086
-0.0862443
-0.0814253
-0.0766516
-0.0818552
-0.0870814
-0.0823529
-0.0776244
-0.0728959
-0.0681448
-0.068371
-0.0686199
-0.0738688
-0.079095
-0.0743213
-0.069638
-0.0750226
-0.0603846
-0.015724
0.0189367
0.0385747
0.0331448
0.0026697
-0.0177602
-0.0281221
-0.0385294
-0.0489592
-0.0593891
-0.0697964
-0.0751357
-0.0754298
-0.0857692
-0.101131
-0.106403
-0.101561
-0.0966063
-0.101516
-0.106357
-0.106109
-0.0957466
-0.0852715
-0.0897511
-0.0942307
-0.0937104
-0.0931674
-0.092647
-0.0921945
-0.0868325
-0.0814932
-0.0811538
-0.0808597
-0.0806108
-0.0754298
-0.055362
-0.0502715
-0.0751583
-0.13009
-0.220068
-0.250045
-0.205023
-0.0450226
0.209977
0.619932
1.14982
1.41971
1.53957
1.1095
0.399412
-0.0356561
-0.370701
-0.435724
-0.405724
-0.325701
-0.225656
-0.150656
-0.0807013
-0.070724
-0.075724
-0.0807466
-0.0807918
-0.0908145
-0.100814
-0.0958145
-0.0908145
-0.0858145
-0.0808145
-0.0857919
-0.0907466
-0.0907014
-0.0906788
-0.0807014
-0.0707466
-0.0807919
-0.0908371
-0.085905
-0.0809729
-0.0760407
-0.0710634
-0.0760407
-0.0810181
-0.0660407
-0.0611086
-0.0561991
-0.0512444
-0.0512217
-0.0511765
-0.0511312
-0.051086
-0.0510407
-0.0409955
-0.0259503
-0.0209729
-0.0160634
-0.0111086
-0.0111086
-0.00119911
0.0136651
0.0185746
0.0235294
0.0285068
0.0335068
0.0485068
0.0585294
0.0585746
0.0585973
0.0835973
0.108597
0.118575
0.12862
0.138846
0.154208
0.179661
0.20009
0.210385
0.220588
0.240747
0.25586
0.270928
0.28095
0.285928
0.295882
0.310837
0.320747
0.320588
0.315385
0.300181
0.279977
0.259728
0.23448
0.209253
0.17905
0.148846
0.123552
0.0981674
0.0676923
0.0371267
0.0214706
0.0108145
-0.00468326
-0.0200679
-0.0304072
-0.040724
-0.0460181
-0.036267
-0.0464027
-0.0564706
-0.0566063
-0.0569457
-0.0626471
-0.0684615
-0.0690498
-0.068914
-0.0626697
-0.0545928
-0.049095
-0.042353
-0.0350679
-0.0297286
-0.0276471
-0.027534
-0.0289367
-0.0306336
-0.0371946
-0.0433937
