ekg
0
0.02
0.03
0.00642857
-0.00666666
0.0113636
0.0376923
0.0203333
0.00441176
0.0321053
0.0530952
0.0228261
0.000600002
-0.0172222
-0.0148276
0.0403226
0.0656061
0.0282857
0.00662162
0.025641
0.0243902
-0.0163954
-0.044
-0.0679787
-0.104388
-0.156275
-0.194528
-0.226545
-0.208158
-0.16
-0.127377
-0.10119
-0.0789231
-0.0615672
-0.059058
-0.0645775
-0.0976712
-0.1314
-0.0842208
-0.015
-0.00524694
0.00319274
-0.0449412
-0.0975287
-0.0960674
-0.0941758
-0.0591935
-0.0232105
-0.0312371
-0.0354041
-0.00272277
0.0250486
0.00704762
-0.0136448
-0.0291284
-0.0438288
-0.0336725
-0.0279565
-0.0463248
-0.0467647
-0.00582646
0.0195935
0.01008
-0.0105512
-0.0365117
-0.0391985
-0.0197744
-0.0244074
-0.0556934
-0.097446
-0.13734
-0.0831119
0.0161724
0.00935376
-0.0437919
-0.0602649
-0.0565686
-0.108968
-0.185255
-0.187484
-0.174938
-0.151411
-0.126333
-0.0964671
-0.060858
-0.0924854
-0.124566
-0.0895429
-0.0511864
-0.077486
-0.0952763
-0.0353825
-0.0108649
-0.0934225
-0.170873
-0.210367
-0.21272
-0.153923
-0.135939
-0.203819
-0.250274
-0.239236
-0.228024
-0.220942
-0.169426
-0.0741469
-0.0344836
-0.0541628
-0.0736175
-0.104566
-0.110091
-0.0992761
-0.0984842
-0.107896
-0.152353
-0.216855
-0.151335
-0.0457919
-0.0804525
-0.155339
-0.135362
-0.0956335
-0.136493
-0.187602
-0.0586878
-0.194729
0.0845022
0.0736651
-0.142692
-0.329276
-0.170815
-0.0374887
-0.0945249
-0.146742
-0.11905
-0.0762896
0.0264932
0.0688235
-0.0593891
-0.14233
-0.115294
-0.0872624
-0.0537557
-0.0500452
-0.101154
-0.0671041
0.0770362
0.125792
0.0842308
0.0231674
-0.0573529
-0.0578054
0.00180995
0.0412217
0.0754525
0.024819
-0.0757014
-0.0109729
0.113982
0.0988914
0.0486652
0.0133258
-0.0170136
-0.0873982
-0.167805
-0.13319
-0.0886199
-0.14405
-0.20457
-0.0553168
0.0840497
0.0688235
0.0437104
-0.0665385
-0.181923
-0.352466
-0.4881
-0.46871
-0.449253
-0.439796
-0.225634
0.43319
1.14228
1.93188
2.52661
2.82627
3.05559
3.19968
2.78828
1.8064
0.875249
-0.0152715
-0.555679
-0.860996
-0.921358
-0.841674
-0.817172
-0.827851
-0.693326
-0.49862
-0.334118
-0.184887
-0.155701
-0.161244
-0.221561
-0.28681
-0.282059
-0.262308
-0.197421
-0.127692
-0.0785973
-0.0296832
-0.0505203
-0.076267
-0.147036
-0.197489
-0.0773529
0.0179186
0.0329864
0.0277602
-0.0678507
-0.113416
-0.0388235
0.0157919
0.00536198
-0.00522625
0.00393664
0.0134163
0.0233937
0.048371
0.0931222
0.157624
0.242014
0.256199
0.210204
0.180113
0.159638
0.190317
0.260837
0.280317
0.278959
0.303462
0.338665
0.343575
0.33319
0.277828
0.217534
0.277534
0.362805
0.317828
0.367534
0.177262
0.0970588
0.0719683
0.0469231
0.0117195
-0.0183937
0.0320136
0.0676697
0.00323531
-0.051448
-0.0614932
-0.0715384
-0.0763348
-0.0910633
-0.120543
-0.145769
-0.166742
-0.182262
-0.182059
-0.1569
-0.101946
-0.0771267
-0.0874208
-0.102896
-0.123643
-0.129163
-0.119457
-0.0951584
-0.0662443
-0.0916063
-0.141222
-0.140701
-0.120113
-0.109909
-0.100181
-0.0862896
-0.0731448
-0.0951131
-0.127104
-0.104072
-0.0700226
-0.0728733
-0.0768099
-0.101154
-0.12233
-0.0469231
0.0241176
0.100158
0.142376
-0.0121719
-0.13905
-0.148258
-0.156878
-0.133688
-0.126471
-0.134548
-0.140091
-0.163077
-0.175317
-0.161787
-0.120588
-0.0370136
-0.0433258
-0.139796
-0.197308
-0.220814
-0.224751
-0.204005
-0.158145
-0.092172
-0.101267
-0.145317
-0.154434
-0.143665
-0.163303
-0.198348
-0.188122
-0.162579
-0.116855
-0.0609955
-0.0753846
-0.0999095
-0.104163
-0.103303
-0.112647
-0.122081
-0.126425
-0.130747
-0.165091
-0.18948
-0.113846
-0.0478507
-0.0413349
-0.0498869
-0.118824
-0.167986
-0.14233
-0.116584
-0.100588
-0.0995475
-0.128575
-0.147851
-0.137285
-0.121471
-0.0955204
-0.065
-0.0249095
-0.039638
-0.109072
-0.118756
-0.0933258
-0.0790045
-0.0701131
-0.0759955
-0.0917647
-0.0777149
-0.0488688
-0.0549095
-0.0757692
-0.0817195
-0.0826697
-0.0833937
-0.0787557
-0.0536652
-0.0735068
0.0413801
0.106131
0.0708597
0.0356109
0.0304751
0.0255204
0.0208597
0.0161765
-0.0137557
-0.0339367
-0.0493665
-0.0543891
-0.0188688
0.0069457
-0.00223982
-0.0262217
-0.0704299
-0.109774
-0.134163
-0.143688
-0.128348
-0.0980091
-0.0526471
-0.0272398
-0.0218552
-0.0313348
-0.0557919
-0.210837
-0.436131
-0.540928
-0.590475
-0.499706
-0.35371
0.0823756
0.598439
1.28862
2.01819
2.45281
2.85249
3.0074
3.15235
2.61719
2.04217
0.907353
-0.17267
-0.598009
-0.973054
-0.967398
-0.936719
-0.766471
-0.61129
-0.510996
-0.42086
-0.380837
-0.335633
-0.270113
-0.229796
-0.234864
-0.234751
-0.214367
-0.17414
-0.114163
-0.0893891
-0.114706
-0.149638
-0.18914
-0.203575
-0.188009
-0.157421
-0.121787
-0.111199
-0.120701
-0.11543
-0.100294
-0.065362
-0.0254977
-0.0400905
-0.0693213
-0.0386199
0.0018552
0.0217194
0.0413801
0.0514027
0.0667647
0.0773756
0.0929638
0.173235
0.243348
0.193462
0.153643
0.193982
0.22948
0.250181
0.270837
0.281154
0.306154
0.360996
0.376041
0.301335
0.251923
0.25776
0.273462
0.299095
0.294638
0.250023
0.195317
0.135566
0.0459502
-0.0586199
-0.0885068
-0.0587783
-0.0535068
-0.067715
-0.0864932
-0.110091
-0.123869
-0.132783
-0.101765
-0.0558371
-0.0151584
0.020362
-0.0742534
-0.183959
-0.223552
-0.193213
-0.263167
-0.263326
-0.23371
-0.204299
-0.165023
-0.125769
-0.11138
-0.101787
-0.131923
-0.156765
-0.161357
-0.130928
-0.005543
0.0390271
-0.107285
-0.199344
-0.211584
-0.208235
-0.16905
-0.132941
-0.0945702
-0.0783032
-0.078914
-0.0773756
-0.0738688
-0.0445475
0.0054299
-0.00226238
-0.0474434
-0.00183252
0.0846607
0.0597738
-0.0168099
-0.0341628
-0.0427828
-0.0927149
-0.149932
-0.130543
-0.0984389
-0.107964
-0.128439
-0.109367
-0.0818778
-0.139072
-0.191946
-0.175837
-0.152919
-0.0938688
-0.0447059
-0.0808824
-0.117489
-0.144548
-0.167172
-0.175272
-0.18405
-0.183507
-0.172873
-0.127217
-0.101448
-0.0905204
-0.099638
-0.143778
-0.1581
-0.13767
-0.0970588
-0.031267
-0.0356109
-0.09
-0.139163
-0.178122
-0.172036
-0.130928
-0.114593
-0.103077
-0.1019
-0.110995
-0.114977
-0.118801
-0.122443
-0.115995
-0.0545928
0.00683257
-0.0215837
-0.0650453
-0.134005
-0.203281
-0.157602
-0.112149
-0.0969457
-0.0817647
-0.0666516
-0.0566289
-0.0867421
-0.0924208
0.00117648
0.0646154
0.0581901
0.00671947
-0.124932
-0.201719
-0.168665
-0.145498
-0.137195
-0.12362
-0.0997059
-0.0855204
-0.0711312
-0.0575113
-0.0495249
-0.0112443
0.0425792
0.0612896
0.0652036
0.0693891
0.0738009
0.0683484
0.0530317
0.0377602
0.0225565
-0.0176697
-0.0679412
-0.0832353
-0.0984389
-0.0731674
-0.102828
-0.0433032
-0.0542308
-0.0951584
-0.13595
-0.126425
-0.111765
-0.0620362
-0.0223756
-0.0628733
-0.098552
-0.124412
-0.125068
-0.0703846
-0.095724
-0.301358
-0.471855
-0.592149
-0.592172
-0.417195
-0.107534
0.3519
1.01109
1.86002
2.45428
2.85378
3.10783
3.27149
2.55532
1.37459
0.419525
-0.440362
-0.800611
-0.991063
-0.991358
-0.941403
-0.88138
-0.821403
-0.711561
-0.592036
-0.412919
-0.228982
-0.239977
-0.255634
-0.275701
-0.295679
-0.250882
-0.206357
-0.182262
-0.158145
-0.168733
-0.168959
-0.118688
-0.0886652
-0.129208
-0.159842
-0.160475
-0.151086
-0.121538
-0.0921041
-0.0678054
-0.0483258
-0.0337104
-0.0342081
-0.054819
-0.0554751
-0.0361312
-0.0165158
0.00334842
0.0278959
0.062172
0.0813575
0.095362
0.159593
0.238959
0.238145
0.20733
0.171787
0.141403
0.17586
0.230272
0.235136
0.235317
0.250475
0.275385
0.284615
0.293507
0.252602
0.211787
0.18095
0.150068
0.129186
0.118507
0.1931
0.22267
0.117127
0.0264932
-0.0191629
-0.0642986
-0.093914
-0.113394
-0.102738
-0.0922851
-0.0870814
-0.0920814
-0.117285
-0.13267
-0.133303
-0.124118
-0.105091
-0.0759502
-0.0419457
-0.0327149
-0.0435973
-0.0697738
-0.101267
-0.0978281
-0.0793665
-0.0556109
-0.0315611
-0.00253395
0.0264706
-0.0045249
-0.0454525
-0.0611086
-0.0519231
-0.0437783
-0.00633485
-0.0942534
-0.172104
-0.119186
-0.0749547
-0.0637783
-0.0545249
-0.086267
-0.0853846
0.032172
0.125633
0.139593
0.0916063
-0.0980317
-0.183824
-0.0880996
-0.025181
-0.00938916
-0.0256109
-0.0888009
-0.130091
-0.144163
-0.114434
-0.0506109
-0.0365158
-0.0662443
-0.143394
-0.23724
-0.236199
-0.176516
-0.124887
-0.0720362
-0.0891177
-0.131448
-0.169525
-0.2131
-0.16181
-0.0907014
-0.120068
-0.159842
-0.159842
-0.154977
-0.115136
-0.0752263
-0.115204
-0.155226
-0.135362
-0.115453
-0.11052
-0.10552
-0.105362
-0.100294
-0.060362
-0.0454751
-0.0955883
-0.125317
-0.129661
-0.113982
-0.0582127
-0.0423982
-0.0866742
-0.111154
-0.105837
-0.100498
-0.105045
-0.109683
-0.109412
-0.104118
-0.0838235
-0.083733
-0.0938009
-0.0891403
-0.074638
-0.0500453
-0.025543
-0.0563349
-0.102398
-0.0833711
-0.0492987
0.00941175
0.0677602
-0.0291629
-0.141312
-0.168552
-0.195905
-0.158281
-0.120475
-0.0924208
-0.0643213
-0.0663575
-0.0632806
-0.0399548
-0.0213122
-0.0222851
-0.0230317
-0.0135294
0.000995457
0.0253846
0.0549547
0.0796832
0.0895701
0.0746606
0.0496154
0.0144796
-0.015362
-0.0399322
-0.0546607
-0.0595475
-0.0493213
-0.024095
-0.0394344
-0.0798643
-0.0952263
-0.0905656
-0.0704751
-0.0402489
-0.0603846
-0.095724
-0.0812444
-0.0516742
0.00364251
0.0594117
-0.22491
0.0652941
-0.635656
-0.726968
-0.467602
-0.187851
0.256968
0.741697
1.48613
2.16045
2.53484
2.85437
2.97414
2.89903
2.31887
1.57344
0.472624
-0.353258
-0.738959
-0.964389
-0.954525
-0.874321
-0.718959
-0.608891
-0.529163
-0.459344
-0.394299
-0.334253
-0.284276
-0.244367
-0.209593
-0.194932
-0.195158
-0.165204
-0.125271
-0.135475
-0.160588
-0.17543
-0.190294
-0.15052
-0.100769
-0.0655882
-0.0301131
-0.0946606
-0.164525
-0.104864
-0.0451131
-0.0548869
-0.0647285
-0.0550905
-0.0403168
-0.0100905
0.0201357
0.0452262
0.0652715
0.0753167
0.100452
0.155769
0.201041
0.221199
0.216199
0.166086
0.155905
0.200679
0.250656
0.305701
0.325747
0.300837
0.291018
0.306425
0.311833
0.302059
0.307262
0.322262
0.292014
0.241742
0.226787
0.232059
0.192308
0.137602
0.0781222
0.0135747
-0.00642532
-0.0264253
-0.0210633
-0.000452481
-0.064638
-0.128552
-0.157217
-0.181176
-0.125724
-0.0802489
-0.114548
-0.143982
-0.13862
-0.143462
-0.183462
-0.173394
-0.0381448
0.0216968
-0.0790498
-0.159661
-0.200045
-0.185339
-0.0954978
-0.0456787
-0.0459502
-0.0760633
-0.135882
-0.155023
-0.133733
-0.089276
-0.0288009
-0.0410407
-0.0984163
-0.119683
-0.114729
-0.102783
-0.0886425
-0.0860633
-0.0904072
-0.0631674
-0.0245701
-0.00552036
0.00343891
0.0102715
0.0195701
0.0449095
0.0664253
0.0555656
0.037172
-0.0630317
-0.150814
-0.136154
-0.118484
-0.102738
-0.0975113
-0.142557
-0.180498
-0.176109
-0.14629
-0.091448
-0.0745023
-0.151086
-0.182014
-0.127285
-0.123032
-0.174344
-0.161471
-0.0794344
-0.0680543
-0.122104
-0.170792
-0.214163
-0.172738
-0.0716516
-0.0756335
-0.124502
-0.0932806
-0.0220136
-0.0757014
-0.169389
-0.163145
-0.13681
-0.130249
-0.128643
-0.142195
-0.160724
-0.148982
-0.132014
-0.0899547
-0.0479186
-0.00613122
0.0304072
-0.0430995
-0.101312
-0.079095
-0.0517421
-0.00947965
0.00262443
-0.090362
-0.158484
-0.17681
-0.155339
-0.0590045
-0.0128054
-0.0518326
-0.071086
-0.0654751
-0.0699095
-0.0945023
-0.0596833
0.0395701
0.0387104
-0.0322172
-0.0729412
-0.0934389
-0.12414
-0.155045
-0.0808823
0.0333032
0.00282806
-0.0823756
-0.0827149
-0.0631674
-0.0336199
-0.00404977
-0.00947963
-0.0245475
0.051448
0.142828
0.0986652
0.0540498
0.0541855
0.0545249
0.0404977
0.0268326
0.00825791
-0.0254977
-0.119615
-0.158891
-0.0381448
0.0277828
-0.0709955
-0.129774
-0.113733
-0.102964
-0.097353
-0.0968552
-0.111448
-0.115679
-0.0896606
-0.0685747
-0.0473982
-0.10138
-0.210543
-0.394706
-0.618846
-0.597941
-0.456968
-0.12095
0.290068
0.940634
1.66081
2.21109
2.71649
2.9021
3.02778
2.62319
2.15844
0.998824
2.13457
-0.524118
-0.84767
-0.961674
-1.06595
-0.970113
-0.869276
-0.70362
-0.532873
-0.346719
-0.200498
-0.244525
-0.278959
-0.298801
-0.293462
-0.217692
-0.181652
-0.210634
-0.229548
-0.228213
-0.211968
-0.166041
-0.155407
-0.179887
-0.169095
-0.1231
-0.102195
-0.106403
-0.110611
-0.109819
-0.108914
-0.102873
-0.0566968
-0.000407238
-0.0145023
-0.0538235
-0.0628507
-0.0666968
-0.0404525
-0.00423077
0.0314932
0.0668552
0.117149
0.162647
0.16371
0.164955
0.200905
0.236652
0.20733
0.1881
0.258937
0.319887
0.326176
0.322308
0.282964
0.253665
0.234548
0.215317
0.17095
0.1419
0.123348
0.109502
0.105113
0.100792
0.106606
0.0973982
0.0581901
-0.0110407
-0.110339
-0.134231
-0.112647
-0.0911765
-0.0750453
-0.104412
-0.153982
-0.183281
-0.202557
-0.192127
-0.171855
-0.156765
-0.141652
-0.13586
-0.139706
-0.149027
-0.163688
-0.123371
-0.0829864
-0.0474661
-0.0168326
-0.101176
-0.170611
-0.170045
-0.164457
-0.123846
-0.0883711
-0.0932353
-0.0992534
-0.0916516
-0.0881221
-0.108054
-0.120701
-0.110769
-0.0982579
-0.0830091
-0.0722851
-0.0765159
-0.0632579
-0.0276018
-0.0161539
-0.033733
-0.0871041
-0.150317
-0.17914
-0.171584
-0.153959
-0.132466
-0.133235
-0.147217
-0.155362
-0.162851
-0.164932
-0.161878
-0.119615
-0.0730996
-0.0722625
-0.06681
-0.131312
-0.175724
-0.160181
-0.144683
-0.179186
-0.203688
-0.133077
-0.0826018
-0.137443
-0.182262
-0.176833
-0.171335
-0.160928
-0.145611
-0.130249
-0.120113
-0.110045
-0.0997285
-0.0891177
-0.0986425
-0.143416
-0.158394
-0.138507
-0.123439
-0.108145
-0.0977149
-0.102149
-0.126357
-0.155452
-0.149887
-0.124525
-0.0990272
-0.0783937
-0.102941
-0.142647
-0.132104
-0.106425
-0.070905
-0.0354978
-0.0852941
-0.145272
-0.150407
-0.150724
-0.146312
-0.141968
-0.107579
-0.0732127
-0.0888688
-0.099457
-0.0649095
-0.0352941
-0.0357466
-0.036267
-0.051991
-0.0676923
-0.0881675
-0.0584842
0.0513122
0.0960859
0.0207466
0.000271484
0.0447059
0.044276
-0.0109729
-0.0561539
-0.086267
-0.101403
-0.0965611
-0.0815837
-0.0615611
-0.066448
-0.0912444
-0.11595
-0.135543
-0.12043
-0.0955883
-0.0808145
-0.0661086
-0.0913123
-0.126425
-0.0566064
0.02319
-0.161923
-0.361991
-0.532149
-0.692398
-0.61267
-0.497919
-0.0530996
0.441742
1.18152
1.88124
2.40602
2.83088
2.95077
2.94557
2.6302
1.99973
0.764231
-0.196176
-0.706493
-1.00163
-1.02165
-0.99681
-0.902104
-0.787398
-0.65767
-0.52767
-0.397398
-0.307262
-0.242217
-0.227398
-0.247738
-0.258077
-0.258394
-0.243914
-0.224548
-0.184751
-0.139661
-0.134796
-0.145113
-0.140385
-0.125656
-0.110973
-0.121312
-0.0716742
-0.051991
-0.0621946
-0.0723077
-0.0573303
-0.0423756
-0.00760183
0.0171267
0.00192306
-0.0132353
-0.00832582
-0.00339369
-0.00352942
0.0161991
0.0907918
0.135385
0.140113
0.144955
0.154887
0.169706
0.184344
0.214027
0.253824
0.27371
0.278688
0.288507
0.303122
0.322715
0.337308
0.3219
0.291493
0.281244
0.281154
0.261041
0.235882
0.210769
0.185747
0.130792
0.0758823
0.0459276
0.0158597
0.000588194
-0.0096833
-0.0346154
-0.0592987
-0.0591403
-0.0591403
-0.0791629
-0.0992761
-0.0997059
-0.100407
-0.0913122
-0.0921946
-0.132919
-0.158416
-0.138665
-0.118846
-0.104072
-0.0995023
-0.120113
-0.130588
-0.115882
-0.0960181
-0.0759955
-0.0610407
-0.0511991
-0.0511312
-0.0608144
-0.0664253
-0.0679864
-0.0652036
-0.0580543
-0.0605203
-0.0720362
-0.0754977
-0.0710407
-0.0480316
-0.0171719
-0.0148416
-0.0225114
-0.037353
-0.0553847
-0.0433032
-0.021086
-0.0257014
-0.0354073
-0.0929864
-0.14862
-0.139638
-0.126403
-0.133756
-0.138982
-0.157511
-0.170498
-0.138167
-0.11086
-0.123733
-0.132262
-0.116629
-0.106471
-0.0967421
-0.0969231
-0.121991
-0.136833
-0.141425
-0.146041
-0.150747
-0.14552
-0.125339
-0.105181
-0.0851358
-0.084819
-0.0993665
-0.109005
-0.118756
-0.123529
-0.128303
-0.132941
-0.127534
-0.122308
-0.122217
-0.117127
-0.107014
-0.101833
-0.101629
-0.0962896
-0.100837
-0.100385
-0.100045
-0.099819
-0.0995023
-0.0990271
-0.0985294
-0.0830317
-0.0675565
-0.0821493
-0.0969004
-0.0967873
-0.0966063
-0.0913575
-0.0861538
-0.0861086
-0.0860633
-0.0959955
-0.096267
-0.0718552
-0.0623077
-0.0776245
-0.0880091
-0.0934842
-0.0840272
-0.0596154
-0.0301358
0.004457
-0.00592761
-0.0463348
-0.0317195
0.0179864
0.0378281
0.0527602
0.0678507
0.0830543
0.0633484
0.0336652
-0.00122172
-0.0362443
-0.0561538
-0.0709728
-0.0507692
-0.0306109
-0.0456109
-0.0606109
-0.0804525
-0.100181
-0.109796
-0.119344
-0.0988914
-0.0735068
-0.0532353
-0.0428959
-0.0674208
-0.0869457
-0.0914706
-0.186018
-0.415633
-0.565362
-0.610181
-0.540045
-0.339909
0.0853168
0.685566
1.3857
2.15075
2.59593
2.87129
3.03658
3.16186
2.43697
1.39695
0.482081
-0.397647
-0.752443
-0.997353
-0.987444
-0.927602
-0.832534
-0.727285
-0.567036
-0.401765
-0.30638
-0.211041
-0.215837
-0.220566
-0.230204
-0.239887
-0.229661
-0.219434
-0.199163
-0.173846
-0.153439
-0.137941
-0.147376
-0.156833
-0.146312
-0.130882
-0.110543
-0.0952715
-0.0900679
-0.0748643
-0.0496154
-0.0343213
-0.0290271
-0.0288235
-0.0436652
-0.0284163
0.0169457
0.0374887
0.0430995
0.0735973
0.109005
0.104457
0.0849547
0.110407
0.150769
0.176086
0.196425
0.241765
0.287127
0.292624
0.293122
0.288552
0.293959
0.284344
0.279729
0.335113
0.380452
0.325769
0.271086
0.23129
0.196652
0.182262
0.162851
0.133416
0.099095
0.0699321
0.0507918
0.0464932
0.0272851
-0.0216742
-0.0606788
-0.0947511
-0.118733
-0.127624
-0.131516
-0.125498
-0.119864
-0.124525
-0.124072
-0.113529
-0.0979412
-0.0823077
-0.0916969
-0.111177
-0.115973
-0.120928
-0.120769
-0.110543
-0.0951358
-0.079638
-0.0991855
-0.128846
-0.123824
-0.113959
-0.10914
-0.104819
-0.0866064
-0.0691629
-0.0470136
-0.0293439
-0.0604751
-0.0845475
-0.0808145
-0.0790046
-0.0888688
-0.0916064
-0.0579412
-0.0334841
-0.0234389
-0.0217421
-0.029819
-0.0368779
-0.0277602
-0.0102715
0.00606331
0.00228505
-0.0213575
-0.0395701
-0.0571267
-0.0732353
-0.0828733
-0.0613122
-0.0190045
-0.0322172
-0.0767194
-0.0836652
-0.0736199
-0.0871946
-0.113439
-0.131403
-0.145452
-0.160068
-0.16724
-0.169932
-0.183462
-0.172873
-0.160091
-0.145928
-0.131516
-0.132308
-0.133348
-0.134593
-0.131109
-0.102964
-0.0804977
-0.0938462
-0.117466
-0.151177
-0.169774
-0.143258
-0.121584
-0.129729
-0.137964
-0.126358
-0.104661
-0.0778281
-0.0661086
-0.0794797
-0.097534
-0.125294
-0.1231
-0.100973
-0.0888914
-0.0818779
-0.0801358
-0.0885295
-0.0765612
-0.0442987
-0.0321946
-0.0204073
-0.0641403
-0.12319
-0.10733
-0.0765385
-0.0707919
-0.0702941
-0.0851584
-0.0903168
-0.0956788
-0.101267
-0.0721946
-0.0433032
-0.0495023
-0.0557919
-0.0771493
-0.0887783
-0.0406561
-0.012353
-0.0588462
-0.0953168
-0.0867422
-0.0781901
-0.0896154
-0.0860408
-0.0375113
-0.0238915
-0.0601811
-0.0864933
-0.107738
-0.10362
-0.0741403
-0.0395023
0.00520356
0.0199547
0.024819
0.0398868
0.0550905
0.0753167
0.0955882
0.0510181
-0.0134616
-0.0432353
-0.0630996
-0.0427602
-0.0123303
-0.0369683
-0.07181
-0.0818326
-0.0868099
-0.071629
-0.056448
-0.0913801
-0.126538
-0.121878
-0.112081
-0.0770362
-0.0469004
-0.0467873
-0.0867647
-0.246878
-0.407172
-0.577624
-0.647986
-0.538145
-0.258213
0.271674
0.926358
1.73593
2.33561
2.73536
3.00016
3.14502
2.61984
1.61964
0.689412
-0.210905
-0.681199
-0.96647
-1.00667
-0.956765
-0.886742
-0.816652
-0.741584
-0.661606
-0.511697
-0.346787
-0.271923
-0.207036
-0.212104
-0.232195
-0.237262
-0.242262
-0.227308
-0.212466
-0.207692
-0.197964
-0.148258
-0.108303
-0.133077
-0.152896
-0.137873
-0.122896
-0.117873
-0.0979864
-0.0482805
-0.0235294
-0.0487783
-0.068914
-0.0888462
-0.0736652
0.00162895
0.0366742
0.0414027
0.0361312
0.015905
0.0356109
0.0852489
0.129887
0.16957
0.199253
0.223937
0.223778
0.208733
0.203552
0.208281
0.262986
0.322692
0.28767
0.237828
0.232828
0.232579
0.252195
0.26181
0.251425
0.241109
0.216063
0.191109
0.196018
0.190792
0.125407
0.0599774
0.00461537
-0.0405883
-0.045543
-0.060362
-0.100204
-0.12491
-0.109615
-0.0992987
-0.108959
-0.108869
-0.074095
-0.0792987
-0.124457
-0.149502
-0.154389
-0.124457
-0.0647511
-0.0651358
-0.105588
-0.115995
-0.106357
-0.0669231
-0.0176697
-0.0283258
-0.063914
-0.0844118
-0.0998416
-0.0953394
-0.0810407
-0.0574208
-0.0345701
-0.0376244
-0.0460633
-0.0840045
-0.120747
-0.0802036
-0.03681
-0.0598416
-0.0800905
-0.083371
-0.0853846
-0.0616742
-0.0400905
-0.0227828
-0.00968322
-0.00570135
-0.003914
-0.0134615
-0.0331222
-0.0674887
-0.0917421
-0.0958824
-0.0796154
-0.042896
-0.0252941
-0.0317647
-0.0629638
-0.108891
-0.124638
-0.105
-0.0993213
-0.0980091
-0.0817647
-0.0564254
-0.0282353
-0.00282806
-0.0558145
-0.141561
-0.164683
-0.174253
-0.179367
-0.183394
-0.155249
-0.117896
-0.130091
-0.139095
-0.151086
-0.162579
-0.17414
-0.185882
-0.17267
-0.15991
-0.142805
-0.12138
-0.100679
-0.0849774
-0.099095
-0.112964
-0.116538
-0.120181
-0.123914
-0.117738
-0.0917195
-0.0756108
-0.0893665
-0.0979638
-0.10638
-0.114955
-0.123801
-0.102941
-0.0622398
-0.0513122
-0.060181
-0.0689593
-0.0778054
-0.0820588
-0.0866063
-0.0811086
-0.0656335
-0.0505204
-0.0358371
-0.0365837
-0.0476697
-0.0638688
-0.0552489
-0.0719231
-0.0586878
-0.0452715
-0.0318552
-0.0236199
-0.0205656
-0.0575339
-0.0896606
-0.0971041
-0.104729
-0.0924435
-0.0799774
-0.0721493
-0.0642308
-0.0615611
-0.0589819
-0.0515837
-0.0487557
-0.0654525
-0.0720588
-0.0586878
-0.0452489
-0.0317421
-0.0279638
-0.0389819
-0.0300905
-0.00115383
0.0131448
0.0127602
0.0274661
0.0521493
0.0768552
0.0966516
0.0813801
0.0460181
0.0306561
0.0152036
-0.0402941
-0.0958145
-0.0963574
-0.0868325
-0.0721719
-0.0624434
-0.0777149
-0.0929185
-0.0480995
-0.00346151
-0.0190045
-0.0395927
-0.0851131
-0.125566
-0.111041
-0.106742
-0.15276
-0.258688
-0.494321
-0.639819
-0.610226
-0.395633
0.0840045
0.708665
1.50835
2.15765
2.65649
2.95554
3.0898
2.86416
2.38862
1.47812
0.322692
-0.357896
-0.82862
-0.959367
-0.964955
-0.910158
-0.825181
-0.690249
-0.54043
-0.395747
-0.256086
-0.236357
-0.226584
-0.236878
-0.262217
-0.217489
-0.17276
-0.153077
-0.133394
-0.15862
-0.183575
-0.163303
-0.143235
-0.143484
-0.133914
-0.0745023
-0.0398642
-0.0698643
-0.104819
-0.134887
-0.130045
-0.0652941
-0.0253846
-0.0303167
-0.0303167
-0.0153394
0.0145475
0.0543891
0.0842534
0.104095
0.128824
0.153552
0.14819
0.122873
0.13267
0.162624
0.20276
0.242919
0.272692
0.297285
0.312059
0.326923
0.316855
0.296719
0.27638
0.291018
0.300769
0.350543
0.295272
0.240113
0.210091
0.180113
0.145204
0.115407
0.0607466
0.0311312
0.0764706
0.0917421
0.0120136
-0.0628507
-0.117534
-0.147489
-0.112262
-0.0918778
-0.106357
-0.115882
-0.13052
-0.125023
-0.104434
-0.0892534
-0.0745249
-0.0801131
-0.105814
-0.116109
-0.121109
-0.151199
-0.18638
-0.166403
-0.126312
-0.0964027
-0.0716742
-0.0672624
-0.0681448
-0.049095
-0.0250905
-0.0613122
-0.107873
-0.135226
-0.158348
-0.146719
-0.133846
-0.108258
-0.0796606
-0.0323982
0.00264705
-0.0402715
-0.0667195
-0.0673529
-0.0639593
-0.0227149
0.0139819
0.04
0.0583711
0.0450679
-0.00882351
-0.112738
-0.17129
-0.154253
-0.120882
-0.0761538
-0.0504751
-0.0440498
-0.0382353
-0.0386878
-0.0471719
-0.0738235
-0.0885294
-0.0955656
-0.103801
-0.112941
-0.172738
-0.250995
-0.224864
-0.169502
-0.140181
-0.11319
-0.139389
-0.174864
-0.170588
-0.151855
-0.138824
-0.126448
-0.164525
-0.20276
-0.181222
-0.159751
-0.123235
-0.0969231
-0.100814
-0.104661
-0.0934615
-0.0818552
-0.0747964
-0.0677828
-0.0759728
-0.094457
-0.123145
-0.121629
-0.0699095
-0.0580995
-0.101199
-0.124072
-0.121742
-0.0895249
-0.0324434
-0.0153393
-0.0332127
-0.0315611
-0.0100226
-0.0286878
-0.0724887
-0.0862217
-0.0850905
-0.0944796
-0.109186
-0.114208
-0.114412
-0.0894796
-0.0595475
-0.0150452
-0.0559276
0.0179186
0.00151583
-0.00988687
-0.0213122
-0.0278733
-0.0396154
-0.0865837
-0.123643
-0.0907014
-0.0476471
0.0205656
0.054095
-0.022104
-0.0782353
-0.0744796
-0.0705656
-0.0617421
-0.0428281
-0.018733
0.000746604
0.025543
0.0505204
0.0806109
0.0956561
0.100769
0.0710181
0.0113122
0.0366968
0.122149
0.0626923
-0.0567421
-0.0963122
-0.105882
-0.070181
-0.019276
-0.0435068
-0.0878959
-0.0973982
-0.0970362
-0.00167419
0.0985973
0.00371042
-0.0959276
-0.0951584
-0.0944118
-0.119005
-0.16405
-0.324344
-0.474638
-0.539819
-0.564796
-0.409615
-0.119299
0.541131
1.21647
1.93661
2.49658
2.78147
3.00158
3.1219
2.75667
1.80586
0.890566
0.0158371
-0.563688
-0.903077
-1.02787
-1.00305
-0.918122
-0.792986
-0.642579
-0.477036
-0.40181
-0.3569
-0.342036
-0.337127
-0.261946
-0.176538
-0.156041
-0.145611
-0.210339
-0.285091
-0.279774
-0.259253
-0.183484
-0.107919
-0.112828
-0.117692
-0.107149
-0.101493
-0.135995
-0.165679
-0.150475
-0.140317
-0.165091
-0.154615
-0.0390045
0.036629
0.0273529
0.00294118
-0.0417195
-0.0414932
0.0386878
0.0786878
0.0935294
0.103688
0.119118
0.134525
0.149932
0.160453
0.165724
0.191312
0.22681
0.252285
0.267738
0.298145
0.333529
0.358846
0.379095
0.369434
0.349977
0.275882
0.191923
0.167534
0.187783
0.122941
0.108213
0.108733
0.109208
0.0545023
0.00995476
-0.0242308
-0.0483032
-0.0173077
-0.00622171
-0.0700452
-0.12414
-0.168688
-0.203507
-0.207579
-0.197579
-0.143009
-0.118394
-0.138597
-0.158733
-0.183733
-0.188778
-0.178914
-0.158733
-0.128281
-0.0774434
-0.016267
-0.0507692
-0.150814
-0.195588
-0.220249
-0.175271
-0.100633
-0.0666742
-0.0482805
-0.0700226
-0.1019
-0.128348
-0.153326
-0.134796
-0.102376
-0.0606561
-0.0211765
-0.0506335
-0.0758597
0.0120362
0.0852489
0.00592759
-0.0650905
-0.0924208
-0.11319
-0.0709955
-0.0432805
-0.0841629
-0.124095
-0.177602
-0.197986
-0.165294
-0.132217
-0.098914
-0.0858824
-0.108213
-0.130882
-0.153846
-0.142489
-0.0966968
-0.0811538
-0.090905
-0.130701
-0.195566
-0.170385
-0.0950453
-0.104661
-0.144253
-0.158778
-0.168326
-0.153213
-0.128371
-0.0885068
-0.0486199
-0.0888462
-0.13905
-0.143801
-0.143303
-0.132941
-0.122783
-0.112919
-0.1031
-0.0729186
-0.0524435
-0.126742
-0.185995
-0.155249
-0.124638
-0.104208
-0.0888462
-0.0835747
-0.0783258
-0.0830769
-0.0878281
-0.0826245
-0.087353
-0.116991
-0.136629
-0.12129
-0.121041
-0.13095
-0.126357
-0.107285
-0.0833937
-0.0593891
-0.080362
-0.126222
-0.0972398
-0.0332805
-0.0493439
-0.105385
-0.106312
-0.0921946
-0.097828
-0.113326
-0.0840045
-0.0448416
0.0391855
-0.0418778
0.102104
0.0761538
0.0254072
-0.0252036
-0.00583711
0.0136425
-0.00174208
-0.0270814
-0.107398
-0.16776
-0.158122
-0.133235
-0.078009
-0.0581448
-0.118507
-0.144434
-0.0903394
-0.0611538
-0.0717195
-0.0968778
-0.131719
-0.126742
-0.0669909
-0.102376
-0.217919
-0.403507
-0.634072
-0.68448
-0.634729
-0.245091
0.289434
0.959276
1.6743
2.23873
2.75783
2.93706
3.04649
2.80643
2.52161
1.29154
-0.00375565
-0.544344
-1.06002
-1.0705
-1.07581
-1.001
-0.916131
-0.766403
-0.616968
-0.447851
-0.313597
-0.323937
-0.333937
-0.318665
-0.283665
-0.219095
-0.179502
-0.194638
-0.204819
-0.210181
-0.200634
-0.161154
-0.131652
-0.122081
-0.117285
-0.11733
-0.112873
-0.0988462
-0.0795701
-0.0600452
-0.0402263
-0.0202262
-0.0103846
-0.0106109
-0.0356787
-0.0706561
-0.0710633
-0.0568326
-0.0125113
0.0419231
0.0664706
0.0910407
0.120498
0.155023
0.179751
0.20457
0.219502
0.234253
0.258552
0.282828
0.292353
0.306923
0.341425
0.370928
0.385543
0.380045
0.309389
0.268733
0.303032
0.307443
0.257127
0.206584
0.145611
0.109434
0.0831674
0.0620588
0.0360634
0.0154299
0.000113126
-0.0149547
-0.0304751
-0.0352262
-0.025
-0.0299548
-0.0450905
-0.0901584
-0.145045
-0.159683
-0.154276
-0.124299
-0.0946606
-0.10009
-0.115498
-0.070724
-0.120973
-0.041629
-0.0718326
-0.0458145
-0.0239593
-0.0765611
-0.124706
-0.103733
-0.0850905
-0.0838914
-0.0809729
-0.0667647
-0.0603167
-0.0816968
-0.108869
-0.145339
-0.173348
-0.176109
-0.150792
-0.0924887
-0.0698869
-0.0984389
-0.131244
-0.16362
-0.157217
-0.112353
-0.0837331
-0.0666742
-0.0676923
-0.0864932
-0.0953394
-0.0993439
-0.103371
-0.102104
-0.064819
-0.0217195
-0.043009
-0.0888009
-0.149706
-0.220882
-0.202353
-0.173552
-0.15405
-0.139208
-0.139457
-0.139887
-0.135498
-0.131199
-0.121855
-0.112443
-0.123032
-0.118778
-0.0497285
-0.005543
-0.0661086
-0.12181
-0.177692
-0.208552
-0.164367
-0.140113
-0.145837
-0.146787
-0.128032
-0.109548
-0.101244
-0.0976018
-0.10362
-0.0945475
-0.0654751
-0.0766063
-0.127851
-0.154072
-0.175158
-0.14086
-0.0713122
-0.0866968
-0.126968
-0.137081
-0.132014
-0.126674
-0.130973
-0.0798643
-0.0186651
-0.0378281
-0.0720814
-0.0659955
-0.059819
-0.0238461
0.0171267
0.0631448
0.0990724
0.0598869
0.0206109
-0.0287783
-0.0582805
-0.0278959
-0.00744343
-0.0318778
-0.0513801
-0.0609502
-0.0705204
-0.0651357
-0.0850452
-0.155294
-0.190656
-0.176018
-0.161063
-0.135837
-0.115769
-0.100905
-0.0759276
-0.0462217
-0.171063
-0.386018
-0.540995
-0.671041
-0.576539
-0.417172
0.102851
0.703167
1.39326
2.09817
2.52292
2.91781
3.04294
2.93812
2.56314
1.93801
0.822805
-0.227285
-0.612081
-0.94181
-0.926765
-0.911968
-0.882398
-0.827579
-0.677285
-0.521991
-0.381787
-0.281629
-0.281516
-0.251561
-0.171652
-0.151742
-0.22681
-0.256629
-0.221176
-0.195814
-0.180656
-0.130905
-0.0516063
-0.0774435
-0.168235
-0.20362
-0.198688
-0.168643
-0.133507
-0.103394
-0.0733032
-0.0581674
-0.0480317
-0.0080543
0.0369231
0.0123077
-0.0270588
0.0232805
0.0833032
0.0979864
0.107557
0.102443
0.0974208
0.122262
0.152104
0.212104
0.267308
0.237715
0.2181
0.223371
0.248552
0.323733
0.384027
0.404299
0.399412
0.329367
0.289299
0.299367
0.29957
0.274774
0.249751
0.224593
0.174389
0.0991402
0.0744344
0.0852036
0.0657918
0.0261312
0.0114027
0.00658369
-0.0432127
-0.112964
-0.127647
-0.127262
-0.127014
-0.126855
-0.12181
-0.111833
-0.141742
-0.181493
-0.171199
-0.145905
-0.150611
-0.155249
-0.134729
-0.114367
-0.10448
-0.0995702
-0.139299
-0.16914
-0.139163
-0.109005
-0.0886199
-0.0781448
-0.0976018
-0.10233
-0.0726697
-0.037715
0.0076018
-0.0118778
-0.136018
-0.179299
-0.121697
-0.0694797
-0.00746609
-0.0163575
-0.0757692
-0.0953846
-0.0804751
-0.060362
-0.0398642
-0.038733
-0.0531221
-0.0572624
-0.0516516
-0.0457013
-0.0446606
-0.108824
-0.18319
-0.162466
-0.127036
-0.117308
-0.122534
-0.0926018
-0.0822624
-0.0812443
-0.0801584
-0.0946154
-0.109276
-0.108756
-0.108281
-0.0779638
-0.0475792
0.00303167
0.0236652
-0.0459276
-0.100769
-0.125475
-0.14543
-0.135339
-0.124955
-0.124276
-0.113643
-0.0880543
-0.0821267
-0.100882
-0.10991
-0.104299
-0.0886652
-0.0679864
-0.0724887
-0.0972172
-0.0922398
-0.0673077
-0.0667873
-0.0809502
-0.105113
-0.139276
-0.128869
-0.108597
-0.0780995
-0.0474208
-0.0815385
-0.12552
-0.114615
-0.0988009
-0.0583031
-0.0181222
-0.0630995
-0.103077
-0.0630769
-0.0277149
-0.0118778
-0.00617646
-0.0757918
-0.120543
-0.100317
-0.0798642
-0.0592307
-0.0336199
-0.00300903
0.0273982
0.0575113
0.0778507
0.0684389
0.0489367
0.0243665
0.0099774
0.0157466
0.00122174
-0.0336199
-0.0533936
-0.0630317
-0.0877375
-0.117511
-0.102217
-0.0669004
-0.106674
-0.171403
-0.131063
-0.0657466
-0.0853393
-0.119819
-0.114185
-0.0985746
-0.163213
-0.242964
-0.462624
-0.671991
-0.620928
-0.535068
-0.205023
0.19957
0.97414
1.72437
2.35043
2.86136
3.03176
3.03215
2.61272
1.90351
0.649548
-0.285
-0.725136
-0.999661
-1.05864
-1.06308
-0.987896
-0.887602
-0.75733
-0.536968
-0.241516
-0.15138
-0.186448
-0.246131
-0.315543
-0.309796
-0.263982
-0.248371
-0.252941
-0.217579
-0.167376
-0.13233
-0.102081
-0.131222
-0.170204
-0.149706
-0.17448
-0.0892534
-0.0640045
-0.0985973
-0.133145
-0.10776
-0.0874661
-0.122217
-0.146991
-0.111833
-0.0716969
-0.0265159
0.0236425
0.0787556
0.139118
0.199072
0.204457
0.0997285
0.060181
0.120747
0.176176
0.24138
0.25129
0.206018
0.191131
0.221584
0.252014
0.297308
0.312398
0.312466
0.342919
0.388575
0.38871
0.368597
0.263982
0.13457
0.114932
0.110158
0.115068
0.12991
0.0600905
-0.0195249
-0.0290271
-0.0334389
-0.0378054
-0.0423077
-0.107036
-0.161584
-0.140928
-0.125452
-0.160294
-0.185249
-0.150204
-0.120588
-0.126516
-0.132081
-0.122172
-0.112308
-0.107534
-0.0924208
-0.0618778
-0.0668099
-0.122285
-0.147602
-0.137647
-0.132783
-0.138077
-0.123326
-0.0885294
-0.0692986
-0.0604751
-0.0922172
-0.144615
-0.121742
-0.0684615
-0.0137783
0.0479864
-0.0410181
-0.156018
-0.122647
-0.0524661
-0.0528733
-0.0652036
-0.0867647
-0.119683
0.00307694
0.10457
-0.0522172
-0.18595
-0.100407
-0.0312217
-0.131855
-0.207919
-0.209434
-0.193507
-0.110158
-0.066448
-0.118054
-0.165294
-0.198235
-0.212036
-0.181493
-0.156244
-0.141357
-0.106176
-0.040724
-0.0556787
-0.140973
-0.156357
-0.11181
-0.106878
-0.131833
-0.156425
-0.180995
-0.180928
-0.166312
-0.137036
-0.102896
-0.0938462
-0.0996606
-0.104842
-0.109683
-0.089457
-0.0591629
-0.118801
-0.0534389
-0.1431
-0.0928281
-0.132986
-0.173145
-0.167805
-0.15233
-0.07681
-0.0164706
-0.0715385
-0.116878
-0.147262
-0.162602
-0.107828
-0.0879412
-0.133122
-0.137964
-0.0675792
-0.0525566
-0.122941
-0.13362
-0.0697059
-0.0358823
-0.0370814
-0.0682127
-0.124231
-0.150498
-0.156991
-0.153258
-0.134276
-0.0750905
0.00418553
-0.0169909
-0.0734163
-0.0544796
-0.0102941
-0.00115384
0.0029412
0.0822625
0.166787
0.0663349
-0.0492534
-0.0650226
-0.0756335
-0.135905
-0.196041
-0.131131
-0.0763575
-0.0719457
-0.0676471
-0.0682353
-0.0686199
-0.0738235
-0.0689819
-0.00907241
0.000814475
-0.0943665
-0.159729
-0.170339
-0.175905
-0.15629
-0.211516
-0.371561
-0.506923
-0.627738
-0.518394
-0.218801
0.205362
0.719208
1.41326
2.2174
2.66717
2.95251
3.10724
3.20647
2.39613
1.32613
0.415747
-0.459932
-0.780611
-1.02124
-1.01156
-0.97672
-0.897149
-0.812805
-0.618529
-0.429389
-0.350249
-0.27586
-0.306154
-0.316177
-0.190837
-0.0856335
-0.0959276
-0.12138
-0.186719
-0.237195
-0.232941
-0.213552
-0.168959
-0.104276
-0.0044344
0.0453394
0.0300679
-0.0251357
-0.130339
-0.16552
-0.135679
-0.100814
-0.0608823
-0.00128959
0.0635294
0.0830091
0.0727828
0.032353
-0.0182805
0.00613123
0.0606109
0.110339
0.155294
0.200113
0.239796
0.259412
0.279005
0.268824
0.283643
0.238122
0.232511
0.312195
0.381946
0.341425
0.300905
0.300724
0.300724
0.290724
0.28052
0.264977
0.234299
0.17362
0.112986
0.0624434
0.0371719
0.0722172
0.0721946
0.0119457
-0.0282579
-0.0533032
-0.0683484
-0.0834163
-0.0980996
-0.107376
-0.0820815
-0.0323077
-0.0577376
-0.128371
-0.144412
-0.125882
-0.10224
-0.0783937
-0.0793439
-0.0950905
-0.135679
-0.181131
-0.176493
-0.156765
-0.131787
-0.106765
-0.0971267
-0.0927602
-0.0784163
-0.0640724
-0.0446154
-0.0254299
-0.0520362
-0.0791855
-0.0967647
-0.0988688
-0.0196833
0.0263349
-0.0454072
-0.0932579
-0.091629
-0.0873529
-0.0761991
-0.0649321
-0.038914
-0.0187104
-0.0206561
-0.0300226
-0.0414706
-0.0515385
-0.0595475
-0.0731901
-0.086448
-0.101629
-0.132941
-0.123235
-0.0936878
-0.12181
-0.173507
-0.195566
-0.208009
-0.190339
-0.162738
-0.140814
-0.119548
-0.0840724
-0.049095
-0.104208
-0.174253
-0.19405
-0.213552
-0.167647
-0.121606
-0.125747
-0.130158
-0.14
-0.150068
-0.135113
-0.120068
-0.10491
-0.0895023
-0.103801
-0.118009
-0.112308
-0.106833
-0.111629
-0.11138
-0.0909502
-0.080362
-0.104638
-0.118756
-0.132738
-0.141674
-0.135588
-0.114683
-0.0838688
-0.0684389
-0.0631674
-0.0625566
-0.0716516
-0.0809502
-0.0904977
-0.095181
-0.0949774
-0.0799321
-0.0599774
-0.0551131
-0.0604299
-0.0660634
-0.0670136
-0.0682579
-0.0596154
-0.065724
-0.0717195
-0.0628733
-0.0540498
-0.045181
-0.0362444
-0.0422172
-0.0480769
-0.0538009
-0.0542308
-0.0242534
0.0106787
0.0402489
0.0748869
0.114615
0.12457
0.0847511
0.0449774
0.010181
-0.0197738
-0.0449095
-0.0600226
-0.0550453
-0.0549321
-0.0646833
-0.0693891
-0.0740724
-0.0786652
-0.0831901
-0.0777149
-0.0622172
-0.07681
-0.101493
-0.096267
-0.081086
-0.0605882
-0.0399095
-0.204548
-0.389412
-0.524344
-0.654344
-0.524367
-0.369412
0.105611
0.615679
1.34568
2.03563
2.51559
2.92559
3.07568
3.02581
2.42597
1.65613
0.521199
-0.358597
-0.79319
-1.03292
-0.982896
-0.907986
-0.808145
-0.688167
-0.548009
-0.427851
-0.31767
-0.257217
-0.231516
-0.226063
-0.235928
-0.235905
-0.225995
-0.20586
-0.180475
-0.175045
-0.184593
-0.169231
-0.143959
-0.128643
-0.113281
-0.107828
-0.107285
-0.10681
-0.0964027
-0.0859729
-0.0755204
-0.0600679
-0.0445928
-0.0290272
-0.0134163
-0.00291855
0.00751131
0.0178507
0.0330995
0.0633258
0.0986199
0.139072
0.169638
0.175294
0.18095
0.186561
0.202104
0.232579
0.258032
0.283484
0.294005
0.299615
0.310249
0.32086
0.33138
0.346833
0.34733
0.327919
0.303484
0.279027
0.244638
0.210317
0.180995
0.146674
0.107353
0.0680317
0.0286652
-0.010724
-0.025
-0.0141629
-0.0432353
-0.0421267
-0.0657692
-0.0893439
-0.0980996
-0.107036
-0.111131
-0.115407
-0.114864
-0.114412
-0.118959
-0.123688
-0.123643
-0.123643
-0.128665
-0.128891
-0.109276
-0.0945249
-0.0995928
-0.10457
-0.0995023
-0.0893213
-0.0789819
-0.0735068
-0.0778959
-0.0830317
-0.0790045
-0.0755204
-0.0775566
-0.0789819
-0.0847059
-0.0833484
-0.0697285
-0.0578281
-0.0478281
-0.0405883
-0.0365385
-0.0269457
-0.0121945
0.000678763
0.0108371
0.00158371
-0.0118552
-0.0129864
-0.0173529
-0.0242534
-0.0340724
-0.0618778
-0.0911538
-0.0864706
-0.0870814
-0.127896
-0.159366
-0.166041
-0.168597
-0.162149
-0.154231
-0.154864
-0.16052
-0.171199
-0.17724
-0.163756
-0.150769
-0.143258
-0.136335
-0.139887
-0.143597
-0.142489
-0.141471
-0.140475
-0.139434
-0.143348
-0.14724
-0.146131
-0.145045
-0.143959
-0.142851
-0.136742
-0.125633
-0.11448
-0.10819
-0.111742
-0.120136
-0.133439
-0.131765
-0.130136
-0.123552
-0.116923
-0.115158
-0.113348
-0.111516
-0.109728
-0.108009
-0.106357
-0.0897737
-0.0732353
-0.0817194
-0.0902715
-0.0890045
-0.0879638
-0.0921493
-0.0965611
-0.0861991
-0.0760181
-0.0810859
-0.0866516
-0.082647
-0.0787104
-0.0748869
-0.0662443
-0.0575565
-0.0636651
-0.0794796
-0.0852036
-0.0859502
-0.0868325
-0.087828
-0.0788461
-0.0647963
-0.0604977
-0.0559276
-0.0160859
0.0238236
0.0286426
0.0284842
0.0684163
0.0984616
0.0737105
0.0491856
0.0147964
-0.0195022
-0.0386878
-0.0578959
-0.0671719
-0.0764479
-0.0757239
-0.075
-0.0892307
-0.103597
-0.107783
-0.107624
-0.0927375
-0.0828054
-0.0777375
-0.0721719
-0.0861765
-0.0751584
-0.0441403
-0.128235
-0.312534
-0.48233
-0.642466
-0.597511
-0.437466
0.0377149
0.647964
1.36812
2.12821
2.57326
2.94326
3.12842
3.28371
2.38398
1.34923
0.444525
-0.450113
-0.774638
-1.0841
-1.0586
-1.02821
-0.942986
-0.847896
-0.722828
-0.59267
-0.447398
-0.327081
-0.286765
-0.246584
-0.226561
-0.211561
-0.211538
-0.211403
-0.201199
-0.186041
-0.165905
-0.150634
-0.145226
-0.134864
-0.124548
-0.119321
-0.119163
-0.118959
-0.113756
-0.103597
-0.0935068
-0.0784163
-0.0633258
-0.0582353
-0.0581448
-0.043009
-0.0228733
-0.00287326
0.016991
0.0417421
0.0665838
0.0867874
0.107127
0.122308
0.142376
0.167398
0.192398
0.207398
0.222602
0.233122
0.253552
0.323688
0.378733
0.353801
0.33871
0.363439
0.363009
0.287421
0.222217
0.177421
0.157398
0.177172
0.191878
0.191516
0.171177
0.115882
0.0556109
-0.00961536
-0.0294796
-0.0090045
-0.0135068
-0.0380543
-0.0626018
-0.0870588
-0.12129
-0.15543
-0.179751
-0.199276
-0.183959
-0.158778
-0.153665
-0.15862
-0.163575
-0.168643
-0.134027
-0.174185
-0.0287556
0.0273304
0.0191629
0.00119913
-0.101855
-0.196176
-0.20724
-0.221267
-0.208507
-0.173891
-0.0777602
-0.0182353
-0.0700905
-0.121018
-0.166991
-0.188529
-0.166719
-0.14414
-0.135769
-0.124796
-0.121674
-0.118009
-0.118937
-0.119412
-0.120204
-0.131357
-0.152466
-0.165113
-0.164231
-0.153213
-0.137081
-0.120724
-0.109027
-0.121674
-0.14371
-0.150249
-0.156244
-0.131923
-0.0974435
-0.0930317
-0.0986652
-0.124389
-0.145339
-0.141561
-0.137919
-0.169344
-0.200634
-0.191742
-0.177466
-0.147738
-0.123167
-0.128891
-0.134819
-0.135905
-0.136833
-0.137557
-0.138507
-0.134706
-0.130747
-0.141674
-0.143032
-0.114751
-0.0866064
-0.0635068
-0.084819
-0.150656
-0.166493
-0.142443
-0.128756
-0.120249
-0.116471
-0.122421
-0.173167
-0.233869
-0.204819
-0.145611
-0.130543
-0.130068
-0.09
-0.0448416
0.00099548
0.0474661
-0.0407692
-0.144389
-0.098733
-0.0531901
-0.0373303
-0.0212217
-0.0149547
-0.00875565
-0.00785068
-0.0124208
-0.0525113
-0.0876244
-0.0875113
-0.0774435
-0.0375566
-0.0278054
-0.103122
-0.148394
-0.14362
-0.134253
-0.120204
-0.110815
-0.106086
-0.101516
-0.102217
-0.0783937
-0.0248869
-0.0908598
-0.226697
-0.371652
-0.521222
-0.55595
-0.531018
-0.247014
0.121312
0.78457
1.52287
2.13156
2.71559
2.90014
3.04505
2.8848
3.05446
1.4441
0.208597
-0.346991
-0.867421
-0.997647
-1.10267
-1.03751
-0.973054
-0.869548
-0.730701
-0.451244
-0.251787
-0.237443
-0.223303
-0.229005
-0.224887
-0.190611
-0.171403
-0.192285
-0.197986
-0.163597
-0.164253
-0.194955
-0.190498
-0.155837
-0.131131
-0.111471
-0.0621041
0.00703617
0.0512217
0.0853393
0.0689593
0.0324208
-0.0436425
-0.134299
-0.0946154
-0.029819
0.0146833
0.0541403
0.0287783
-0.00683257
0.0569683
0.126063
0.0959276
0.070724
0.18
0.279072
0.328167
0.357262
0.251357
0.170339
0.189005
0.232896
0.327262
0.38638
0.350158
0.314072
0.2831
0.2869
0.35043
0.334027
0.212828
0.176787
0.240882
0.205543
0.0806335
-0.0593891
-0.199367
-0.179412
-0.0646833
-0.0597511
-0.109683
-0.149751
-0.184842
-0.189774
-0.179593
-0.134457
-0.0841855
-0.0986425
-0.12767
-0.120973
-0.103914
-0.0966063
-0.10543
-0.151516
-0.20086
-0.143756
-0.104389
-0.177443
-0.241471
-0.216041
-0.174796
-0.0874435
-0.0300679
-0.111991
-0.181131
-0.228009
-0.255656
-0.229231
-0.172828
-0.0712217
-0.0141629
-0.00622171
-0.0207692
-0.0774208
-0.0964706
-0.0879864
-0.0787557
-0.0640498
-0.0654299
-0.076267
-0.0542082
-0.0126018
-0.0335068
-0.0868552
-0.141018
-0.200769
-0.0651584
0.120769
0.0270588
-0.120973
-0.137557
-0.133235
-0.0990271
-0.129977
-0.0761765
-0.0923756
-0.0583032
-0.0242081
-0.0754072
-0.116629
-0.112624
-0.108778
-0.120294
-0.131742
-0.137919
-0.134208
-0.0956787
-0.0667647
-0.0727149
-0.0535294
0.0253394
0.0292986
-0.0667647
-0.143643
-0.191312
-0.193552
-0.135272
-0.131652
-0.172828
-0.119457
0.00864254
-0.0573982
-0.222715
-0.203122
-0.0986199
-0.0536878
-0.0282806
0.00251131
0.028733
0.0349548
0.0408597
-0.023552
-0.10276
-0.0311765
0.055905
0.0329864
0.00504525
0.00708145
0.00914027
0.0264253
0.0434842
0.0247738
-0.00386878
-0.0868778
-0.135204
-0.0643665
-0.0292081
-0.104661
-0.159955
-0.159661
-0.144276
-0.0990724
-0.0790724
-0.109253
-0.129367
-0.119412
-0.154796
-0.255339
-0.38543
-0.545226
-0.615
-0.629819
-0.370068
0.0543439
0.728733
1.51814
2.1331
2.68339
2.90828
3.03278
2.85729
2.61206
1.52758
0.323552
-0.35586
-0.990656
-0.965769
-0.911018
-0.941063
-0.960837
-0.775204
-0.599412
-0.488688
-0.387919
-0.35224
-0.326606
-0.305928
-0.265634
-0.185769
-0.135747
-0.175543
-0.205181
-0.204525
-0.184208
-0.134367
-0.109412
-0.124434
-0.129186
-0.103348
-0.112738
-0.152647
-0.152738
-0.112919
-0.0630543
-0.0133484
-0.0081448
-0.0328507
-0.0175113
0.0278054
0.0276471
0.0121493
0.0466516
0.0961086
0.0854072
0.0596154
0.108846
0.168167
0.13276
0.172602
0.187534
0.292738
0.258507
0.229412
0.334955
0.420181
0.365181
0.315136
0.285317
0.280475
0.355407
0.380611
0.256471
0.167014
0.156855
0.151629
0.166855
0.162217
0.127715
0.0644796
-0.0375792
-0.044095
0.0497059
0.0523756
-0.0265837
-0.0778281
-0.116471
-0.153529
-0.188507
-0.200249
-0.198416
-0.177376
-0.139887
-0.197986
-0.276719
-0.241358
-0.178416
-0.163914
-0.163891
-0.174525
-0.186018
-0.198326
-0.206131
-0.19914
-0.192421
-0.211199
-0.215385
-0.0948643
-0.00952492
-0.12457
-0.220113
-0.22129
-0.197896
-0.0997285
-0.0355204
-0.0745249
-0.120272
-0.167217
-0.181652
-0.138869
-0.0899095
-0.0352489
-0.0266516
-0.0794117
-0.107059
-0.100136
-0.0862443
-0.0702488
-0.0744117
-0.0985294
-0.10776
-0.102059
-0.0855204
-0.0682353
-0.100588
-0.147624
-0.169615
-0.186584
-0.108507
-0.015362
-0.0670362
-0.133597
-0.155385
-0.182353
-0.129412
-0.0764027
-0.153167
-0.214887
-0.136765
-0.078552
-0.120045
-0.151493
-0.128054
-0.104774
-0.0815159
-0.0777376
-0.133394
-0.168869
-0.144276
-0.104321
-0.0488688
-0.0133032
-0.00771494
0.00782804
0.0334615
0.0444118
0.0355656
0.0218552
0.00332578
-0.0202941
-0.0436425
-0.08181
-0.124434
-0.147308
-0.160385
-0.163032
-0.155294
-0.142692
-0.130271
-0.1181
-0.106109
-0.109005
-0.121878
-0.115272
-0.124095
-0.0880543
-0.0819231
-0.0654751
-0.0689367
-0.317511
-0.551358
-0.665701
-0.730249
-0.54457
-0.264027
0.311041
0.925905
1.65568
2.27059
2.66014
2.97484
3.16423
2.85914
1.86459
0.869842
-0.120249
-0.740385
-1.01543
-1.09534
-1.02518
-0.890204
-0.710339
-0.585407
-0.495407
-0.415385
-0.335339
-0.265362
-0.19043
-0.185068
-0.199344
-0.218982
-0.23905
-0.214253
-0.179412
-0.149118
-0.118552
-0.163235
-0.212986
-0.15267
-0.0924208
-0.127149
-0.156878
-0.0965837
-0.0411765
-0.0458371
-0.0507692
-0.0608823
-0.0559728
0.00402716
0.0492082
0.0445023
0.039457
0.0391177
0.049095
0.0793665
0.109163
0.133439
0.152692
0.161946
0.186561
0.226606
0.251403
0.26086
0.270091
0.289163
0.293778
0.293778
0.308303
0.327557
0.302421
0.262715
0.242805
0.227738
0.262805
0.308032
0.243439
0.168982
0.134412
0.0947511
0.030181
-0.0343891
-0.0589367
-0.0783032
-0.0325113
-0.00171947
-0.0809729
-0.149457
-0.127036
-0.104163
-0.11595
-0.133145
-0.155814
-0.170475
-0.152217
-0.142489
-0.141199
-0.152398
-0.190837
-0.215045
-0.204412
-0.180498
-0.137896
-0.120091
-0.128054
-0.119412
-0.0948416
-0.115588
-0.166652
-0.187692
-0.194072
-0.19733
-0.192398
-0.158733
-0.120724
-0.0917647
-0.0665158
-0.068733
-0.0782353
-0.12948
-0.0630091
-0.0848643
0.0145022
-0.0505204
-0.1069
-0.102579
-0.0975566
-0.05181
-0.0141177
-0.0380317
-0.0622625
-0.0410407
-0.0342081
-0.0666063
-0.0938009
-0.0952489
-0.0969231
-0.1031
-0.0989593
-0.0744797
-0.0699095
-0.105339
-0.10595
-0.0767647
-0.0626244
-0.0635294
-0.0596154
-0.0457692
-0.0819683
-0.153371
-0.164842
-0.141267
-0.107919
-0.0747511
-0.106312
-0.157715
-0.134389
-0.0910407
-0.0823756
-0.0834842
-0.124186
-0.169661
-0.100226
-0.0258145
-0.0763348
-0.121629
-0.0465158
0.0236652
0.00877829
-0.00576922
-0.00486424
-0.00355203
0.00321268
0.0151357
0.0470814
0.0591176
-0.00366516
-0.0314253
0.000791855
0.00296381
-0.0498869
-0.0827828
-0.0757918
-0.068914
-0.0721267
-0.0802715
-0.0933031
-0.116584
-0.145158
-0.158937
-0.152941
-0.11233
-0.0620136
-0.0666516
-0.096267
-0.080724
-0.0451583
-0.205113
-0.415385
-0.530385
-0.625362
-0.560747
-0.481199
-0.0814479
0.333371
1.08837
1.83317
2.37758
2.87706
3.05674
3.10156
2.38665
1.58181
0.427014
-0.522715
-0.872443
-1.08722
-0.982014
-0.906697
-0.896335
-0.826222
-0.66129
-0.496222
-0.330995
-0.250928
-0.275973
-0.280769
-0.265317
-0.249661
-0.238937
-0.223643
-0.203235
-0.157919
-0.102149
-0.106765
-0.151765
-0.1969
-0.242081
-0.186968
-0.106742
-0.1169
-0.147104
-0.146765
-0.136154
-0.0555882
-0.130362
-0.000610858
-0.0308597
-0.0308824
-0.030905
-0.0460181
-0.0609955
-0.0409276
-0.0158145
0.019457
0.0646833
0.134751
0.179819
0.144977
0.140045
0.214751
0.264434
0.279118
0.28905
0.289231
0.309027
0.363439
0.353326
0.273688
0.228824
0.198733
0.193507
0.208122
0.208077
0.193394
0.153507
0.0934163
0.108597
0.148937
0.093914
0.00366515
-0.0615159
-0.121697
-0.131968
-0.127195
-0.137149
-0.157014
-0.157217
-0.152489
-0.127466
-0.10233
-0.117353
-0.132489
-0.127602
-0.12267
-0.102715
-0.0826697
-0.0925566
-0.10276
-0.0933937
-0.0839366
-0.0642534
-0.0644796
-0.0995927
-0.124796
-0.115158
-0.0897059
-0.0533936
-0.0522624
-0.0916289
-0.076561
-0.00235289
-0.00970585
-0.0840045
-0.119977
-0.147262
-0.0936651
-0.0035294
-0.0214932
-0.0919457
-0.130023
-0.159548
-0.131765
-0.0837331
-0.0737104
-0.0819231
-0.066629
-0.0423982
-0.0929412
-0.158575
-0.129661
-0.101131
-0.137624
-0.168801
-0.0995475
-0.0348416
-0.0600226
-0.0904751
-0.141222
-0.1719
-0.137443
-0.107873
-0.123167
-0.138281
-0.133235
-0.118507
-0.094276
-0.085181
-0.106222
-0.0918778
-0.0270362
-0.0372398
-0.132647
-0.183507
-0.204615
-0.155181
-0.0509502
-0.051086
-0.106403
-0.102059
-0.057828
-0.083371
-0.128982
-0.139909
-0.145882
-0.121538
-0.0869683
-0.0821945
-0.0875113
-0.103371
-0.0943891
-0.1
-0.0752941
-0.0954525
-0.115588
-0.0608371
-0.0260181
-0.10595
-0.165928
-0.106267
-0.0567194
-0.0671945
-0.0776697
-0.0830995
-0.0884389
-0.0939593
-0.094276
-0.0797511
-0.0450679
0.0198869
0.0547512
0.0393665
0.0386878
0.0627376
0.0617874
0.0309503
0.0202715
0.0295928
0.0136426
-0.0223982
-0.0480543
-0.0684615
-0.079095
-0.0799095
-0.0857466
-0.0965611
-0.127172
-0.157602
-0.113009
-0.048552
-0.0842986
-0.130091
-0.110724
-0.086267
-0.0718779
-0.0676018
-0.233371
-0.38914
-0.509842
-0.610498
-0.601244
-0.50681
-0.0969231
0.412873
1.18224
1.88638
2.44534
2.84989
2.9752
2.92045
2.57538
1.83493
0.609118
-0.251493
-0.74181
-0.977082
-0.997421
-0.977964
-0.923529
-0.828891
-0.719344
-0.564977
-0.395633
-0.301244
-0.23181
-0.251923
-0.301719
-0.24681
-0.167149
-0.167715
-0.188416
-0.198959
-0.209434
-0.20509
-0.185747
-0.121154
-0.0564479
-0.0716742
-0.0869683
-0.117489
-0.147986
-0.148167
-0.133213
-0.0334841
0.0308145
-0.0102715
-0.0411765
-0.0516289
-0.0419683
0.0326244
0.0572851
-0.00780542
-0.00791854
0.0818552
0.116584
0.0812444
0.0756561
0.0999548
0.164593
0.249389
0.278937
0.263394
0.242896
0.227579
0.232149
0.256584
0.261176
0.260882
0.260294
0.25948
0.238937
0.21362
0.208281
0.213009
0.192896
0.21776
0.132443
0.106991
0.0864932
0.0661539
0.0311765
-0.0036199
-0.00348415
-0.0033484
-0.0130769
-0.0327828
-0.0776244
-0.0978054
-0.0383032
-0.0138914
-0.074638
-0.105068
-0.0702036
-0.0457466
-0.0366063
-0.0375792
-0.0636878
-0.0849774
-0.101403
-0.0823529
-0.0277828
-0.0083484
-0.0240724
-0.0445927
-0.0649321
-0.0652941
-0.0456787
-0.0217421
-0.00346153
-0.015724
-0.0384841
-0.0663575
-0.0937557
-0.0790724
-0.0519683
-0.0263575
0.00237557
-0.0565158
-0.118303
-0.103982
-0.089095
-0.029819
0.0261086
0.00615383
-0.0191855
-0.0285294
-0.031991
0.0161539
0.03181
-0.0797964
-0.141674
-0.0886651
-0.0693439
-0.128462
-0.176629
-0.209186
-0.214186
-0.172014
-0.144231
-0.140792
-0.137624
-0.134887
-0.117805
-0.0913801
-0.10552
-0.155045
-0.164502
-0.153824
-0.128258
-0.0978054
-0.0874887
-0.0923756
-0.132421
-0.177511
-0.132195
-0.0666742
-0.0564706
-0.0513575
-0.076086
-0.115679
-0.124955
-0.134321
-0.154253
-0.174027
-0.173054
-0.162014
-0.0813575
-0.0208823
-0.0904299
-0.129751
-0.0887557
-0.0576697
-0.0716968
-0.0859276
-0.080362
-0.0697059
-0.0488688
-0.0381222
-0.0524887
-0.0619005
-0.0613801
-0.0611312
-0.0661539
-0.0911991
-0.131267
-0.131629
-0.0970362
-0.0678959
-0.043914
-0.0449321
-0.0609728
-0.0671267
-0.0683937
-0.0696606
-0.0759728
-0.0824434
-0.0838688
-0.0200679
0.058914
0.0633258
0.0629186
-0.0327602
-0.118529
-0.0390498
0.0307692
0.0509276
0.0711991
0.0814253
0.0814706
0.0212896
-0.0288235
-0.0336425
-0.04319
-0.0676244
-0.0822398
-0.0618326
-0.0518778
-0.0670136
-0.07681
-0.0762896
-0.0656561
-0.03
-0.0397738
-0.0899321
-0.114887
-0.119638
-0.104412
-0.0691629
-0.129299
-0.249842
-0.430407
-0.640996
-0.641357
-0.56638
-0.236244
0.158869
0.833801
1.56369
2.13391
2.68932
2.8443
2.97903
2.84398
2.66903
1.44882
0.278597
-0.306493
-0.836878
-0.917557
-0.982919
-0.922851
-0.847715
-0.712557
-0.577308
-0.446946
-0.341697
-0.291742
-0.256719
-0.246516
-0.236222
-0.235837
-0.220724
-0.185905
-0.160973
-0.150995
-0.130995
-0.10086
-0.110656
-0.155385
-0.175045
-0.169774
-0.124502
-0.0642308
-0.099095
-0.174095
-0.154095
-0.104118
-0.0689366
-0.0385068
-0.0232579
-0.00823529
0.00176471
0.0119005
0.037172
0.0674887
0.0529186
0.0383258
0.0636426
0.0889367
0.0991629
0.114389
0.154683
0.18991
0.19
0.200113
0.245226
0.280294
0.29543
0.305769
0.286357
0.271833
0.262127
0.252511
0.252964
0.262986
0.287647
0.257692
0.163077
0.103869
0.0700679
0.0560181
0.0567873
0.0471493
0.0271493
-0.0224661
-0.0867421
-0.110928
-0.124932
-0.103665
-0.0673982
-0.0617421
-0.0714479
-0.111131
-0.150769
-0.130385
-0.15509
-0.0548642
-0.0145249
-0.0640045
-0.113643
-0.148529
-0.173371
-0.102919
-0.0424887
-0.0722624
-0.0921041
-0.0669231
-0.0516742
-0.0363122
-0.0214253
-0.0169005
-0.0134615
-0.0208371
-0.0532579
-0.115385
-0.136041
-0.0999548
-0.0809729
-0.0888235
-0.0889593
-0.0765159
-0.0535747
-0.0201584
0.00762444
0.029638
0.00128957
-0.0572399
0.00158369
0.103032
0.0541855
-0.0448416
-0.0633937
-0.0715837
-0.0793213
-0.0814932
-0.0729864
-0.058914
-0.0845249
-0.115
-0.110543
-0.101063
-0.0315385
0.0281222
-0.036991
-0.091991
-0.051991
-0.0164706
-0.0202489
-0.0282127
-0.0654751
-0.08819
-0.0963349
-0.106968
-0.100091
-0.0968552
-0.107308
-0.104389
-0.0828733
-0.0919683
-0.135769
-0.134864
-0.0943665
-0.0945928
-0.136403
-0.157014
-0.171719
-0.151538
-0.106606
-0.086991
-0.0826923
-0.0888009
-0.100453
-0.0826923
-0.0553168
-0.0833032
-0.121267
-0.108778
-0.086086
-0.0984616
-0.12586
-0.0983484
-0.0710407
-0.0939819
-0.107036
-0.0100905
0.0671041
-0.0203168
-0.092896
-0.116018
-0.124729
-0.0639367
-0.0232579
-0.0275566
-0.0316969
-0.0357014
-0.0401358
-0.0400679
-0.0601584
-0.110362
-0.11052
-0.0355656
-0.00554301
-0.0155656
-0.0360407
-0.0669457
-0.0629186
-0.0291176
-0.0447511
-0.100136
-0.0758371
-0.0218778
-0.02319
-0.0547059
-0.0609955
-0.0670136
-0.0780091
-0.0891629
-0.0905204
-0.0819231
-0.0381674
-0.0791855
-0.02
-0.0508145
-0.0418099
-0.0327149
-0.0284842
-0.019276
0.0150226
0.0445928
0.0144118
-0.000656106
0.0444118
0.0745701
0.0798643
0.0750453
0.0404751
0.015543
0.0155882
0.0108145
-0.00355202
-0.027828
-0.0722624
-0.0767873
-0.0413801
-0.0312443
-0.0513122
-0.0714932
-0.0916968
-0.08681
-0.0618778
-0.0568552
-0.0667873
-0.0815611
-0.0962217
-0.0962896
-0.0865611
-0.181357
-0.305905
-0.495566
-0.695317
-0.615226
-0.515226
0.0797059
0.68948
1.45914
2.19889
2.5788
2.93885
3.1091
3.07439
2.04955
1.04986
0.11552
-0.628959
-0.868824
-1.03876
-1.02869
-0.988416
-0.892851
-0.797398
-0.697127
-0.561787
-0.391425
-0.271199
-0.191018
-0.185724
-0.24043
-0.250045
-0.219525
-0.204118
-0.203937
-0.173801
-0.128597
-0.113281
-0.112896
-0.157149
-0.216109
-0.210475
-0.185317
-0.115543
-0.0408371
-0.0306561
-0.0352036
-0.0797737
-0.129321
-0.0838009
-0.0383484
-0.0280317
-0.0178959
-0.00805429
0.00196834
-0.00739818
-0.00662896
0.0540045
0.109344
0.144299
0.169321
0.144593
0.129842
0.14991
0.175113
0.200588
0.221086
0.241471
0.241742
0.2069
0.221968
0.291946
0.316833
0.296719
0.262014
0.222285
0.22776
0.262986
0.213122
0.123281
0.108643
0.12414
0.0797285
0.0104073
-0.0240498
-0.0535747
-0.0628959
-0.0720588
-0.0311312
-0.0752489
-0.0296606
-0.0842534
-0.0638461
-0.0484615
-0.113167
-0.173032
-0.168145
-0.158145
-0.102783
-0.0574887
-0.0225113
-0.00264705
-0.0478507
-0.088009
-0.103054
-0.10319
-0.0684389
-0.0337783
-0.00920814
-0.0197511
-0.085362
-0.106471
-0.0882127
-0.0808145
-0.0892987
-0.0972172
-0.0945475
-0.0691629
-0.0309955
-0.0343665
-0.0593439
-0.0623529
-0.0585747
-0.0489367
-0.0345023
-0.0499548
-0.0750453
-0.0442986
-0.00683258
-0.020362
-0.044638
-0.0789141
-0.108077
-0.0719005
-0.0348417
-0.0616064
-0.0821494
-0.0363123
-0.000248902
-0.0544118
-0.0957466
-0.109819
-0.127398
-0.128416
-0.121063
-0.100272
-0.105023
-0.170091
-0.211222
-0.203462
-0.196719
-0.196357
-0.164253
-0.100634
-0.0918779
-0.132986
-0.149253
-0.145837
-0.15319
-0.17138
-0.160158
-0.129276
-0.108462
-0.0926697
-0.131742
-0.190724
-0.189842
-0.169163
-0.123507
-0.0676923
-0.0765385
-0.0952715
-0.104231
-0.118348
-0.122466
-0.126493
-0.130362
-0.13405
-0.112534
-0.0911539
-0.0802037
-0.0692308
-0.0479186
-0.0365837
-0.0804751
-0.114502
-0.0986426
-0.0727602
-0.0417873
-0.0361539
-0.0760634
-0.0964027
-0.081991
-0.0725566
-0.073258
-0.0744118
-0.0759277
-0.0825792
-0.0993665
-0.0959729
-0.0677828
-0.0544118
-0.0563575
-0.0583484
-0.055362
-0.0476245
-0.0400453
-0.0722625
-0.119344
-0.0962444
-0.0479864
-0.0445702
-0.0508371
-0.0569231
-0.0580091
-0.034095
-0.0201358
-0.0159955
-0.0114706
0.0134615
0.0384841
0.0532805
0.068009
0.067828
0.0625339
0.0170362
-0.0132353
-0.0181901
-0.0230996
-0.0177602
-0.0276471
-0.0826471
-0.11767
-0.137692
-0.127738
-0.0727828
-0.0480996
-0.0636652
-0.084095
-0.104344
-0.109638
-0.100023
-0.0855204
-0.0661086
-0.166538
-0.32681
-0.46224
-0.597828
-0.528303
-0.398597
0.0861086
0.635747
1.40036
2.18991
2.56441
2.90891
3.05848
3.17317
2.31781
1.45742
0.532195
-0.3281
-0.70862
-1.019
-0.979027
-0.934095
-0.88948
-0.824751
-0.699774
-0.564774
-0.389796
-0.269932
-0.245113
-0.23043
-0.250882
-0.261131
-0.241312
-0.196674
-0.132104
-0.112195
-0.151946
-0.151765
-0.126742
-0.106968
-0.0873529
-0.0824661
-0.0924208
-0.112376
-0.13733
-0.10724
-0.047172
-0.0372398
-0.0423756
-0.0223982
0.00766968
0.00257917
-0.0126471
-0.0128281
0.00214931
0.0274208
0.0576923
0.13767
0.207376
0.156968
0.1169
0.182262
0.232579
0.252715
0.272692
0.272489
0.27224
0.277059
0.292104
0.322376
0.342308
0.331946
0.306991
0.267421
0.24776
0.262919
0.272986
0.2731
0.223167
0.138145
0.0980996
0.0830996
0.0733937
0.0688462
0.0191855
-0.0455656
-0.0752715
-0.0899095
-0.0944344
-0.0938462
-0.0582579
-0.0178733
-0.0730317
-0.138462
-0.123869
-0.144344
-0.104932
-0.115588
-0.126403
-0.137036
-0.137353
-0.137511
-0.102398
-0.0772398
-0.0772624
-0.0773756
-0.0775339
-0.0775792
-0.0824434
-0.0873303
-0.0820136
-0.0774434
-0.0686199
-0.0552941
-0.037466
-0.0443439
-0.100679
-0.125
-0.126923
-0.115
-0.0839819
-0.0503394
-0.014457
-0.0128733
-0.036086
-0.0492308
-0.0629864
-0.0386878
0.0037104
-0.00893667
-0.0452489
-0.0474661
-0.0401358
-0.102828
-0.172172
-0.195294
-0.213529
-0.177557
-0.13457
-0.0810181
-0.0324887
-0.114412
-0.186968
-0.14509
-0.108529
-0.137149
-0.156063
-0.150543
-0.135181
-0.0898416
-0.069276
-0.133439
-0.172715
-0.177195
-0.181742
-0.17138
-0.146063
-0.105656
-0.080181
-0.0847285
-0.0944344
-0.104163
-0.108801
-0.103394
-0.112873
-0.14724
-0.141719
-0.116222
-0.0754751
-0.0344344
-0.0984389
-0.192647
-0.181878
-0.141063
-0.110181
-0.0842308
-0.0682805
-0.0524208
-0.0866968
-0.136063
-0.0604525
0.0100905
-0.0695928
-0.144434
-0.15448
-0.159728
-0.115045
-0.0751131
-0.0598869
-0.0450226
-0.0457918
-0.0567873
-0.0978959
-0.118801
-0.0894118
-0.0651584
-0.0511086
-0.0421946
-0.0533258
-0.0640724
-0.0644796
-0.0247511
0.050181
0.0801131
0.0699548
0.0799321
0.109864
0.114887
0.0947964
0.0196154
-0.0705656
-0.0954977
-0.100249
-0.0847737
-0.0592534
-0.0589819
-0.0688462
-0.0986878
-0.128348
-0.107715
-0.132217
-0.067104
-0.0622172
-0.087466
-0.112421
-0.106833
-0.0961538
-0.055724
-0.0354751
-0.120339
-0.235362
-0.440475
-0.59043
-0.595181
-0.525023
-0.29
0.0897285
0.699321
1.36412
2.09923
2.5995
2.83984
2.98509
3.03534
2.36048
1.11041
0.164977
-0.590701
-0.916086
-1.01609
-0.995588
-0.914729
-0.784389
-0.639502
-0.52457
-0.419525
-0.334457
-0.249389
-0.214253
-0.184027
-0.21362
-0.253145
-0.222941
-0.188032
-0.193348
-0.198665
-0.158801
-0.118733
-0.123416
-0.122986
-0.0676244
-0.0323303
-0.0570814
-0.0818552
-0.106629
-0.116471
-0.066448
-0.0313348
-0.00606335
-0.000746604
-0.0403846
-0.0352489
0.0345023
0.074095
0.0787104
0.0837104
0.0840272
0.104593
0.140362
0.175792
0.210882
0.24629
0.286968
0.297217
0.302104
0.327014
0.356923
0.311968
0.247149
0.277398
0.332715
0.343009
0.353281
0.298462
0.22862
0.208959
0.189321
0.18957
0.184796
0.095
0.0202715
0.0256787
0.0211991
-0.0330769
-0.0773303
-0.0917421
-0.100995
-0.0799548
-0.0638462
-0.0527602
-0.0622398
-0.117353
-0.157647
-0.173032
-0.158462
-0.103869
-0.0741176
-0.0792534
-0.119367
-0.189525
-0.164796
-0.0752715
-0.0202262
0.0200226
-0.0297738
-0.129638
-0.15448
-0.154299
-0.139005
-0.118552
-0.0781901
-0.0382579
-0.0543665
-0.0812444
-0.0782127
-0.0900227
-0.0509503
-0.039638
-0.0546607
-0.0659729
-0.0883258
-0.108801
-0.058914
-0.020181
-0.0282805
-0.0327828
0.0284841
0.0583484
0.0128054
-0.05
-0.127579
-0.177873
-0.15914
-0.14
-0.110679
-0.0992308
-0.13095
-0.147489
-0.153869
-0.155339
-0.147014
-0.139389
-0.142579
-0.116357
-0.070543
-0.0749095
-0.104412
-0.12371
-0.137851
-0.137127
-0.126516
-0.120814
-0.119977
-0.119163
-0.113462
-0.107964
-0.112579
-0.127036
-0.136403
-0.105701
-0.075
-0.0895023
-0.0990045
-0.0531901
-0.0172625
-0.0714027
-0.115543
-0.154706
-0.183846
-0.142896
-0.11681
-0.110566
-0.099276
-0.0829186
-0.0766742
-0.0905656
-0.0943439
-0.0779864
-0.0669457
-0.0663349
-0.0657466
-0.0600453
-0.0643439
-0.0836652
-0.0983711
-0.108507
-0.0887104
-0.0489819
-0.0342082
-0.0394118
-0.0650453
-0.0960407
-0.0820136
-0.0529186
-0.0288914
-0.0049774
-0.0311086
-0.0671267
-0.0778281
-0.0932127
-0.0433032
0.00669681
0.0215158
0.0362443
0.0609954
0.0809276
0.0462217
0.0116742
-0.0228959
-0.0426697
0.00219454
0.0221493
-0.0274661
-0.06681
-0.0809276
-0.0902715
-0.0900679
-0.0850226
-0.0700226
-0.0849095
-0.149661
-0.169231
-0.14362
-0.123167
-0.107941
-0.0727828
-0.0327149
-0.147376
-0.346923
-0.501539
-0.641222
-0.556063
-0.396063
0.00404979
0.459253
1.19943
1.98962
2.46009
2.90075
3.07627
2.92656
2.44154
1.63138
0.566448
-0.433326
-0.787986
-1.0876
-1.04233
-0.992104
-0.936878
-0.861652
-0.736425
-0.596177
-0.435905
-0.31052
-0.274909
-0.249434
-0.254118
-0.248869
-0.223665
-0.198439
-0.163145
-0.157851
-0.177579
-0.177308
-0.157014
-0.141719
-0.126471
-0.111267
-0.101086
-0.0957918
-0.0903846
-0.0850905
-0.0848868
-0.069457
-0.0488461
-0.0434163
-0.0381674
-0.0231221
-0.00825788
-0.00325789
-0.00314477
0.0220362
0.0472851
0.0825792
0.117873
0.1181
0.118258
0.143416
0.17362
0.208869
0.23914
0.249412
0.264638
0.294774
0.319819
0.314774
0.309864
0.300204
0.290566
0.29586
0.30095
0.300815
0.280724
0.240747
0.220747
0.215769
0.180611
0.130204
0.0746606
0.0190045
-0.0113122
-0.0262896
-0.0461086
-0.0657692
-0.0902263
-0.114525
-0.118959
-0.118529
-0.113235
-0.102986
-0.0974887
-0.101878
-0.106493
-0.116312
-0.116244
-0.116244
-0.106222
-0.0961765
-0.106109
-0.116131
-0.116471
-0.116131
-0.0947059
-0.0678054
-0.045543
-0.0340045
-0.0533032
-0.0707692
-0.0818326
-0.0968552
-0.110656
-0.125294
-0.130385
-0.139367
-0.166109
-0.179525
-0.174593
-0.163507
-0.147217
-0.124276
-0.0964706
-0.0860859
-0.0946832
-0.0985746
-0.0925792
-0.0938687
-0.107081
-0.120498
-0.133937
-0.14224
-0.140294
-0.142828
-0.154774
-0.156063
-0.1619
-0.137715
-0.133462
-0.139185
-0.144887
-0.15052
-0.156109
-0.151606
-0.147104
-0.147715
-0.148394
-0.14405
-0.139683
-0.145294
-0.150905
-0.146425
-0.142172
-0.133009
-0.123846
-0.129706
-0.135543
-0.151335
-0.157217
-0.15319
-0.144185
-0.135226
-0.136403
-0.147738
-0.15405
-0.150339
-0.146561
-0.147715
-0.139004
-0.125362
-0.126606
-0.137715
-0.143643
-0.139412
-0.135158
-0.135814
-0.131199
-0.12138
-0.131493
-0.146471
-0.136312
-0.126041
-0.105611
-0.0850905
-0.0795249
-0.0738687
-0.04319
-0.0224434
-0.00658368
0.0141855
0.0347964
0.0452489
0.020543
-0.00425337
-0.024095
-0.0440045
-0.0639819
-0.079095
-0.0843439
-0.0896832
-0.0950904
-0.105452
-0.115747
-0.120995
-0.121244
-0.116561
-0.106968
-0.102376
-0.107783
-0.108145
-0.0984615
-0.0938461
-0.0892986
-0.259728
-0.475181
-0.560633
-0.626018
-0.43129
-0.206471
0.378326
0.973077
1.69272
2.38733
2.65699
2.91667
3.07143
3.03124
1.93104
0.875815
-0.0144344
-0.724729
-0.915068
-1.03536
-0.985543
-0.915724
-0.81095
-0.681222
-0.531471
-0.406697
-0.316946
-0.262262
-0.237647
-0.218032
-0.208371
-0.198756
-0.184231
-0.159706
-0.130204
-0.120566
-0.130882
-0.131199
-0.121516
-0.106878
-0.0922851
-0.0876697
-0.0830317
-0.0684163
-0.0538235
-0.0441855
-0.0345023
-0.0198643
-0.0302941
0.0242534
0.0488009
0.0534163
0.0580995
0.0677602
0.0773982
0.101968
0.126516
0.146063
0.170634
0.205272
0.239932
0.259525
0.279072
0.298643
0.31819
0.347692
0.362149
0.361584
0.361041
0.355475
0.34991
0.354367
0.348688
0.317873
0.297014
0.276131
0.240136
0.199027
0.163054
0.132217
0.116606
0.106176
0.0658371
0.0205882
-0.0144118
-0.044276
-0.0590498
-0.0736878
-0.0931901
-0.112647
-0.122262
-0.127014
-0.131855
-0.136787
-0.131833
-0.127014
-0.112285
-0.0975339
-0.102715
-0.107059
-0.110407
-0.113416
-0.101176
-0.0899321
-0.0897511
-0.0923755
-0.0979185
-0.106878
-0.114005
-0.122195
-0.14138
-0.151697
-0.147353
-0.14776
-0.158281
-0.169321
-0.181561
-0.180566
-0.151584
-0.139728
-0.135158
-0.124864
-0.113982
-0.108145
-0.102986
-0.0980317
-0.0880543
-0.0772624
-0.0697738
-0.0781222
-0.0970136
-0.105724
-0.119163
-0.122217
-0.124706
-0.131538
-0.137851
-0.133801
-0.129525
-0.135158
-0.140792
-0.131471
-0.122172
-0.122873
-0.123484
-0.128959
-0.134389
-0.139909
-0.145498
-0.141109
-0.136719
-0.13733
-0.137986
-0.133688
-0.12948
-0.135339
-0.141267
-0.137262
-0.128348
-0.119615
-0.115679
-0.121697
-0.127783
-0.128937
-0.130136
-0.131357
-0.132466
-0.128462
-0.124367
-0.130158
-0.135792
-0.131222
-0.126471
-0.126561
-0.116516
-0.106222
-0.085543
-0.0646154
-0.0685294
-0.0723303
-0.0760181
-0.0745927
-0.0379864
-0.00624432
0.0104978
0.0272172
0.043914
0.0554751
0.0368552
0.0181674
-0.0106108
-0.029457
-0.0433484
-0.0573982
-0.0816289
-0.0910407
-0.0956108
-0.105249
-0.114955
-0.114796
-0.104774
-0.099819
-0.0999095
-0.100045
-0.0952262
-0.0804072
-0.0655882
-0.0757013
-0.0957466
-0.290792
-0.52086
-0.600995
-0.656177
-0.431335
-0.186471
0.438416
1.07833
1.83324
2.54314
2.7831
3.00805
3.08792
2.94783
1.7029
0.558032
-0.236833
-0.851719
-0.981652
-1.04658
-0.961448
-0.866312
-0.756199
-0.626086
-0.460973
-0.350882
-0.300814
-0.255837
-0.220905
-0.200882
-0.205769
-0.205611
-0.195452
-0.185385
-0.16543
-0.160475
-0.15552
-0.145588
-0.135679
-0.130724
-0.125724
-0.105724
-0.0857466
-0.0707918
-0.0558371
-0.0508597
-0.0508371
-0.0507918
-0.0407466
-0.0257466
-0.0107918
0.00420816
0.0192534
0.034276
0.049276
0.0843213
0.114412
0.139457
0.164434
0.199389
0.229367
0.239412
0.254525
0.274683
0.294819
0.314955
0.330068
0.330158
0.330204
0.330226
0.330272
0.330294
0.320362
0.300498
0.285566
0.275566
0.240566
0.185566
0.145656
0.110837
0.0859502
0.0559276
0.025724
-0.00957013
-0.0447285
-0.0747964
-0.0898416
-0.104751
-0.109434
-0.108982
-0.128575
-0.13819
-0.137851
-0.137511
-0.142172
-0.146833
-0.141538
-0.13629
-0.136109
-0.135973
-0.125837
-0.115701
-0.110566
-0.10543
-0.100294
-0.0952715
-0.0903394
-0.0850905
-0.0844344
-0.0827828
-0.0853167
-0.0836425
-0.0731674
-0.0693891
-0.0675566
-0.0674887
-0.079276
-0.0915385
-0.0984842
-0.103054
-0.110113
-0.106222
-0.0888688
-0.0850905
-0.0872625
-0.0819231
-0.0800226
-0.0813122
-0.0853167
-0.0902036
-0.0857466
-0.0863575
-0.092172
-0.0982353
-0.104163
-0.109661
-0.114864
-0.1
-0.0849774
-0.0947964
-0.104593
-0.119502
-0.134434
-0.119321
-0.104208
-0.104072
-0.103937
-0.103778
-0.103643
-0.108529
-0.113394
-0.118235
-0.1181
-0.102986
-0.0928054
-0.0975565
-0.107353
-0.117217
-0.122104
-0.116991
-0.111923
-0.116878
-0.12181
-0.116742
-0.111697
-0.116697
-0.121674
-0.116652
-0.106606
-0.0965385
-0.0914253
-0.096267
-0.106131
-0.120995
-0.12086
-0.120679
-0.115452
-0.110181
-0.0999321
-0.0897059
-0.0894796
-0.0892308
-0.103937
-0.11362
-0.0933258
-0.0779411
-0.0674434
-0.0569004
-0.0563801
-0.0559276
-0.0455203
-0.0201131
0.0152715
0.0356109
0.0408824
0.0511539
0.0614027
0.0466064
0.0117647
-0.00812213
-0.0180316
-0.0329864
-0.0529412
-0.0728733
-0.0877828
-0.10276
-0.117805
-0.117805
-0.107783
-0.107828
-0.117919
-0.117986
-0.108032
-0.103054
-0.103077
-0.0781448
-0.0532353
-0.108303
-0.183303
-0.413235
-0.61319
-0.633235
-0.598303
-0.303303
0.0717421
0.686787
1.34186
2.07195
2.64204
2.87213
3.02724
3.05735
2.51749
1.17769
0.142873
-0.552014
-0.9369
-1.02679
-1.04163
-0.976425
-0.89629
-0.796154
-0.655928
-0.490679
-0.39052
-0.32043
-0.275385
-0.240385
-0.230339
-0.230226
-0.215045
-0.194864
-0.189774
-0.189751
-0.179615
-0.164412
-0.159253
-0.159118
-0.143959
-0.128778
-0.12862
-0.128552
-0.10362
-0.0786878
-0.0786199
-0.0784842
-0.0633484
-0.0482353
-0.04319
-0.03319
-0.00816742
0.0119005
0.0219683
0.0369909
0.0570136
0.0820362
0.112014
0.141923
0.16181
0.181787
0.206855
0.226923
0.241946
0.256923
0.276833
0.286765
0.296719
0.301674
0.306629
0.311629
0.311674
0.306674
0.296606
0.281403
0.266109
0.230882
0.195701
0.150566
0.100407
0.0751358
0.0497738
0.0243892
-0.000972845
-0.021267
-0.0414027
-0.0764027
-0.101222
-0.10586
-0.11052
-0.105294
-0.100136
-0.11
-0.119819
-0.124593
-0.12948
-0.119457
-0.109502
-0.114615
-0.114751
-0.0998643
-0.0899774
-0.0851358
-0.0803394
-0.080543
-0.075724
-0.0606335
-0.049457
-0.0474208
-0.0552941
-0.0686651
-0.0640271
-0.0519231
-0.0524434
-0.0657014
-0.0809502
-0.0868326
-0.0964253
-0.114072
-0.124072
-0.124163
-0.124005
-0.118778
-0.103937
-0.0894569
-0.0799094
-0.0748642
-0.0780995
-0.0835067
-0.0997963
-0.116674
-0.108756
-0.106018
-0.128348
-0.140204
-0.126199
-0.117104
-0.112783
-0.108371
-0.103914
-0.104389
-0.129842
-0.140294
-0.135724
-0.136176
-0.146674
-0.147195
-0.137715
-0.133213
-0.138733
-0.144253
-0.144774
-0.130362
-0.106018
-0.106629
-0.122172
-0.127738
-0.133371
-0.139027
-0.134683
-0.130385
-0.131109
-0.136765
-0.142443
-0.138213
-0.13405
-0.129932
-0.125882
-0.116923
-0.107873
-0.118756
-0.12957
-0.125294
-0.120973
-0.121629
-0.12224
-0.127738
-0.133167
-0.128552
-0.123914
-0.124253
-0.124434
-0.11448
-0.0994796
-0.0844344
-0.0742534
-0.0689366
-0.0636199
-0.0633032
-0.0480769
-0.0229638
-0.00280543
0.0123303
0.0323982
0.0524208
0.0374208
0.0123756
-0.0178054
-0.0480995
-0.0584615
-0.0688688
-0.0742308
-0.0795475
-0.104909
-0.135317
-0.130769
-0.126267
-0.126719
-0.127149
-0.122647
-0.118167
-0.118643
-0.119095
-0.109525
-0.0999774
-0.100498
-0.160995
-0.37638
-0.541697
-0.617014
-0.582398
-0.372873
-0.0132806
0.546425
1.18613
1.92079
2.43548
2.76523
2.98995
3.13462
2.61923
1.68882
0.723439
-0.266923
-0.72724
-0.977511
-1.01774
-0.987919
-0.893145
-0.788416
-0.673733
-0.564095
-0.444434
-0.329774
-0.295204
-0.320701
-0.241176
-0.221606
-0.196968
-0.172262
-0.177489
-0.182692
-0.168009
-0.153371
-0.14371
-0.13405
-0.119457
-0.104887
-0.105294
-0.100701
-0.0861312
-0.071629
-0.057172
-0.0426471
-0.028009
-0.0183258
-0.0136652
0.000950229
0.0205204
0.0351131
0.0497738
0.0644118
0.0740045
0.0985747
0.128122
0.157692
0.187262
0.226787
0.27629
0.285882
0.290566
0.295204
0.299796
0.309412
0.31905
0.323688
0.318326
0.312941
0.312534
0.312127
0.311719
0.28129
0.250837
0.235407
0.215023
0.169729
0.124502
0.0892986
0.0540724
0.0287783
0.00350678
-0.0316968
-0.0519005
-0.0621041
-0.0773077
-0.0925113
-0.102873
-0.108439
-0.109163
-0.100023
-0.095724
-0.10129
-0.106787
-0.107217
-0.107738
-0.103371
-0.0989593
-0.0994796
-0.0949321
-0.0853394
-0.0807014
-0.0760181
-0.0713801
-0.07181
-0.0622398
-0.0476244
-0.0479638
-0.058552
-0.0651357
-0.0672851
-0.064457
-0.0607466
-0.070181
-0.0777602
-0.0678507
-0.0562443
-0.0578507
-0.0599095
-0.0485068
-0.0390272
-0.0318326
-0.0278281
-0.0437104
-0.0636878
-0.0877149
-0.107873
-0.123416
-0.136425
-0.131878
-0.126787
-0.131154
-0.135407
-0.12957
-0.123733
-0.122941
-0.11767
-0.108009
-0.1081
-0.11819
-0.128213
-0.138167
-0.14319
-0.143281
-0.143348
-0.143394
-0.143462
-0.138529
-0.133597
-0.128665
-0.123778
-0.123937
-0.114118
-0.104276
-0.104367
-0.104389
-0.114367
-0.124344
-0.119344
-0.114299
-0.124186
-0.134072
-0.123959
-0.113846
-0.113756
-0.113643
-0.113326
-0.108258
-0.0932579
-0.0830995
-0.0927376
-0.102421
-0.102172
-0.102014
-0.101946
-0.101878
-0.10181
-0.101833
-0.101946
-0.102081
-0.0972172
-0.092353
-0.0874887
-0.0827828
-0.0781901
-0.0735521
-0.0788688
-0.0842308
-0.084638
-0.0750679
-0.0604978
-0.0508824
-0.041267
-0.0217195
-0.00710409
0.012647
0.0324208
0.0521719
0.0719004
0.0766063
0.0764027
0.0313574
-0.00864256
-0.0286426
-0.0486426
-0.0536199
-0.0585747
-0.0635068
-0.0734163
-0.0883258
-0.0982579
-0.10319
-0.108077
-0.0979186
-0.0828281
-0.0728281
-0.0727602
-0.0826018
-0.0874435
-0.0823303
-0.12224
-0.192149
-0.352059
-0.551968
-0.601923
-0.591923
-0.326923
0.0130769
0.628032
1.29792
1.94776
2.5976
2.78753
2.93756
2.87758
2.78258
1.46756
0.197511
-0.402579
-0.937715
-0.962828
-0.977896
-0.887941
-0.797987
-0.678032
-0.553077
-0.403145
-0.293167
-0.268077
-0.247964
-0.237896
-0.227873
-0.217896
-0.207941
-0.197986
-0.188032
-0.173077
-0.163122
-0.148145
-0.133122
-0.123077
-0.108122
-0.0882353
-0.0781901
-0.0780091
-0.0778281
-0.0726471
-0.062534
-0.0524887
-0.0474661
-0.0424435
-0.0273982
-0.012353
0.00271489
0.0178054
0.0379185
0.0230543
0.108167
0.15328
0.158439
0.16362
0.183756
0.203846
0.228959
0.254095
0.264208
0.274299
0.299412
0.314525
0.314593
0.314638
0.314706
0.314842
0.320045
0.315249
0.290452
0.260679
0.225882
0.191041
0.161176
0.12638
0.0916742
0.0670135
0.0473982
0.0128733
-0.0265837
-0.0459729
-0.0552942
-0.0595702
-0.058801
-0.0779865
-0.102149
-0.106448
-0.110905
-0.115475
-0.120158
-0.124864
-0.12457
-0.124253
-0.123959
-0.113756
-0.103665
-0.108688
-0.113846
-0.0940498
-0.0742308
-0.0794118
-0.0846607
-0.0850227
-0.0854978
-0.0860408
-0.0867421
-0.0826923
-0.0791856
-0.0814254
-0.0838236
-0.0811086
-0.0771267
-0.0765385
-0.0681901
-0.0468326
-0.0324661
-0.0350905
-0.03681
-0.0328054
-0.024095
-0.0158371
-0.0134842
-0.0118326
-0.0128959
-0.0164027
-0.0251131
-0.038552
-0.0456561
-0.0416742
-0.0367421
-0.0313801
-0.0359955
-0.0516516
-0.0593439
-0.0649321
-0.0739366
-0.0852715
-0.0984163
-0.112534
-0.127308
-0.139253
-0.147353
-0.150747
-0.154231
-0.150995
-0.121516
-0.102036
-0.12267
-0.138665
-0.135091
-0.132217
-0.125
-0.1181
-0.106493
-0.100023
-0.113688
-0.12233
-0.11595
-0.109548
-0.113122
-0.116652
-0.110294
-0.103597
-0.0967421
-0.0898643
-0.0879864
-0.086086
-0.0891403
-0.0921041
-0.0849774
-0.0778054
-0.0806109
-0.078371
-0.0661312
-0.0589367
-0.05681
-0.0647738
-0.0727828
-0.0657692
-0.0588235
-0.0570588
-0.0555204
-0.0492308
-0.0431674
-0.0473077
-0.0516968
-0.0513348
-0.0511991
-0.051267
-0.0516516
-0.0470814
-0.0429864
-0.0340045
-0.0251131
-0.0312896
-0.0375113
-0.0538009
-0.0601584
-0.0565837
-0.0529864
-0.0543665
-0.060724
-0.0720362
-0.0782806
-0.0744118
-0.0603394
-0.0410634
-0.0166742
0.00285066
0.0126244
0.0226244
0.0377602
0.0529638
0.0732127
0.0935294
0.0889366
0.074457
0.0351131
0.000837091
-0.0134389
-0.0277149
-0.0419683
-0.0562444
-0.0505883
-0.0449095
-0.0591177
-0.0732806
-0.0824887
-0.0917647
-0.0861312
-0.080543
-0.0899774
-0.099457
-0.0989593
-0.0934616
-0.0729638
-0.147489
-0.352059
-0.501765
-0.591561
-0.561267
-0.415882
-0.0755204
0.399774
1.06007
1.82538
2.3507
2.76102
2.98638
3.14179
2.52724
1.69274
0.66319
-0.406403
-0.771041
-1.03568
-1.02014
-0.97448
-0.883914
-0.788416
-0.632941
-0.482489
-0.401991
-0.326448
-0.290837
-0.255181
-0.24457
-0.233982
-0.223371
-0.21276
-0.202217
-0.191719
-0.181176
-0.170588
-0.169977
-0.164367
-0.148778
-0.138145
-0.132489
-0.126878
-0.126267
-0.120633
-0.105023
-0.0893892
-0.0786878
-0.0630317
-0.0424435
-0.0318779
-0.0313349
-0.0207466
-0.00511314
0.0154977
0.036086
0.0517421
0.0674434
0.0880543
0.10862
0.134231
0.159864
0.195475
0.166063
0.251652
0.267262
0.282964
0.298688
0.289321
0.279909
0.290452
0.300995
0.291584
0.282217
0.272851
0.263462
0.249005
0.224502
0.190023
0.155543
0.126086
0.0917647
0.0575566
0.0283937
-0.005724
-0.0247511
-0.0336878
-0.0475566
-0.0663575
-0.0901358
-0.113937
-0.122964
-0.122195
-0.121516
-0.120928
-0.110453
-0.0950905
-0.0946833
-0.104208
-0.108733
-0.113303
-0.112964
-0.102692
-0.0974208
-0.0971719
-0.0920362
-0.0869909
-0.0869457
-0.0869231
-0.0868778
-0.0873303
-0.0638914
-0.0411764
-0.0588461
-0.0764027
-0.078371
-0.078733
-0.0818326
-0.0817873
-0.0731222
-0.0620362
-0.0590724
-0.0550452
-0.0502715
-0.0482579
-0.03
-0.016448
-0.0127828
-0.015724
-0.034819
-0.0488688
-0.0577376
-0.0661991
-0.0642307
-0.0616063
-0.0682353
-0.0741855
-0.0792534
-0.0833032
-0.0866968
-0.0899774
-0.0891403
-0.0852262
-0.0790045
-0.081086
-0.0960407
-0.113575
-0.127398
-0.13681
-0.145566
-0.168032
-0.186018
-0.183394
-0.17776
-0.174864
-0.171335
-0.172489
-0.173778
-0.155317
-0.137172
-0.139299
-0.142014
-0.145385
-0.149027
-0.142919
-0.136742
-0.145498
-0.149299
-0.133145
-0.126946
-0.135701
-0.139389
-0.133009
-0.126538
-0.120271
-0.118643
-0.126968
-0.120226
-0.103439
-0.0967873
-0.100249
-0.103665
-0.107059
-0.110611
-0.109253
-0.107964
-0.101765
-0.0956787
-0.0947964
-0.0791855
-0.0638235
-0.0686878
-0.0738009
-0.0741855
-0.0747964
-0.0806561
-0.0866968
-0.0828733
-0.0792308
-0.0907919
-0.102511
-0.0943891
-0.0863801
-0.0833258
-0.0804977
-0.0727602
-0.0648869
-0.0718552
-0.0838236
-0.100837
-0.107873
-0.0999095
-0.09681
-0.0935294
-0.0851131
-0.0715611
-0.0628281
-0.0639141
-0.0548643
-0.0407014
-0.00647059
0.0328507
0.0424208
0.0372172
0.0420588
0.0568778
0.0416968
0.0165385
-0.0185973
-0.053733
-0.0638461
-0.0689366
-0.0790498
-0.0891855
-0.0943891
-0.0996833
-0.0899774
-0.0802488
-0.0904977
-0.100747
-0.0960633
-0.091448
-0.0919004
-0.0923982
-0.0828507
-0.0982805
-0.168756
-0.289253
-0.479774
-0.590317
-0.605882
-0.401561
0.0326697
0.636991
1.37643
2.02093
2.60045
2.89495
3.02446
2.884
2.6136
1.63317
0.397715
-0.262692
-0.763054
-0.898439
-0.953869
-0.909367
-0.844864
-0.760204
-0.68043
-0.540679
-0.39595
-0.326244
-0.256561
-0.251833
-0.247059
-0.222308
-0.197557
-0.187715
-0.177851
-0.168077
-0.158371
-0.143688
-0.128982
-0.124208
-0.119412
-0.119615
-0.114819
-0.0949773
-0.0800905
-0.0802036
-0.0753846
-0.0506335
-0.0408823
-0.0361086
-0.0263574
-0.0166063
0.00309956
0.0277376
0.0475113
0.0674208
0.0873303
0.11224
0.132127
0.151991
0.171833
0.191652
0.216516
0.241425
0.25129
0.261109
0.275973
0.265837
0.315634
0.335453
0.315385
0.295385
0.295362
0.295272
0.295068
0.289819
0.259638
0.229502
0.204367
0.174253
0.139186
0.10414
0.074095
0.0490724
0.0340498
0.0142534
-0.0152941
-0.0399095
-0.0646606
-0.0744117
-0.0741176
-0.0789366
-0.0889366
-0.0942308
-0.0997964
-0.10543
-0.111109
-0.116833
-0.112579
-0.103213
-0.0937783
-0.0892081
-0.0895023
-0.0897738
-0.0900452
-0.0852715
-0.0754299
-0.0705203
-0.0755656
-0.0755882
-0.0707013
-0.0711086
-0.0720362
-0.0738461
-0.0762217
-0.058733
-0.0403846
-0.0551357
-0.0664479
-0.0685294
-0.0671267
-0.0525566
-0.0373077
-0.0272398
-0.0203167
-0.0171945
-0.0219004
-0.0354298
-0.0534389
-0.0651131
-0.0729411
-0.0809276
-0.100385
-0.130905
-0.146335
-0.147534
-0.146561
-0.143891
-0.141086
-0.143258
-0.145905
-0.149095
-0.152873
-0.157059
-0.156493
-0.146086
-0.135747
-0.12543
-0.125068
-0.134683
-0.139321
-0.148982
-0.143688
-0.138416
-0.1431
-0.147738
-0.137398
-0.127081
-0.131697
-0.13629
-0.130837
-0.125407
-0.110045
-0.094638
-0.109163
-0.12362
-0.128032
-0.132421
-0.126765
-0.121063
-0.120317
-0.11957
-0.123824
-0.128032
-0.127195
-0.126403
-0.125679
-0.115045
-0.0945928
-0.0939819
-0.108371
-0.112941
-0.112715
-0.107602
-0.0975565
-0.0925339
-0.0975565
-0.102783
-0.0981447
-0.0935746
-0.089095
-0.0847285
-0.0854751
-0.0812896
-0.0670814
-0.0828054
-0.0984615
-0.0740497
-0.049638
-0.0452036
-0.0406561
-0.0309275
-0.0160859
0.0138236
0.0388236
0.0439141
0.0490046
0.0490724
0.0441629
0.0142761
-0.00549769
-0.0251583
-0.044819
-0.0595022
-0.0692081
-0.0739366
-0.0836425
-0.0983032
-0.107941
-0.102602
-0.0972398
-0.101833
-0.106448
-0.101109
-0.0858371
-0.0706109
-0.0553167
-0.0399548
-0.194638
-0.389367
-0.514163
-0.634027
-0.488891
-0.318756
0.236335
0.806403
1.55649
2.27158
2.60165
2.9117
3.03174
3.01181
2.27695
1.4721
0.432217
-0.422692
-0.762625
-0.992557
-0.952443
-0.887263
-0.777059
-0.651878
-0.496719
-0.381606
-0.316538
-0.271493
-0.246425
-0.231244
-0.22595
-0.215656
-0.205407
-0.195158
-0.184932
-0.174706
-0.16448
-0.159253
-0.154027
-0.143756
-0.133439
-0.128167
-0.132964
-0.117805
-0.0926471
-0.082353
-0.0719231
-0.0664932
-0.0561086
-0.0407919
-0.0255204
-0.0152489
-0.00497739
0.0152941
0.0355656
0.0508371
0.0661086
0.0863801
0.111606
0.146765
0.177014
0.192443
0.212896
0.233281
0.258575
0.283801
0.299072
0.304412
0.309729
0.324977
0.325272
0.315656
0.306018
0.296357
0.286674
0.271946
0.242285
0.212738
0.178145
0.133484
0.108846
0.0792534
0.044638
0.00497737
-0.0247059
-0.0494118
-0.0740724
-0.0986878
-0.103348
-0.103054
-0.112805
-0.112466
-0.127059
-0.141629
-0.136176
-0.130769
-0.125385
-0.120023
-0.119661
-0.119299
-0.118959
-0.118643
-0.123281
-0.127873
-0.122489
-0.11224
-0.0970815
-0.0867647
-0.0812896
-0.0758145
-0.0802941
-0.0851131
-0.0803394
-0.0752941
-0.0751131
-0.074276
-0.06819
-0.0664932
-0.0745701
-0.0774887
-0.0752036
-0.0741177
-0.0684616
-0.0628959
-0.0674208
-0.079457
-0.0917647
-0.0980091
-0.0941177
-0.0941629
-0.104072
-0.118575
-0.127873
-0.126946
-0.12586
-0.119525
-0.113394
-0.107738
-0.10224
-0.116855
-0.131448
-0.131018
-0.130611
-0.135249
-0.13991
-0.134593
-0.129321
-0.134072
-0.138801
-0.138507
-0.138167
-0.132783
-0.122466
-0.107262
-0.101991
-0.116606
-0.131244
-0.145905
-0.150588
-0.140271
-0.134887
-0.129457
-0.12405
-0.123643
-0.12319
-0.127715
-0.132262
-0.1319
-0.121652
-0.106403
-0.115995
-0.13552
-0.14009
-0.139683
-0.124299
-0.108891
-0.113462
-0.118077
-0.10776
-0.0974434
-0.112059
-0.126697
-0.116425
-0.106222
-0.096086
-0.0859729
-0.0958597
-0.105747
-0.110611
-0.11052
-0.0905204
-0.0754977
-0.0654751
-0.0504751
-0.0355204
-0.015543
0.00445703
0.0194796
0.0345023
0.0495475
0.0596606
0.034819
-0.00995474
-0.0347511
-0.0595701
-0.0693213
-0.0790045
-0.0836878
-0.088371
-0.0980769
-0.107805
-0.112511
-0.117195
-0.121923
-0.121742
-0.0966289
-0.0715158
-0.0913122
-0.111041
-0.0957466
-0.0904298
-0.170158
-0.274932
-0.459706
-0.60948
-0.609253
-0.494027
-0.0737556
0.446539
1.16179
1.83197
2.4271
2.83229
2.97253
2.97285
2.79319
2.04848
0.773733
-0.111018
-0.685724
-0.945407
-0.995113
-0.974864
-0.914638
-0.824412
-0.724186
-0.563982
-0.393801
-0.313552
-0.263235
-0.252964
-0.252738
-0.237534
-0.217353
-0.202172
-0.186991
-0.16681
-0.151629
-0.151448
-0.151267
-0.151063
-0.150905
-0.130814
-0.110679
-0.11043
-0.110136
-0.0949321
-0.079819
-0.0697964
-0.0597964
-0.0597059
-0.0545701
-0.0394118
-0.0292308
-0.0190498
-0.00384615
0.0163575
0.0514706
0.0965158
0.121584
0.121697
0.136833
0.161946
0.186968
0.211923
0.231968
0.252104
0.277195
0.29724
0.30233
0.302466
0.307511
0.317443
0.322353
0.32724
0.322127
0.307059
0.276991
0.241833
0.216493
0.191063
0.160656
0.130249
0.099819
0.0694344
0.0341403
0.00407241
-0.025724
-0.0504299
-0.0600905
-0.0746154
-0.0939819
-0.108439
-0.118054
-0.12776
-0.137557
-0.147376
-0.142217
-0.137127
-0.132104
-0.127127
-0.132195
-0.137285
-0.132421
-0.117738
-0.0980543
-0.0877375
-0.0916968
-0.0949321
-0.0927828
-0.090656
-0.0843212
-0.0800904
-0.0787782
-0.0814931
-0.0928506
-0.106946
-0.127104
-0.146131
-0.157149
-0.153371
-0.142262
-0.142805
-0.138416
-0.131312
-0.123688
-0.106832
-0.0935746
-0.0914026
-0.0937103
-0.0990949
-0.106312
-0.114434
-0.12267
-0.125475
-0.128348
-0.120882
-0.112737
-0.123869
-0.134638
-0.140181
-0.145747
-0.14138
-0.137014
-0.142624
-0.148167
-0.143642
-0.139072
-0.14448
-0.149932
-0.155452
-0.146063
-0.126765
-0.127443
-0.138077
-0.143733
-0.139457
-0.135204
-0.13095
-0.131697
-0.142443
-0.148258
-0.14914
-0.150045
-0.151041
-0.157127
-0.16328
-0.14948
-0.135611
-0.131606
-0.127579
-0.143642
-0.159728
-0.145792
-0.131765
-0.137624
-0.143394
-0.139072
-0.134593
-0.134977
-0.135249
-0.13043
-0.12052
-0.105475
-0.0902262
-0.0797737
-0.0791855
-0.0885068
-0.077828
-0.0421719
-0.0214705
-0.00574654
0.00997743
0.0256562
0.0312218
0.0266743
-0.00298637
-0.0427375
-0.047647
-0.0426696
-0.0576923
-0.0827601
-0.0878959
-0.0980769
-0.103326
-0.108642
-0.114027
-0.11948
-0.109932
-0.100385
-0.100792
-0.101176
-0.101629
-0.0971719
-0.0627601
-0.0633031
-0.178756
-0.314163
-0.494547
-0.6
-0.580498
-0.40095
-0.0163348
0.523281
1.2279
1.88256
2.48724
2.83692
3.00658
2.86118
2.51572
1.56536
0.315091
-0.370181
-0.830453
-0.945769
-0.956131
-0.906471
-0.836787
-0.732149
-0.627534
-0.482896
-0.333258
-0.288665
-0.32414
-0.219661
-0.195181
-0.185611
-0.17595
-0.17629
-0.176674
-0.162127
-0.147624
-0.1331
-0.118552
-0.119027
-0.119525
-0.110023
-0.10052
-0.0910407
-0.0766742
-0.0574208
-0.0380543
-0.0235294
-0.0139819
-0.00945699
0.00502263
0.0245023
0.0390045
0.0485294
0.0580543
0.072534
0.091991
0.111448
0.140882
0.170294
0.199638
0.228914
0.248281
0.262738
0.282195
0.301652
0.321063
0.34043
0.344842
0.344299
0.343756
0.343213
0.33267
0.322127
0.301561
0.280905
0.265181
0.24448
0.203869
0.163281
0.127647
0.0918778
0.0609276
0.0299774
-0.00585974
-0.036629
-0.0673303
-0.0878054
-0.0930543
-0.0981901
-0.108258
-0.118484
-0.113914
-0.114299
-0.124593
-0.129887
-0.135226
-0.140588
-0.135995
-0.131425
-0.126878
-0.122376
-0.117919
-0.113394
-0.118801
-0.119253
-0.109751
-0.0952715
-0.0802037
-0.0738462
-0.0719005
-0.0702489
-0.0800905
-0.0722625
-0.0674887
-0.0856561
-0.106086
-0.112851
-0.118439
-0.131606
-0.141787
-0.144027
-0.139955
-0.119729
-0.0968099
-0.092285
-0.0914932
-0.0958597
-0.103733
-0.104095
-0.105339
-0.112014
-0.119208
-0.116742
-0.119027
-0.131041
-0.137443
-0.133235
-0.123959
-0.114955
-0.115475
-0.125882
-0.136244
-0.146584
-0.146991
-0.137443
-0.132873
-0.133281
-0.133643
-0.133959
-0.134299
-0.129683
-0.125091
-0.12552
-0.105973
-0.086448
-0.1019
-0.117285
-0.122624
-0.128009
-0.123462
-0.118891
-0.119276
-0.119638
-0.12
-0.12043
-0.120905
-0.12138
-0.116697
-0.112195
-0.102692
-0.0931674
-0.0986199
-0.104027
-0.0994118
-0.0947738
-0.100113
-0.10543
-0.100724
-0.0959729
-0.101199
-0.106425
-0.101629
-0.0967873
-0.0918778
-0.0719231
-0.0519231
-0.0468552
-0.0517195
-0.0415611
-0.0214254
0.00868777
0.0387556
0.0487783
0.0587783
0.063733
0.0636199
0.0284163
-0.00685521
-0.0271267
-0.0473982
-0.0427149
-0.0380769
-0.0533937
-0.0686652
-0.0839367
-0.0992082
-0.0995249
-0.0998869
-0.100249
-0.100611
-0.0959502
-0.0913122
-0.0966968
-0.102059
-0.0924435
-0.0828959
-0.078371
-0.203733
-0.453982
-0.584208
-0.634434
-0.439683
-0.105
0.464706
1.13443
1.81412
2.49376
2.77346
2.94324
2.93799
2.89269
1.84735
0.657014
-0.0832353
-0.783394
-0.908529
-1.01867
-0.928846
-0.839072
-0.759276
-0.674457
-0.509683
-0.364932
-0.315113
-0.270272
-0.260475
-0.245701
-0.215928
-0.191109
-0.191199
-0.191267
-0.19138
-0.186516
-0.171674
-0.161855
-0.152014
-0.142172
-0.137353
-0.132489
-0.127579
-0.11767
-0.102738
-0.0878281
-0.0729638
-0.0529864
-0.037896
-0.0328281
-0.0277828
-0.0077602
0.0122398
0.0222398
0.0322398
0.0422624
0.0522851
0.0772398
0.102172
0.122149
0.107127
0.177081
0.207059
0.232127
0.257262
0.267353
0.277398
0.292466
0.307557
0.322647
0.337738
0.332828
0.327941
0.328077
0.32319
0.303348
0.278394
0.248416
0.218575
0.188869
0.154163
0.109412
0.0747059
0.0450905
0.0206109
0.00126698
-0.0230317
-0.0472851
-0.0615385
-0.0708145
-0.0752489
-0.0798416
-0.0845475
-0.0843665
-0.0841403
-0.0888688
-0.0985973
-0.108416
-0.113416
-0.108552
-0.10371
-0.098914
-0.0941629
-0.0944796
-0.0848643
-0.0752941
-0.0757918
-0.076448
-0.0622172
-0.0478959
-0.0584389
-0.0693891
-0.071267
-0.0737104
-0.0713575
-0.0680769
-0.0632353
-0.0557692
-0.0502489
-0.0416063
-0.0398416
-0.03681
-0.023009
-0.00425337
0.019276
0.0280769
0.0214932
0.0115837
-0.00649323
-0.0202715
-0.024457
-0.0275113
-0.0344344
-0.0402715
-0.0353846
-0.0349774
-0.045
-0.0519231
-0.0563348
-0.0639593
-0.0692986
-0.0819457
-0.105792
-0.125204
-0.138891
-0.156086
-0.168846
-0.165792
-0.159593
-0.151222
-0.142262
-0.14819
-0.154344
-0.150837
-0.147783
-0.135204
-0.12319
-0.126765
-0.130452
-0.139299
-0.148235
-0.147262
-0.146199
-0.140045
-0.133914
-0.137805
-0.136674
-0.12052
-0.114344
-0.123145
-0.121923
-0.110837
-0.109434
-0.117896
-0.12129
-0.114661
-0.1081
-0.106561
-0.10491
-0.108145
-0.11138
-0.104593
-0.102896
-0.11129
-0.109729
-0.113326
-0.0822172
-0.0713122
-0.0805656
-0.09
-0.0846154
-0.0795475
-0.0798642
-0.0804525
-0.081267
-0.0822624
-0.0834163
-0.0847285
-0.0811991
-0.0778054
-0.0794118
-0.0812443
-0.0781674
-0.0750226
-0.0817873
-0.0885294
-0.105272
-0.101968
-0.0786199
-0.0652036
-0.0616516
-0.0529186
-0.0439819
-0.0298643
-0.0106109
0.00380089
0.0133484
0.0428959
0.0775113
0.0673756
0.0424434
0.00753393
-0.0373756
-0.0423077
-0.0472398
-0.0571041
-0.0669231
-0.0767421
-0.0815611
-0.0914027
-0.101267
-0.101199
-0.101267
-0.0964253
-0.0915837
-0.0916742
-0.0917421
-0.0968552
-0.0970136
-0.0672398
-0.0875113
-0.247783
-0.4081
-0.568484
-0.643824
-0.594072
-0.354344
0.115317
0.709887
1.42939
2.04396
2.58362
2.87333
2.99803
2.83772
2.5074
1.5321
0.261833
-0.423439
-0.89371
-1.01391
-1.03405
-0.979208
-0.899412
-0.789683
-0.669977
-0.530181
-0.385294
-0.340385
-0.290475
-0.265588
-0.240724
-0.240882
-0.241063
-0.226199
-0.21129
-0.206403
-0.201538
-0.181652
-0.161787
-0.147014
-0.13224
-0.132376
-0.132489
-0.122602
-0.10276
-0.0779186
-0.0630317
-0.0731222
-0.0832353
-0.0683937
-0.058552
-0.0436652
-0.0287783
-0.0189367
0.0108597
0.0555882
0.0754525
0.080362
0.0902489
0.100113
0.134955
0.174796
0.199706
0.219661
0.234548
0.249412
0.259276
0.26914
0.284027
0.273891
0.318665
0.333394
0.313167
0.293009
0.287873
0.282738
0.262534
0.242353
0.222262
0.197217
0.162195
0.122217
0.0872624
0.0573529
0.0325339
0.0127149
0.0129185
-0.00174209
-0.0412444
-0.0707692
-0.0853846
-0.0951584
-0.0901358
-0.0901358
-0.100158
-0.105249
-0.100407
-0.0956109
-0.0908371
-0.0861312
-0.0815158
-0.0619683
-0.0424434
-0.0378281
-0.0431448
-0.0484842
-0.0488914
-0.0494344
-0.0500453
-0.0505204
-0.0511086
-0.0424661
-0.0346154
-0.0525792
-0.0709729
-0.0692308
-0.0664932
-0.0516969
-0.034095
-0.0430543
-0.049095
-0.0475792
-0.0447059
-0.0312217
-0.0184163
-0.0170588
-0.0200453
-0.013733
-0.0105204
-0.0244344
-0.0389367
-0.0485747
-0.0529864
-0.0420588
-0.0405656
-0.0534615
-0.0657919
-0.0774435
-0.083552
-0.0888914
-0.0931448
-0.0866516
-0.080181
-0.0844796
-0.0905882
-0.0941629
-0.0960181
-0.0958145
-0.0981448
-0.101946
-0.11638
-0.139955
-0.156719
-0.174344
-0.171493
-0.165475
-0.16733
-0.168552
-0.159774
-0.15129
-0.153077
-0.155226
-0.152715
-0.150837
-0.139661
-0.128529
-0.12733
-0.126063
-0.129819
-0.13362
-0.122466
-0.116154
-0.129661
-0.138122
-0.121561
-0.114977
-0.113371
-0.111765
-0.110181
-0.0986199
-0.077172
-0.0654978
-0.0687331
-0.0770815
-0.0855656
-0.0891403
-0.0877828
-0.0865385
-0.0804299
-0.0744797
-0.0737104
-0.0731674
-0.0678959
-0.0628733
-0.0630996
-0.0485747
-0.0442308
-0.0449321
-0.0458145
-0.0520136
-0.0584616
-0.0600679
-0.0617874
-0.0635521
-0.0653846
-0.0623303
-0.0593439
-0.0613801
-0.0634163
-0.0604299
-0.0524887
-0.0395928
-0.0365159
-0.0532579
-0.0648417
-0.0613122
-0.0476471
-0.0238462
-0.00988691
-0.0107693
-0.00651587
0.00287328
0.0174208
0.0371493
0.0569457
0.0767647
0.0966063
0.111516
0.0866063
0.0468325
0.0170135
-0.00785072
-0.0177828
-0.0277828
-0.0377602
-0.047715
-0.062715
-0.0727602
-0.0728055
-0.0728507
-0.0629412
-0.0531222
-0.0483937
-0.0436878
-0.0589367
-0.0741403
-0.0593213
-0.0645475
-0.139864
-0.260249
-0.475701
-0.616177
-0.611606
-0.441991
-0.0273756
0.532217
1.26181
1.91638
2.49595
2.84057
2.99523
2.81995
2.41971
1.50446
0.304186
-0.376086
-0.821335
-0.946539
-0.95672
-0.901878
-0.827014
-0.737195
-0.647421
-0.492647
-0.327873
-0.288032
-0.258122
-0.25319
-0.243235
-0.223303
-0.203394
-0.203439
-0.203462
-0.188529
-0.17362
-0.16362
-0.153597
-0.14362
-0.128665
-0.108688
-0.0936426
-0.0985295
-0.103371
-0.0981675
-0.0880317
-0.0729638
-0.062896
-0.0578055
-0.0477376
-0.0326697
-0.017534
-0.00235296
0.0177602
0.037828
0.0628959
0.0929412
0.113054
0.123213
0.148439
0.17871
0.203914
0.22405
0.239186
0.254321
0.269434
0.284525
0.294638
0.304774
0.309932
0.310113
0.325294
0.340498
0.320769
0.301063
0.27129
0.241471
0.206674
0.176946
0.142308
0.107715
0.0781221
0.048552
0.0240271
-0.00542992
-0.0347964
-0.0540725
-0.053258
-0.0623982
-0.0865159
-0.100701
-0.105023
-0.10948
-0.10405
-0.0987105
-0.103462
-0.108326
-0.108303
-0.108326
-0.103394
-0.0985521
-0.0988236
-0.0891856
-0.0745928
-0.0700227
-0.0654752
-0.0709276
-0.0863575
-0.0865838
-0.0767195
-0.0671041
-0.0579865
-0.0598191
-0.0672398
-0.0745928
-0.0811312
-0.0807466
-0.0778281
-0.0616516
-0.0425113
-0.0307014
-0.0173077
-0.0182353
-0.0199774
-0.0135068
-0.0112217
-0.00445703
-0.00520363
-0.022353
-0.0342986
-0.035543
-0.0367421
-0.0330769
-0.0311765
-0.0362443
-0.0439366
-0.0590045
-0.076267
-0.0953167
-0.115113
-0.129661
-0.141652
-0.150158
-0.153597
-0.158167
-0.160588
-0.161787
-0.157941
-0.144299
-0.136109
-0.138371
-0.141086
-0.134231
-0.132896
-0.14681
-0.140792
-0.134842
-0.138937
-0.143032
-0.137104
-0.131176
-0.140249
-0.149321
-0.133394
-0.117443
-0.111471
-0.105407
-0.104208
-0.107919
-0.121584
-0.130181
-0.118688
-0.107127
-0.10552
-0.103914
-0.0973077
-0.0906561
-0.0889593
-0.0872624
-0.0905882
-0.0940271
-0.0875792
-0.0811086
-0.079638
-0.0783484
-0.0772625
-0.0764254
-0.0758145
-0.0754299
-0.0702715
-0.0653846
-0.0657693
-0.0663801
-0.067172
-0.0680996
-0.0692534
-0.0706561
-0.072172
-0.0636426
-0.0551131
-0.0666516
-0.0782127
-0.0797512
-0.0812217
-0.0725792
-0.0637557
-0.0497964
-0.035724
-0.0415159
-0.0421946
-0.0229412
0.0016742
0.0314027
0.0513348
0.0614932
0.0717873
0.0572172
0.0376244
0.00796379
-0.0166516
-0.0361765
-0.0456335
-0.0500226
-0.0594118
-0.0688235
-0.0783032
-0.0878507
-0.0873982
-0.0769457
-0.0764706
-0.0859729
-0.0904525
-0.0849095
-0.079457
-0.084095
-0.0737783
-0.0535068
-0.17819
-0.312851
-0.482602
-0.647421
-0.60224
-0.497059
-0.0168552
0.508371
1.24357
1.93376
2.45894
2.88412
3.05428
3.00941
2.46455
1.71473
0.594955
-0.259796
-0.719548
-0.974299
-0.97405
-0.918801
-0.808507
-0.69319
-0.572896
-0.462579
-0.352195
-0.30181
-0.281493
-0.256176
-0.23086
-0.22052
-0.220158
-0.209774
-0.194367
-0.179005
-0.163688
-0.148281
-0.132783
-0.127285
-0.126787
-0.126267
-0.125747
-0.115294
-0.10491
-0.0945249
-0.0840724
-0.068552
-0.0530091
-0.0474661
-0.0419231
-0.0313801
-0.0158371
0.0146606
0.0401131
0.0505882
0.066086
0.086629
0.112149
0.137647
0.158145
0.173643
0.194118
0.219593
0.245136
0.265724
0.276312
0.2819
0.302466
0.328009
0.333529
0.324027
0.314593
0.305226
0.295792
0.28629
0.266787
0.247285
0.212828
0.178416
0.149072
0.119796
0.0954751
0.116131
0.0418778
0.0177375
-0.0162444
-0.0501131
-0.0739593
-0.0977828
-0.0966516
-0.0956335
-0.104819
-0.114118
-0.118462
-0.122828
-0.122217
-0.121652
-0.111131
-0.100792
-0.100588
-0.100362
-0.0950679
-0.0898869
-0.0948643
-0.0999774
-0.095181
-0.0904072
-0.0856787
-0.0807692
-0.0856335
-0.0909502
-0.0867873
-0.0833711
-0.0856788
-0.0877602
-0.0893213
-0.0886199
-0.0804751
-0.0690045
-0.0644118
-0.0574661
-0.0436199
-0.0289819
-0.0145249
-0.0125339
-0.0139593
-0.0154978
-0.0208372
-0.0281222
-0.0358824
-0.0377828
-0.0389593
-0.0392308
-0.0399095
-0.0512217
-0.0644118
-0.069638
-0.0780317
-0.0847737
-0.0928054
-0.117059
-0.141923
-0.157036
-0.167217
-0.172534
-0.17371
-0.176267
-0.177692
-0.168258
-0.158937
-0.159819
-0.161109
-0.157851
-0.150113
-0.137896
-0.141131
-0.154683
-0.158348
-0.152036
-0.145747
-0.144525
-0.143348
-0.137172
-0.130928
-0.129615
-0.128258
-0.136833
-0.130339
-0.123756
-0.122081
-0.120407
-0.113756
-0.107036
-0.115204
-0.123281
-0.121312
-0.119389
-0.112534
-0.105679
-0.0988009
-0.0919231
-0.0950905
-0.098371
-0.0917647
-0.0852941
-0.0839593
-0.0828281
-0.0819004
-0.0812217
-0.0808145
-0.0806787
-0.0758145
-0.0711991
-0.0716063
-0.0724208
-0.0784163
-0.0845928
-0.0809502
-0.0774434
-0.0840724
-0.0807466
-0.067466
-0.0692081
-0.080905
-0.0874887
-0.0890045
-0.0904525
-0.0917647
-0.0628733
-0.0438009
-0.0496154
-0.0552715
-0.0307014
-0.00599546
0.0188235
0.0436878
0.0536425
0.058733
0.0289593
-0.00076922
-0.0254977
-0.0452262
-0.0499321
-0.0545927
-0.059276
-0.0689593
-0.0886425
-0.103303
-0.102919
-0.102534
-0.0971946
-0.0919231
-0.0966968
-0.101471
-0.101244
-0.0960633
-0.0859276
-0.100814
-0.130747
-0.280769
-0.47086
-0.575928
-0.665973
-0.460995
-0.200995
0.323982
0.883937
1.63387
2.39378
2.70371
2.99869
3.14367
3.19862
2.1186
1.05857
0.158507
-0.626561
-0.861606
-1.03661
-1.00652
-0.96138
-0.87129
-0.771244
-0.646176
-0.521018
-0.410769
-0.330588
-0.29052
-0.270475
-0.260407
-0.240339
-0.220294
-0.205226
-0.190113
-0.179955
-0.179774
-0.179593
-0.174457
-0.169299
-0.164118
-0.143937
-0.123756
-0.118575
-0.118394
-0.113235
-0.103122
-0.0830769
-0.0630543
-0.0429638
-0.022828
-0.0176697
-0.0174887
-0.0023303
0.0128055
0.0329412
0.0530769
0.0782353
0.103416
0.123575
0.14871
0.178846
0.208982
0.23914
0.264321
0.27948
0.294615
0.299774
0.304864
0.309932
0.315045
0.325158
0.335294
0.330498
0.310656
0.280724
0.260724
0.245679
0.215611
0.180475
0.150317
0.125136
0.0899095
0.0445928
0.019276
-0.0109728
-0.0260181
-0.0408145
-0.065362
-0.0897737
-0.094276
-0.0988914
-0.10362
-0.103416
-0.108167
-0.102896
-0.10267
-0.102511
-0.107421
-0.112376
-0.10733
-0.102285
-0.0922398
-0.0822625
-0.0823982
-0.0823077
-0.0819231
-0.0806109
-0.0801358
-0.0728733
-0.0557693
-0.045905
-0.0536199
-0.0648643
-0.0795928
-0.0965385
-0.115023
-0.131923
-0.136833
-0.138032
-0.138846
-0.137195
-0.134208
-0.122738
-0.10914
-0.095181
-0.0759728
-0.0711086
-0.0801584
-0.0957466
-0.112715
-0.120272
-0.118054
-0.115679
-0.122964
-0.139729
-0.150995
-0.141833
-0.132376
-0.132805
-0.133235
-0.12871
-0.124118
-0.129434
-0.134706
-0.139955
-0.145204
-0.145498
-0.145814
-0.146109
-0.146471
-0.1469
-0.147285
-0.142624
-0.137964
-0.143326
-0.143778
-0.129299
-0.124796
-0.135271
-0.140679
-0.141041
-0.141493
-0.142059
-0.142647
-0.138281
-0.133982
-0.139751
-0.14552
-0.141267
-0.136991
-0.137692
-0.138371
-0.138982
-0.139434
-0.134751
-0.13
-0.140181
-0.130317
-0.120362
-0.125294
-0.13009
-0.129751
-0.129208
-0.118507
-0.107738
-0.096923
-0.0861086
-0.0802715
-0.0644117
-0.028552
-0.00266967
0.00328057
0.0191177
0.0447964
0.0554751
0.0361313
0.00669686
-0.037828
-0.0624434
-0.0721493
-0.0768778
-0.0766289
-0.0814253
-0.0962443
-0.106109
-0.100973
-0.0958371
-0.100701
-0.105588
-0.105498
-0.105407
-0.100317
-0.0802036
-0.0600678
-0.114932
-0.179796
-0.379661
-0.184548
-0.59448
-0.589412
-0.244299
0.135837
0.81095
1.49104
2.18613
2.78622
2.96127
3.08131
3.01145
2.58163
1.24179
0.136923
-0.488009
-0.902896
-0.957828
-0.967738
-0.907579
-0.827376
-0.722172
-0.592036
-0.431968
-0.336946
-0.281923
-0.256833
-0.246719
-0.231697
-0.216742
-0.201719
-0.186629
-0.166538
-0.146448
-0.14138
-0.141335
-0.13629
-0.126244
-0.116222
-0.106222
-0.101199
-0.101154
-0.0811312
-0.0611312
-0.0511086
-0.0410633
-0.0360181
-0.0309728
-0.00595021
0.0190498
0.0340724
0.0491177
0.0541629
0.0642081
0.0892308
0.114231
0.134208
0.159185
0.194208
0.229231
0.254208
0.274163
0.28914
0.309118
0.334072
0.349027
0.343982
0.338959
0.338982
0.338982
0.333891
0.318801
0.298688
0.273484
0.253213
0.217986
0.17776
0.142443
0.102036
0.0815837
0.0611086
0.0255882
-0.00988688
-0.0451584
-0.0852036
-0.0950679
-0.104751
-0.129253
-0.153688
-0.14819
-0.14276
-0.147466
-0.152262
-0.152127
-0.152014
-0.146855
-0.141719
-0.136697
-0.131742
-0.131719
-0.131674
-0.131652
-0.131765
-0.1269
-0.121222
-0.114706
-0.107534
-0.104887
-0.103032
-0.102443
-0.100045
-0.0943665
-0.0988462
-0.106154
-0.113824
-0.126244
-0.136357
-0.147579
-0.15276
-0.141425
-0.134502
-0.133801
-0.121561
-0.100498
-0.0905657
-0.0809503
-0.0945928
-0.0907014
-0.0977376
-0.105272
-0.117919
-0.130362
-0.132466
-0.13405
-0.129977
-0.125498
-0.135792
-0.146018
-0.141244
-0.136448
-0.141561
-0.146742
-0.1469
-0.147014
-0.137081
-0.127127
-0.132172
-0.137285
-0.137443
-0.137579
-0.142692
-0.147851
-0.143077
-0.138258
-0.143416
-0.148597
-0.143801
-0.139072
-0.139412
-0.134729
-0.125023
-0.125317
-0.135633
-0.141041
-0.136561
-0.132127
-0.12767
-0.12819
-0.133688
-0.129118
-0.124457
-0.124728
-0.124955
-0.120158
-0.115294
-0.115339
-0.115294
-0.120204
-0.125045
-0.114796
-0.104389
-0.0938461
-0.0782126
-0.0625339
-0.0518099
-0.0610181
-0.0602262
-0.029457
0.00122173
0.0217873
0.0373982
0.0530091
0.0585521
0.0490272
0.0243892
-0.0103846
-0.035181
-0.05
-0.0549547
-0.0600452
-0.0751357
-0.0902262
-0.0953393
-0.0904977
-0.0907013
-0.100928
-0.101154
-0.0913801
-0.0865611
-0.0966968
-0.0968552
-0.0970362
-0.0722172
-0.0674208
-0.247647
-0.427873
-0.553054
-0.63819
-0.518348
-0.303575
0.201131
0.775837
1.50559
2.13538
2.56027
2.88518
3.05009
2.87005
2.23002
1.38995
0.329887
-0.385158
-0.795226
-0.965317
-0.950385
-0.880475
-0.785566
-0.655701
-0.505792
-0.405882
-0.320973
-0.286109
-0.25629
-0.241448
-0.226584
-0.221697
-0.216787
-0.2069
-0.197036
-0.187172
-0.19233
-0.162557
-0.152828
-0.1431
-0.133348
-0.133507
-0.133597
-0.113733
-0.093914
-0.089095
-0.084276
-0.069457
-0.054638
-0.0447737
-0.0298642
-0.0149774
-0.000226229
0.0194797
0.0392308
0.0590046
0.0788236
0.0937104
0.113575
0.138371
0.173167
0.208009
0.227828
0.242624
0.262421
0.282195
0.296991
0.30681
0.316584
0.326312
0.331086
0.335905
0.330792
0.315679
0.295498
0.275294
0.240181
0.205113
0.170045
0.140023
0.105068
0.0701584
0.035181
0.000158384
-0.0147737
-0.0295928
-0.0592986
-0.0788914
-0.0983711
-0.117805
-0.127285
-0.136878
-0.141652
-0.146584
-0.141606
-0.136652
-0.131719
-0.126855
-0.127059
-0.12233
-0.112624
-0.107873
-0.103122
-0.0983937
-0.103643
-0.108914
-0.104276
-0.0996606
-0.100091
-0.0954751
-0.085905
-0.0822172
-0.0894344
-0.0973303
-0.0957014
-0.0835747
-0.0703847
-0.0647059
-0.0612896
-0.0594797
-0.0647511
-0.0530091
-0.0397737
-0.0357692
-0.0325113
-0.0170814
-0.00542982
-0.0135746
-0.0249547
-0.0282127
-0.0322624
-0.0312443
-0.0299094
-0.0381447
-0.0458371
-0.0529411
-0.0592081
-0.0596606
-0.0589592
-0.0622172
-0.0654072
-0.0638009
-0.063914
-0.071018
-0.0809728
-0.0838235
-0.0847059
-0.0880316
-0.0971041
-0.111742
-0.131448
-0.153982
-0.16586
-0.163009
-0.156606
-0.153054
-0.148914
-0.149638
-0.150611
-0.151991
-0.153869
-0.151335
-0.124457
-0.107896
-0.111493
-0.115068
-0.118552
-0.121968
-0.115362
-0.108778
-0.112195
-0.115475
-0.103597
-0.0916289
-0.0896154
-0.0875565
-0.0853846
-0.0833258
-0.0713122
-0.0593212
-0.0623529
-0.0653167
-0.0782126
-0.076199
-0.0643212
-0.0626018
-0.0710407
-0.0696606
-0.0584841
-0.0525565
-0.0518551
-0.0514027
-0.0462217
-0.0363348
-0.0267194
-0.0222398
-0.0278959
-0.0388009
-0.0498642
-0.0560859
-0.057466
-0.0589592
-0.0556108
-0.0474208
-0.0443212
-0.0462217
-0.0481221
-0.05
-0.0519231
-0.0439593
-0.0359502
-0.0478054
-0.0594796
-0.0559728
-0.0523303
-0.0435973
-0.0347285
-0.0306787
-0.0214253
-0.00701357
0.00753394
0.0222398
0.0420815
0.0670136
0.0869683
0.096991
0.077172
0.0325113
0.00287332
-0.0167647
-0.0314027
-0.051086
-0.0557466
-0.0603846
-0.0750679
-0.0897964
-0.0945022
-0.0941855
-0.0939366
-0.0888009
-0.0837782
-0.0838235
-0.0838235
-0.0837783
-0.073733
-0.0536878
-0.138665
-0.233665
-0.453643
-0.65362
-0.653665
-0.593756
-0.208846
0.236063
0.875928
1.52572
2.2055
2.74034
2.93529
3.07029
3.09534
2.62543
1.37554
0.330634
-0.434253
-0.889095
-1.01391
-1.03873
-0.968575
-0.863462
-0.743394
-0.598371
-0.438371
-0.353235
-0.298009
-0.28276
-0.282489
-0.27724
-0.267014
-0.241787
-0.216561
-0.21129
-0.211018
-0.210724
-0.205407
-0.19509
-0.199796
-0.159548
-0.139321
-0.124027
-0.108665
-0.118303
-0.127941
-0.112647
-0.0973756
-0.0821041
-0.0668326
-0.0615611
-0.051267
-0.0309276
-0.0105656
0.00979638
0.0350905
0.0653846
0.090724
0.106109
0.121538
0.146968
0.16233
0.177624
0.192851
0.208032
0.233281
0.26362
0.279005
0.284412
0.289774
0.290091
0.305407
0.330724
0.326063
0.306425
0.271765
0.237081
0.212443
0.187828
0.153213
0.11862
0.0790724
0.0445928
0.0202036
-0.00411767
-0.0284163
-0.0526471
-0.0617873
-0.0708597
-0.0899095
-0.10905
-0.108348
-0.10776
-0.112262
-0.1169
-0.121719
-0.126493
-0.126199
-0.125995
-0.125882
-0.125792
-0.120701
-0.105634
-0.0805656
-0.0654978
-0.0704525
-0.075362
-0.0802263
-0.0850679
-0.0848417
-0.0850453
-0.090724
-0.0923756
-0.0849095
-0.0824208
-0.084638
-0.0851358
-0.0786425
-0.064276
-0.046991
-0.0416516
-0.0438914
-0.0352036
-0.030905
-0.0315837
-0.0343891
-0.0278054
-0.0259276
-0.0325113
-0.0411991
-0.0455204
-0.05
-0.0492081
-0.048009
-0.0463348
-0.0441176
-0.0512896
-0.0580995
-0.0696154
-0.0811312
-0.0827149
-0.0841177
-0.0803167
-0.0763348
-0.0921719
-0.0979412
-0.0936651
-0.0893891
-0.0900905
-0.0857014
-0.0762896
-0.0716516
-0.0768778
-0.0820362
-0.0871267
-0.0923077
-0.0925792
-0.0877375
-0.077828
-0.0779638
-0.0877602
-0.0919004
-0.0902941
-0.0878507
-0.0852036
-0.0677602
-0.0617647
-0.0628054
-0.0667421
-0.0789593
-0.0936878
-0.100679
-0.108575
-0.112036
-0.11371
-0.138145
-0.157308
-0.155837
-0.152195
-0.140362
-0.124751
-0.11914
-0.113688
-0.103371
-0.0935068
-0.0941855
-0.095724
-0.0980317
-0.095724
-0.0837557
-0.0770588
-0.0805882
-0.0843439
-0.0883032
-0.0874208
-0.0767195
-0.071267
-0.0659955
-0.0607919
-0.0556561
-0.055543
-0.0655204
-0.0705656
-0.0706787
-0.0558597
-0.0361086
-0.0514253
-0.0717873
-0.067172
-0.0626244
-0.0631448
-0.0637557
-0.0594344
-0.0550905
-0.0506787
-0.046267
-0.0569457
-0.0677376
-0.0636426
-0.059638
-0.0507014
-0.0419005
-0.0482353
-0.0546606
-0.0611312
-0.0676697
-0.0642987
-0.0609955
-0.0577376
-0.054457
-0.0511539
-0.0528733
-0.0646607
-0.0664932
-0.0483937
-0.0503394
-0.0623077
-0.0691855
-0.0709729
-0.0626923
-0.0493213
-0.0408371
-0.0322398
-0.0185068
-0.00463802
0.0193439
0.0434842
0.0478054
0.0371946
0.051629
0.0660407
0.0304751
-0.00502261
-0.0204298
-0.0357918
-0.0462217
-0.0566742
-0.057104
-0.0575113
-0.0679185
-0.0783258
-0.088733
-0.0991402
-0.0995701
-0.100045
-0.0905656
-0.0811086
-0.0916516
-0.0921719
-0.067647
-0.128145
-0.26871
-0.424299
-0.589887
-0.615452
-0.550995
-0.206516
0.272941
0.937421
1.67692
2.24643
2.77093
2.98543
3.12493
2.74455
2.26423
1.12387
-0.0915385
-0.556946
-0.152353
-0.982715
-0.983032
-0.933326
-0.878597
-0.783824
-0.684005
-0.529186
-0.394389
-0.334661
-0.284887
-0.259977
-0.245045
-0.235181
-0.225362
-0.215566
-0.200724
-0.170837
-0.155995
-0.151199
-0.146312
-0.161335
-0.161357
-0.146425
-0.131561
-0.121742
-0.111833
-0.10181
-0.0968552
-0.0919909
-0.0771267
-0.0622624
-0.0424208
-0.0226018
-0.0127828
-0.00294117
0.011991
0.0269683
0.0468552
0.0666742
0.0815158
0.0963801
0.12629
0.151244
0.171199
0.191131
0.210995
0.230747
0.24543
0.260181
0.265045
0.269955
0.269887
0.269819
0.274706
0.279593
0.274593
0.26457
0.244457
0.224321
0.204186
0.179095
0.154072
0.129005
0.103891
0.0788914
0.0590045
0.0292534
-0.015362
-0.0349548
-0.0545928
-0.0591855
-0.063733
-0.0784389
-0.0933032
-0.0982805
-0.0983711
-0.0984842
-0.0986425
-0.0988688
-0.0991177
-0.0943665
-0.0846154
-0.0798643
-0.0801584
-0.075543
-0.0709502
-0.0713349
-0.0717421
-0.0722625
-0.0728054
-0.0682353
-0.0640498
-0.0656335
-0.068009
-0.0762217
-0.0845701
-0.0776244
-0.0690045
-0.0730543
-0.0740045
-0.0715158
-0.0663575
-0.048733
-0.030181
-0.0310407
-0.0235294
-0.0180995
-0.0178054
-0.0179864
-0.0203394
-0.0209276
-0.0252262
-0.0344797
-0.0434842
-0.0522172
-0.0605656
-0.0685068
-0.0707466
-0.0619231
-0.0718778
-0.0909276
-0.0894344
-0.0782579
-0.0730769
-0.0748869
-0.0892987
-0.0967873
-0.0925113
-0.0901358
-0.119163
-0.148914
-0.164299
-0.176561
-0.174729
-0.168597
-0.173122
-0.175837
-0.172014
-0.168235
-0.159276
-0.151063
-0.143258
-0.13595
-0.12914
-0.127692
-0.141538
-0.14543
-0.134367
-0.128258
-0.127104
-0.125928
-0.124729
-0.123439
-0.127081
-0.125679
-0.114253
-0.0928054
-0.0713122
-0.0797737
-0.0981901
-0.101606
-0.100045
-0.0985294
-0.0970588
-0.0956109
-0.0991629
-0.0927602
-0.081448
-0.0802715
-0.0792534
-0.0784163
-0.0777376
-0.0571946
-0.0368778
-0.0467873
-0.0568778
-0.0621267
-0.0676244
-0.0684389
-0.0694796
-0.0657466
-0.0621267
-0.0635973
-0.0652262
-0.0570136
-0.0488914
-0.0558371
-0.0578281
-0.0448643
-0.0419457
-0.0540724
-0.0661312
-0.0780996
-0.0799774
-0.0617873
-0.0585294
-0.0551357
-0.0415384
-0.0277602
-0.0238009
-0.0246832
-0.000384583
0.0290724
0.0486426
0.0683258
0.0730769
0.0729186
0.0479186
0.0130091
-0.00692306
-0.0268778
-0.0468326
-0.0667647
-0.0566289
-0.0464479
-0.0663122
-0.0862217
-0.0912217
-0.096267
-0.0813122
-0.0663575
-0.0764253
-0.0864932
-0.0915158
-0.0966063
-0.0867647
-0.0769909
-0.0772851
-0.177579
-0.387828
-0.538077
-0.633371
-0.54871
-0.31905
0.130566
0.715113
1.40966
2.15425
2.58894
2.90371
3.06839
3.19299
2.50258
1.61217
0.676878
-0.273348
-0.663575
-0.993801
-0.979027
-1.01428
-0.834548
-0.729774
-0.59991
-0.47
-0.380068
-0.305136
-0.280249
-0.255362
-0.245407
-0.235407
-0.22543
-0.215453
-0.20543
-0.195385
-0.185362
-0.17043
-0.155498
-0.14543
-0.140226
-0.135045
-0.129932
-0.119887
-0.109887
-0.0998643
-0.089819
-0.0847512
-0.0796833
-0.0696154
-0.0595249
-0.0444118
-0.0242986
-0.0142534
-0.0092534
0.0158823
0.0411539
0.0564027
0.071629
0.09681
0.121946
0.152104
0.182285
0.202466
0.217647
0.237828
0.257964
0.273077
0.288213
0.298326
0.308439
0.318643
0.328937
0.319253
0.309502
0.294638
0.279774
0.270045
0.245339
0.200633
0.160995
0.121425
0.0868778
0.0523303
0.0228054
-0.00167419
-0.0259955
-0.0451584
-0.0692986
-0.0934389
-0.102715
-0.102172
-0.101629
-0.106131
-0.115769
-0.125566
-0.130407
-0.135271
-0.130226
-0.115362
-0.110701
-0.111154
-0.111561
-0.106946
-0.107421
-0.122964
-0.113552
-0.104095
-0.0944117
-0.0845927
-0.0847059
-0.085181
-0.0965158
-0.108507
-0.10095
-0.093009
-0.0789819
-0.0628733
-0.0690724
-0.0721041
-0.0667647
-0.059457
-0.040724
-0.0212443
-0.00619906
0.00563351
-0.00160633
-0.00266968
-0.00755657
-0.0133484
-0.0149547
-0.0114027
-0.00339366
-0.0111765
-0.0305204
-0.0421493
-0.0511765
-0.0629185
-0.0814706
-0.100814
-0.120588
-0.140475
-0.147217
-0.152896
-0.16414
-0.167127
-0.163643
-0.139751
-0.125792
-0.132014
-0.138575
-0.140588
-0.14319
-0.131448
-0.12009
-0.12405
-0.128054
-0.132059
-0.136131
-0.130271
-0.124457
-0.128529
-0.127738
-0.111878
-0.101018
-0.110181
-0.119231
-0.123167
-0.127081
-0.120973
-0.114842
-0.118688
-0.122376
-0.115905
-0.109389
-0.107873
-0.0963348
-0.0797737
-0.0732126
-0.0716289
-0.0700452
-0.0734841
-0.0869457
-0.100475
-0.0941855
-0.0780317
-0.0770136
-0.0861765
-0.0855203
-0.0800905
-0.0799548
-0.0801357
-0.0806335
-0.0813801
-0.0623529
-0.0435068
-0.059819
-0.076267
-0.0777828
-0.0793891
-0.0761312
-0.0728507
-0.094457
-0.105995
-0.0975113
-0.083914
-0.0652036
-0.0514027
-0.0525113
-0.0334163
0.005905
0.0254299
0.0301358
0.04
0.0500227
0.0550905
0.0601358
0.0453168
0.00558826
-0.0140498
-0.0285973
-0.0481674
-0.0677602
-0.0724208
-0.0671719
-0.0669457
-0.0766968
-0.0863348
-0.0958823
-0.100475
-0.100113
-0.0997964
-0.0995249
-0.0992534
-0.0989819
-0.078733
-0.0685068
-0.158348
-0.263213
-0.4531
-0.603077
-0.623145
-0.538167
-0.183077
0.267014
0.902082
1.56213
2.25217
2.72724
2.92731
3.04738
3.08244
2.39749
1.06756
0.0976244
-0.612353
-0.927398
-1.00749
-1.00744
-0.952308
-0.867172
-0.762036
-0.626946
-0.476878
-0.381697
-0.301448
-0.28129
-0.271176
-0.251018
-0.230837
-0.210656
-0.225498
-0.18043
-0.175362
-0.165158
-0.154887
-0.154661
-0.154502
-0.144412
-0.134344
-0.114208
-0.0940498
-0.0989593
-0.103914
-0.0938235
-0.0786878
-0.063552
-0.0484389
-0.033371
-0.0232353
-0.0130543
0.00212671
0.0172851
0.0423756
0.0723982
0.0924661
0.107624
0.132738
0.16276
0.187805
0.207896
0.237964
0.268009
0.288009
0.302964
0.313054
0.323281
0.328439
0.323507
0.318529
0.323529
0.308575
0.283665
0.268688
0.258665
0.223643
0.18862
0.16362
0.138597
0.0984616
0.0634163
0.0236199
-0.0161312
-0.0509502
-0.0808597
-0.0908597
-0.10086
-0.12086
-0.130905
-0.141086
-0.151199
-0.146222
-0.14129
-0.136403
-0.126561
-0.111719
-0.10681
-0.116878
-0.1219
-0.121878
-0.1219
-0.116946
-0.111991
-0.107036
-0.102081
-0.0971267
-0.0921041
-0.0921041
-0.0926471
-0.0933937
-0.0792534
-0.0600905
-0.0653167
-0.080181
-0.0840045
-0.0926018
-0.0908597
-0.089276
-0.0930317
-0.0968778
-0.101629
-0.106787
-0.107511
-0.107941
-0.110136
-0.112285
-0.103167
-0.0939819
-0.103937
-0.11405
-0.124163
-0.134367
-0.129593
-0.129909
-0.145204
-0.150452
-0.135656
-0.130837
-0.146041
-0.156222
-0.151403
-0.141606
-0.126968
-0.127149
-0.14233
-0.147489
-0.147624
-0.142805
-0.133032
-0.133213
-0.143371
-0.143552
-0.133688
-0.128846
-0.13405
-0.139253
-0.13948
-0.124751
-0.1
-0.110204
-0.12043
-0.120679
-0.12095
-0.12129
-0.121561
-0.126742
-0.132014
-0.122398
-0.11276
-0.118077
-0.123394
-0.118529
-0.113869
-0.104186
-0.0945023
-0.104842
-0.115113
-0.115317
-0.110543
-0.100837
-0.0961538
-0.101448
-0.106742
-0.112059
-0.112353
-0.102579
-0.0878054
-0.0730543
-0.0533484
-0.0286425
-0.0288914
-0.044095
-0.034276
-0.0144796
0.0152489
0.0449548
0.0497512
0.0545702
0.0493213
0.0390951
0.00389144
-0.0313348
-0.0415611
-0.0517873
-0.0470135
-0.0422172
-0.0573529
-0.0724208
-0.092466
-0.112534
-0.107647
-0.102783
-0.102873
-0.102964
-0.103077
-0.103145
-0.0981674
-0.0832353
-0.053371
-0.113575
-0.278846
-0.43405
-0.589163
-0.584276
-0.459434
-0.0596154
0.500158
1.19495
1.95977
2.45455
2.85428
3.064
3.22373
2.47348
1.53324
0.552919
-0.437421
-0.76767
-1.03783
-1.00299
-0.948145
-0.843303
-0.733507
-0.578733
-0.433959
-0.349208
-0.279457
-0.264638
-0.249796
-0.235045
-0.215385
-0.190747
-0.171063
-0.166267
-0.161448
-0.156652
-0.151878
-0.142104
-0.132308
-0.132466
-0.127647
-0.102896
-0.0931222
-0.0932805
-0.0884389
-0.0786425
-0.058914
-0.0342308
-0.024457
-0.0195475
-0.00466063
0.0102036
0.0300679
0.0599321
0.069819
0.0797285
0.119548
0.159321
0.179163
0.19905
0.223869
0.20362
0.278348
0.3031
0.322941
0.342851
0.337738
0.332602
0.342443
0.352285
0.352149
0.352014
0.336878
0.316742
0.296584
0.271403
0.23629
0.206109
0.19095
0.165928
0.116063
0.0711991
0.026267
-0.0086199
-0.0284163
-0.0531222
-0.0827376
-0.0974434
-0.102195
-0.116923
-0.131697
-0.136765
-0.132127
-0.12767
-0.123348
-0.119005
-0.119593
-0.13009
-0.145543
-0.145973
-0.136403
-0.131765
-0.137081
-0.132376
-0.122602
-0.12776
-0.132896
-0.118009
-0.103054
-0.0879864
-0.0732127
-0.0741629
-0.0757918
-0.0831221
-0.0904977
-0.0923982
-0.0922398
-0.0942534
-0.0921719
-0.0757014
-0.0568326
-0.0461086
-0.0360633
-0.0270814
-0.0195701
-0.00434392
-0.0065385
-0.030724
-0.0571946
-0.0854525
-0.113416
-0.139389
-0.149615
-0.144796
-0.14595
-0.154276
-0.156652
-0.153552
-0.150747
-0.143326
-0.13138
-0.119932
-0.119027
-0.128416
-0.132986
-0.142647
-0.14233
-0.142036
-0.141742
-0.141448
-0.136199
-0.13095
-0.135611
-0.140249
-0.13491
-0.129638
-0.119412
-0.109118
-0.113733
-0.118326
-0.122941
-0.127489
-0.126968
-0.126425
-0.130814
-0.135226
-0.119661
-0.113959
-0.118122
-0.117262
-0.106403
-0.0955204
-0.0847964
-0.0838009
-0.0927828
-0.0967421
-0.100701
-0.104819
-0.0990498
-0.0932805
-0.0875792
-0.0820362
-0.0866289
-0.0913801
-0.0912896
-0.0863348
-0.0915385
-0.0619683
-0.0525792
-0.0632353
-0.0739366
-0.0747964
-0.0757919
-0.0769231
-0.0780543
-0.069095
-0.0600453
-0.0359502
-0.0218099
-0.0325792
-0.0332353
-0.00411764
0.0253846
0.0549548
0.0747285
0.0747059
0.0647285
0.0297738
0.00481902
-0.0201584
-0.0401131
-0.05
-0.0548642
-0.0597511
-0.0745928
-0.0893665
-0.0941855
-0.0940724
-0.0939593
-0.0888235
-0.0835973
-0.0882805
-0.0928959
-0.0924887
-0.0771267
-0.0568099
-0.111493
-0.176176
-0.385882
-0.590611
-0.625339
-0.635068
-0.274819
0.120339
0.800385
1.47045
2.13066
2.68593
2.8612
2.98643
2.95656
2.57163
1.40667
0.401742
-0.333145
-0.813009
-0.937896
-0.972738
-0.892511
-0.792466
-0.672511
-0.542353
-0.397014
-0.311765
-0.266652
-0.241538
-0.231448
-0.221335
-0.211222
-0.201222
-0.191244
-0.186041
-0.180679
-0.175294
-0.169864
-0.149344
-0.128869
-0.123552
-0.118303
-0.113122
-0.102919
-0.102624
-0.102308
-0.0870136
-0.0717873
-0.0566516
-0.0414932
-0.0311765
-0.0209276
-0.0058371
0.014276
0.0345023
0.0499774
0.0657014
0.0865611
0.102534
0.123258
0.153733
0.174118
0.184457
0.209864
0.245339
0.275905
0.296493
0.311946
0.322285
0.332534
0.347692
0.358077
0.35362
0.339253
0.324932
0.310566
0.296154
0.261719
0.222172
0.177466
0.137851
0.113643
0.0895928
0.050362
0.086086
-0.00303168
-0.0120815
-0.0511312
-0.0900905
-0.0939819
-0.0978959
-0.106946
-0.116086
-0.120317
-0.124638
-0.12405
-0.123507
-0.128009
-0.132579
-0.12724
-0.116991
-0.1019
-0.0916968
-0.0963575
-0.101222
-0.116267
-0.121109
-0.115792
-0.110701
-0.110792
-0.111335
-0.11224
-0.113824
-0.111086
-0.108371
-0.110588
-0.096086
-0.0747285
-0.0753167
-0.0828507
-0.0822398
-0.0790045
-0.0648869
-0.0402488
-0.0209276
-0.0133937
-0.0110407
-0.00830317
-0.0140724
-0.0220362
-0.0404751
-0.0590498
-0.0223077
0.000633478
-0.0349095
-0.0643665
-0.0427602
-0.0213801
-0.025543
-0.0321041
-0.0412443
-0.0489593
-0.035181
-0.0428054
-0.101765
-0.146267
-0.170769
-0.196267
-0.217647
-0.204231
-0.156833
-0.128416
-0.114208
-0.119796
-0.140362
-0.14638
-0.137941
-0.120113
-0.102828
-0.111018
-0.12957
-0.108394
-0.0773982
-0.0814253
-0.0952263
-0.138597
-0.18181
-0.210068
-0.243484
-0.192195
-0.140928
-0.124548
-0.108032
-0.11638
-0.124774
-0.138281
-0.146403
-0.119072
-0.09181
-0.0647738
-0.0476018
-0.0652262
-0.0882126
-0.116697
-0.134977
-0.123054
-0.111448
-0.105158
-0.0790271
-0.0330769
-0.0423077
-0.106742
-0.126538
-0.0966742
-0.0871267
-0.0925566
-0.0784842
-0.049457
-0.0503394
-0.0662444
-0.0721946
-0.0784842
-0.085543
-0.0926697
-0.0940272
-0.0851358
-0.0815159
-0.0782353
-0.080362
-0.0776697
-0.0649774
-0.0317647
-0.0577602
-0.0834163
-0.0339819
0.000475109
-0.0501358
-0.0855656
-0.0206787
0.0392081
0.0840045
0.0985294
0.0377828
-0.0174661
-0.0482127
-0.0727376
-0.0921493
-0.106855
-0.101765
-0.106403
-0.14086
-0.165543
-0.18543
-0.175339
-0.135226
-0.125113
-0.145045
-0.13
-0.0899321
-0.0847738
-0.104638
-0.109819
-0.100204
-0.265317
-0.480204
-0.590091
-0.680113
-0.545181
-0.380385
0.174095
0.753733
1.55391
2.33903
2.6588
2.96367
3.08862
3.09357
2.21355
1.30839
0.268054
-0.59224
-0.812308
-0.98224
-1.02213
-1.01713
-0.91733
-0.797828
-0.648529
-0.513914
-0.393982
-0.298982
-0.228937
-0.17862
-0.158054
-0.187783
-0.262805
-0.282941
-0.25819
-0.203507
-0.124005
-0.0995927
-0.0950679
-0.105158
-0.125023
-0.0900452
-0.030181
-0.0853846
-0.165769
-0.136312
-0.0767194
-0.0967194
-0.126425
-0.0360181
0.0692308
0.00916291
-0.0511312
0.00350679
0.0581674
0.0578959
0.0578507
0.0531222
0.0581222
0.112489
0.1619
0.191697
0.221697
0.241833
0.241946
0.182036
0.146991
0.151742
0.221561
0.381471
0.386561
0.211719
0.151267
0.210385
0.284774
0.369457
0.404434
0.409661
0.30491
0.145249
0.080362
0.0552489
0.0452941
0.0455204
0.000701368
-0.0642308
-0.0590271
-0.0386199
0.0220588
0.0826245
-0.027466
0.0872172
-0.177941
-0.203077
-0.123258
-0.0586425
-0.124231
-0.180045
-0.141199
-0.107466
-0.103756
-0.0998416
-0.0955882
-0.091086
-0.0914706
-0.0968326
-0.121946
-0.122262
-0.0677149
-0.0379411
-0.0578733
-0.0836878
-0.120611
-0.122964
-0.0956561
-0.0478054
0.0157466
-0.0230769
-0.144253
-0.122127
-0.0113348
-0.0130996
-0.0626471
-0.076086
-0.0744118
-0.047353
-0.0157467
-0.0110181
-0.023077
-0.0397059
-0.0547285
-0.0568552
-0.0550226
-0.0182126
0.0152262
-0.0537104
-0.117579
-0.145385
-0.175023
-0.212511
-0.234163
-0.17043
-0.117195
-0.134842
-0.1531
-0.166787
-0.160792
-0.0899774
-0.0643213
-0.133891
-0.168484
-0.143145
-0.127557
-0.126606
-0.096086
-0.036086
-0.0411086
-0.105995
-0.155905
-0.200882
-0.190452
-0.14957
-0.119072
-0.0939366
-0.088552
-0.0979638
-0.122511
-0.147149
-0.0967647
-0.0213122
-0.0506335
-0.104774
-0.138846
-0.172851
-0.15181
-0.115928
-0.085543
-0.0553167
-0.0749321
-0.0993213
-0.14319
-0.162172
-0.0270362
0.0775565
0.0220814
-0.0380996
-0.102919
-0.152602
-0.142262
-0.127353
-0.103077
-0.0791855
-0.0654978
-0.0718779
-0.113281
-0.124751
-0.0913801
-0.0779865
-0.0944797
-0.055543
0.0288235
0.0227828
-0.0425792
-0.0738236
-0.0849096
-0.0554978
-0.0057014
0.0388009
0.0781221
0.0777828
0.0627149
0.0277375
-0.00719457
-0.052172
-0.0971041
-0.0869005
-0.101697
-0.0516968
-0.0417647
-0.0966289
-0.15129
-0.120905
-0.0906561
-0.105656
-0.120792
-0.10595
-0.0958145
-0.120249
-0.124932
-0.0552941
-0.0805203
-0.300385
-0.485226
-0.605498
-0.62586
-0.486244
-0.186606
0.293122
0.933054
1.7231
2.30294
2.72762
2.96226
3.06695
2.82701
2.39744
1.41269
0.192715
-0.412466
-0.817828
-0.953303
-1.01882
-0.938959
-0.818891
-0.704072
-0.584389
-0.459638
-0.339819
-0.279661
-0.224389
-0.22948
-0.234819
-0.255158
-0.275407
-0.235566
-0.200498
-0.165068
-0.134729
-0.149796
-0.165113
-0.165611
-0.16095
-0.135995
-0.116018
-0.116063
-0.106018
-0.0759502
-0.0559955
-0.0661539
-0.0761765
-0.0709276
-0.0606787
-0.0456109
-0.0309276
-0.0215611
0.013009
0.0628507
0.0629186
0.0331448
0.0531448
0.0979412
0.127579
0.147172
0.207376
0.2831
0.293688
0.298937
0.303643
0.303054
0.292602
0.27233
0.292285
0.312308
0.317262
0.322149
0.291855
0.261538
0.261425
0.256403
0.221335
0.186448
0.1669
0.132308
0.0624434
0.00244345
-0.0276697
-0.0476923
-0.0475339
-0.0621493
-0.0965611
-0.121018
-0.135588
-0.140317
-0.125249
-0.130633
-0.161448
-0.167308
-0.148258
-0.133778
-0.124095
-0.139615
-0.170272
-0.165588
-0.145679
-0.115973
-0.0814027
-0.0966969
-0.126833
-0.111923
-0.086991
-0.101833
-0.0818326
-0.102851
-0.0747285
-0.0871267
-0.0995475
-0.091267
-0.0866969
-0.125091
-0.149864
-0.100113
-0.0523756
-0.0124435
0.0131222
-0.00135747
-0.0198416
-0.0223982
-0.0290271
-0.0197738
-0.0243891
-0.0568778
-0.0897964
-0.132014
-0.137986
-0.108077
-0.0997285
-0.128507
-0.136312
-0.138348
-0.135452
-0.12276
-0.100747
-0.0744117
-0.0788235
-0.0988009
-0.118778
-0.138643
-0.123145
-0.0974434
-0.0918552
-0.0965385
-0.121584
-0.146719
-0.121697
-0.0915158
-0.106244
-0.12086
-0.120294
-0.119683
-0.0992308
-0.0840724
-0.114186
-0.129118
-0.0787557
-0.0433032
-0.0678507
-0.0922625
-0.111425
-0.115724
-0.0853168
-0.0649321
-0.074457
-0.0838462
-0.0831674
-0.0924208
-0.116516
-0.100566
-0.0445928
-0.0286878
-0.0479412
-0.072534
-0.0974208
-0.0871041
-0.0566516
-0.0463349
-0.0461086
-0.0510407
-0.0611312
-0.0662443
-0.0715158
-0.0721946
-0.0629864
-0.0585294
-0.0640271
-0.0647511
-0.0507013
-0.0417647
-0.0327828
-0.0386199
-0.0442308
-0.0346833
-0.0251357
-0.0256109
-0.0159955
0.0388009
0.0886425
0.108416
0.113326
0.0684842
0.0337557
0.0241403
-0.00067874
-0.0457692
-0.0656787
-0.0353394
-0.0199774
-0.0345701
-0.0590724
-0.0935973
-0.103145
-0.0826697
-0.0722398
-0.0667195
-0.0613801
-0.0659729
-0.0806109
-0.0953168
-0.0800679
-0.049819
-0.209638
-0.419525
-0.499299
-0.558937
-0.463484
-0.348009
0.29733
-0.337489
1.78758
2.58262
2.83281
3.06301
3.02303
2.80299
1.50287
0.322896
-0.321765
-0.83629
-0.92586
-0.97552
-0.900294
-0.80009
-0.654842
-0.50957
-0.364208
-0.258824
-0.218484
-0.208281
-0.253213
-0.268032
-0.257692
-0.212262
-0.131787
-0.106448
-0.116244
