ekg
0
0
0.012
-0.00214286
-0.0177778
-0.0109091
-0.000384614
0
0
0.0107895
0.0230952
0.0104348
-0.00240001
0.00537035
0.0118965
0.0132258
0.0131818
0.00871427
0.0054054
-0.00371796
-0.0130488
-0.0123256
-0.0114444
-0.0109574
-0.0155102
-0.025
-0.0244339
-0.0145454
-0.00982456
-0.0147458
-0.00959013
0.00500003
0.00946154
0.00425373
-0.0110145
-0.0262676
-0.0267123
-0.0174
-0.0127922
-0.0132279
-0.0138272
-0.0142169
-0.0198824
-0.0255173
-0.021236
-0.0168132
-0.0174731
-0.0183158
-0.0190206
-0.0196465
-0.0253961
-0.0310194
-0.0218572
-0.0124299
-0.00811929
-0.00409912
-0.00995575
-0.0156956
-0.0217521
-0.0281092
-0.020248
-0.0124797
-0.01012
-0.0080709
-0.0160465
-0.0225191
-0.028797
-0.0298519
-0.0204744
-0.0206475
-0.0307092
-0.0257692
-0.0108276
-0.00588436
-0.0108054
-0.0157285
-0.0206536
-0.0204839
-0.0107643
-0.00562894
-0.00670809
-0.00628835
-0.0111818
-0.0269761
-0.0427811
-0.0781579
-0.0957514
-0.0924286
-0.0875141
-0.092095
-0.0961879
-0.0898634
-0.0832432
-0.0766845
-0.0702645
-0.073822
-0.0773834
-0.0759744
-0.0746701
-0.0684171
-0.0621642
-0.0661823
-0.0704634
-0.0597101
-0.0489474
-0.0632938
-0.0679812
-0.0628372
-0.0528341
-0.0431279
-0.0387557
-0.0445928
-0.0504978
-0.0564706
-0.0526018
-0.0389141
-0.0353394
-0.0319005
-0.00861993
0.0245249
0.0275565
0.0304977
0.0332353
0.0307466
0.0831221
0.0253846
0.127534
0.10957
0.0464706
-0.0167421
-0.0251131
-0.033552
-0.0420136
-0.0504299
-0.0637557
-0.0768552
-0.104729
-0.12233
-0.129638
-0.136629
-0.138914
-0.140294
-0.141312
-0.142036
-0.142511
-0.142919
-0.143258
-0.148552
-0.158756
-0.158869
-0.148914
-0.148914
-0.158869
-0.163824
-0.158778
-0.138756
-0.113756
-0.13371
-0.18362
-0.358507
-0.568371
-0.598281
-0.588235
-0.0531674
0.546923
1.23704
1.93217
2.29729
2.64738
2.57244
2.42247
1.46249
0.577534
0.232624
-0.0522398
-0.0471493
-0.0471041
-0.0770814
-0.107059
-0.126991
-0.146923
-0.1669
-0.186833
-0.201674
-0.211516
-0.206403
-0.201335
-0.196312
-0.191244
-0.196086
-0.200905
-0.200747
-0.200588
-0.200407
-0.200226
-0.195
-0.189796
-0.189615
-0.189367
-0.19405
-0.188778
-0.173552
-0.158348
-0.143145
-0.137873
-0.142534
-0.147172
-0.14681
-0.146471
-0.146154
-0.125814
-0.105452
-0.0951357
-0.0848416
-0.079457
-0.0740271
-0.0587104
-0.0434389
-0.0231674
-0.00285067
0.0125566
0.0330091
0.0534389
0.0738462
0.0942308
0.119615
0.155045
0.195475
0.230905
0.261493
0.297285
0.328077
0.358869
0.394615
0.430294
0.461267
0.487036
0.513281
0.539457
0.560339
0.585928
0.591493
0.597036
0.587579
0.568122
0.51362
0.454072
0.394389
0.339615
0.274819
0.335
0.140181
0.0753846
0.0156335
-0.0441403
-0.0739819
-0.103846
-0.11371
-0.123597
-0.138552
-0.153507
-0.163371
-0.173213
-0.178122
-0.1831
-0.173032
-0.162919
-0.172647
-0.182443
-0.187443
-0.193281
-0.190113
-0.187081
-0.184005
-0.178507
-0.175294
-0.168959
-0.15948
-0.148326
-0.135588
-0.118281
-0.0967194
-0.0844796
-0.0862217
-0.0895022
-0.0840497
-0.0785973
-0.0781674
-0.0778733
-0.0777149
-0.0776697
-0.0777375
-0.0829185
-0.0882126
-0.083552
-0.0790271
-0.0746606
-0.070362
-0.0810859
-0.0917873
-0.092466
-0.0932579
-0.0991855
-0.105339
-0.101719
-0.0979185
-0.0988687
-0.0995475
-0.11
-0.120475
-0.115995
-0.111471
-0.101855
-0.0970588
-0.107081
-0.117081
-0.127104
-0.132127
-0.127127
-0.122104
-0.122059
-0.121946
-0.116765
-0.116538
-0.126267
-0.12595
-0.115588
-0.110181
-0.104728
-0.104185
-0.113529
-0.11776
-0.1169
-0.116018
-0.11509
-0.10905
-0.102308
-0.0945701
-0.0861764
-0.092285
-0.0996154
-0.0936651
-0.0908144
-0.0813574
-0.0739366
-0.0933936
-0.113303
-0.123597
-0.130249
-0.128122
-0.123213
-0.120656
-0.117986
-0.120204
-0.122421
-0.119661
-0.116991
-0.109457
-0.102127
-0.0999774
-0.0980543
-0.0957919
-0.0993439
-0.108122
-0.102172
-0.0864932
-0.0809502
-0.080543
-0.0802036
-0.0749321
-0.0747285
-0.0845928
-0.0895249
-0.0845249
-0.0745701
-0.0796606
-0.0696832
-0.079638
-0.0846153
-0.089638
-0.0797285
-0.0699094
-0.0701357
-0.0703619
-0.0705655
-0.0707465
-0.0709049
-0.0710633
-0.0762669
-0.0766063
-0.0568325
-0.0423076
-0.0477375
-0.0531447
-0.0585746
-0.0641176
-0.0597285
-0.0553846
-0.0561085
-0.056923
-0.052828
-0.0487782
-0.0447963
-0.0409728
-0.0473303
-0.0288461
0.00950231
0.0277376
0.0359276
0.0340272
0.0219457
0.0396154
0.0670815
0.114344
0.161448
0.118484
0.0654525
0.00733035
-0.0458823
-0.0442081
-0.042647
-0.0511538
-0.0595475
-0.0877149
-0.115633
-0.118371
-0.120905
-0.128235
-0.135294
-0.142014
-0.148371
-0.144389
-0.140204
-0.140814
-0.141244
-0.146538
-0.151787
-0.146946
-0.142014
-0.141991
-0.1469
-0.156787
-0.156719
-0.141674
-0.131606
-0.136516
-0.266403
-0.451244
-0.555973
-0.630634
-0.33043
0.0846606
0.799751
1.57984
2.065
2.51525
2.6455
2.7557
1.97584
1.16593
0.571041
0.0111765
-0.00868776
-0.028552
-0.0384389
-0.0533258
-0.0881674
-0.118077
-0.133077
-0.148054
-0.162986
-0.177851
-0.192647
-0.207443
-0.20733
-0.207195
-0.206991
-0.206787
-0.201606
-0.196425
-0.196222
-0.195995
-0.190792
-0.185679
-0.180588
-0.175339
-0.180023
-0.184661
-0.189344
-0.189072
-0.178846
-0.163552
-0.14819
-0.142828
-0.142466
-0.142104
-0.146742
-0.14638
-0.136041
-0.105769
-0.130498
-0.0700679
-0.0695475
-0.069095
-0.0686878
-0.0483258
-0.0279638
-0.0125113
0.00294117
0.0233258
0.0437104
0.0541629
0.069638
0.100091
0.135543
0.175973
0.211493
0.24224
0.2581
0.269027
0.299887
0.355633
0.401471
0.442443
0.473688
0.495204
0.516471
0.537443
0.558167
0.573665
0.589208
0.609796
0.590362
0.550905
0.501312
0.451584
0.396855
0.342149
0.277466
0.20776
0.132964
0.0580996
0.0132579
-0.0265611
-0.0664027
-0.106267
-0.116176
-0.126131
-0.141041
-0.155905
-0.170747
-0.185588
-0.180498
-0.17543
-0.180294
-0.185113
-0.184977
-0.19043
-0.211697
-0.223462
-0.205588
-0.191357
-0.185249
-0.175905
-0.168032
-0.162941
-0.160792
-0.1481
-0.119955
-0.100362
-0.094457
-0.0912896
-0.090724
-0.090362
-0.090181
-0.0950679
-0.105023
-0.0900679
-0.065362
-0.0660407
-0.0769457
-0.0929412
-0.108891
-0.114683
-0.10543
-0.106131
-0.106765
-0.10233
-0.0978054
-0.0981448
-0.0984163
-0.103688
-0.108959
-0.0942081
-0.0843665
-0.109412
-0.129434
-0.129525
-0.129661
-0.124819
-0.12
-0.125158
-0.130249
-0.130271
-0.130158
-0.129932
-0.129796
-0.129774
-0.124796
-0.114819
-0.114728
-0.129706
-0.134185
-0.123213
-0.116357
-0.108959
-0.111493
-0.125181
-0.121629
-0.111063
-0.118733
-0.138665
-0.150045
-0.15181
-0.158077
-0.166448
-0.170498
-0.181697
-0.185792
-0.189366
-0.173054
-0.156584
-0.154728
-0.152557
-0.16009
-0.167398
-0.149525
-0.131538
-0.128439
-0.125226
-0.126946
-0.128529
-0.125
-0.121493
-0.1131
-0.105
-0.102195
-0.104638
-0.11233
-0.110339
-0.0936878
-0.0823982
-0.0814706
-0.0807919
-0.0753394
-0.0700905
-0.0650227
-0.0599321
-0.0648416
-0.0697964
-0.0748416
-0.0800679
-0.0754299
-0.0707693
-0.0711313
-0.0716064
-0.0671267
-0.0675792
-0.0730996
-0.0688462
-0.0647285
-0.0655883
-0.0664253
-0.0672851
-0.06819
-0.0741629
-0.0802488
-0.0714706
-0.062828
-0.0592534
-0.0557013
-0.0472172
-0.033914
-0.0107692
0.00723984
0.0101131
0.00778282
-0.00977372
0.0125566
0.0798643
0.112104
0.114208
0.0861086
0.0328055
0.00434393
-0.00918549
-0.0277601
-0.0463574
-0.069819
-0.0981221
-0.111312
-0.114321
-0.117081
-0.119525
-0.136538
-0.158167
-0.159615
-0.150882
-0.146923
-0.14776
-0.143394
-0.138869
-0.139253
-0.13957
-0.164819
-0.190023
-0.170181
-0.150271
-0.140294
-0.130317
-0.125362
-0.135407
-0.185475
-0.285543
-0.480611
-0.600656
-0.595679
-0.320724
0.304163
0.97905
1.71398
2.23391
2.5638
2.66371
2.58369
1.97869
1.06369
0.468688
0.0336425
-0.0664706
-0.031629
-0.0366516
-0.0665611
-0.0914932
-0.116448
-0.136425
-0.156425
-0.16138
-0.166312
-0.171312
-0.171335
-0.186335
-0.191312
-0.206244
-0.221154
-0.206063
-0.190973
-0.190905
-0.19086
-0.185814
-0.180747
-0.175588
-0.170362
-0.160158
-0.149977
-0.144774
-0.144525
-0.159276
-0.168959
-0.17362
-0.168303
-0.143009
-0.127715
-0.127376
-0.117014
-0.0966516
-0.091267
-0.105837
-0.0954525
-0.0651357
-0.044819
-0.0295023
-0.0191855
-0.00886876
0.00649322
0.0219005
0.0422625
0.0625792
0.0929186
0.123281
0.138665
0.154072
0.194548
0.230113
0.260792
0.291538
0.332262
0.372964
0.413597
0.444344
0.46043
0.481697
0.512986
0.54414
0.575023
0.600769
0.611448
0.617104
0.59276
0.563281
0.538643
0.498891
0.439072
0.364208
0.284299
0.209186
0.143891
0.0835747
0.0332806
-0.0119457
-0.0521946
-0.0826697
-0.108303
-0.128982
-0.144661
-0.155272
-0.165905
-0.181448
-0.196833
-0.192014
-0.177014
-0.176878
-0.186719
-0.191765
-0.18224
-0.18362
-0.185566
-0.187466
-0.1881
-0.180882
-0.170588
-0.161991
-0.151086
-0.143733
-0.135928
-0.123439
-0.113665
-0.108009
-0.105045
-0.0941177
-0.0886199
-0.102941
-0.112353
-0.106968
-0.101719
-0.106493
-0.110543
-0.103959
-0.0920362
-0.075181
-0.0697738
-0.0814479
-0.0969231
-0.115656
-0.131765
-0.139548
-0.147828
-0.154774
-0.163054
-0.178054
-0.185204
-0.190928
-0.196538
-0.192081
-0.187602
-0.187986
-0.193167
-0.188235
-0.198303
-0.208371
-0.208416
-0.208416
-0.213281
-0.218054
-0.217828
-0.217557
-0.222172
-0.226742
-0.21638
-0.205995
-0.200452
-0.194887
-0.194231
-0.193552
-0.202851
-0.212104
-0.206312
-0.20043
-0.194457
-0.188371
-0.187172
-0.185905
-0.18957
-0.193122
-0.191606
-0.185023
-0.173348
-0.166493
-0.164457
-0.162262
-0.164977
-0.167692
-0.165385
-0.158009
-0.145566
-0.138032
-0.13043
-0.137828
-0.150317
-0.138054
-0.126063
-0.109321
-0.0928732
-0.0817873
-0.0711538
-0.0410407
-0.0214253
-0.0172624
-0.0135067
-0.0251131
-0.0220814
0.0306109
0.0680317
0.0752263
0.0721946
0.0289593
0.00552043
0.0018779
-0.0168325
-0.0556108
-0.089276
-0.117738
-0.135995
-0.144072
-0.1519
-0.149389
-0.146561
-0.153394
-0.159887
-0.166063
-0.171968
-0.167647
-0.158213
-0.148665
-0.149027
-0.159321
-0.164548
-0.169728
-0.169909
-0.15509
-0.160204
-0.165271
-0.150385
-0.13552
-0.130611
-0.150656
-0.330724
-0.490837
-0.570973
-0.561086
-0.246109
0.213914
1.03889
1.75382
2.26367
2.61851
2.74339
2.46328
1.65317
0.928054
0.302896
-0.00728507
-0.0274887
-0.0377376
-0.0329864
-0.0532353
-0.0935068
-0.118756
-0.133937
-0.144186
-0.154502
-0.159796
-0.165068
-0.170385
-0.170747
-0.171086
-0.176403
-0.181719
-0.182036
-0.17733
-0.182602
-0.167828
-0.172986
-0.1681
-0.163213
-0.158416
-0.153665
-0.153846
-0.153982
-0.149118
-0.144253
-0.144367
-0.144457
-0.129593
-0.109774
-0.0949548
-0.0850905
-0.0851584
-0.085181
-0.080181
-0.0702036
-0.0552715
-0.040362
-0.0254525
-0.010543
-0.000610866
0.00936651
0.0193891
0.0443665
0.0742534
0.104118
0.133982
0.158959
0.17905
0.204208
0.239434
0.274729
0.310091
0.340475
0.370882
0.406244
0.441652
0.472353
0.498213
0.52905
0.559864
0.595475
0.630973
0.631493
0.631968
0.612308
0.582534
0.537624
0.487624
0.427602
0.362557
0.292534
0.217511
0.142443
0.072353
0.0172398
-0.0280317
-0.0534163
-0.0788461
-0.104321
-0.124751
-0.140181
-0.150656
-0.151244
-0.152104
-0.1581
-0.164027
-0.169864
-0.17543
-0.180769
-0.186018
-0.186312
-0.182443
-0.174276
-0.171357
-0.178303
-0.183778
-0.182149
-0.176765
-0.1581
-0.152081
-0.144457
-0.126312
-0.109457
-0.101244
-0.0962896
-0.0941629
-0.0934389
-0.087828
-0.0822851
-0.0766968
-0.0711765
-0.0808371
-0.0906108
-0.0854977
-0.0804525
-0.0854751
-0.0905882
-0.0857692
-0.0806109
-0.0850452
-0.0886425
-0.0916742
-0.0952715
-0.0900905
-0.0881674
-0.0994344
-0.118462
-0.139819
-0.152466
-0.155091
-0.165611
-0.183281
-0.192127
-0.188643
-0.184412
-0.189819
-0.195249
-0.190656
-0.18586
-0.185837
-0.190588
-0.195181
-0.199683
-0.20414
-0.198552
-0.192896
-0.192172
-0.19138
-0.18552
-0.179593
-0.18362
-0.187602
-0.186538
-0.180362
-0.16405
-0.152647
-0.161109
-0.16948
-0.172783
-0.175995
-0.159072
-0.152014
-0.149819
-0.147511
-0.145091
-0.147534
-0.154842
-0.147014
-0.129072
-0.121041
-0.112941
-0.104751
-0.106448
-0.108167
-0.10991
-0.11181
-0.103914
-0.0963123
-0.0940046
-0.0920362
-0.0904299
-0.0842082
-0.0784163
-0.0780543
-0.0781675
-0.0486878
-0.0195249
-0.000588268
0.0180995
0.00651581
-0.00531677
-0.0023756
0.0153619
0.0729411
0.115407
0.0927375
0.0648868
0.0168778
-0.021267
-0.0395476
-0.0529865
-0.0515611
-0.0600905
-0.0885295
-0.11181
-0.124955
-0.132919
-0.140656
-0.1531
-0.165181
-0.166991
-0.158507
-0.154683
-0.160566
-0.166244
-0.166742
-0.167104
-0.162308
-0.157353
-0.162285
-0.167127
-0.1669
-0.166719
-0.156584
-0.151425
-0.146244
-0.131063
-0.120882
-0.200679
-0.290453
-0.475271
-0.605136
-0.485023
-0.214932
0.510181
1.21032
1.83543
2.3455
2.63548
2.63543
2.17541
1.55038
0.705317
0.190226
0.0301584
-0.0448869
-0.0399547
-0.0450679
-0.075181
-0.105271
-0.140362
-0.165453
-0.185543
-0.195679
-0.20086
-0.206018
-0.206154
-0.20629
-0.206425
-0.206516
-0.206584
-0.206719
-0.2069
-0.207059
-0.207149
-0.197127
-0.197036
-0.191991
-0.186991
-0.182014
-0.177059
-0.172036
-0.166991
-0.161946
-0.1569
-0.151833
-0.146765
-0.146742
-0.146697
-0.136584
-0.121471
-0.106312
-0.0961312
-0.0909729
-0.0858371
-0.070724
-0.0556335
-0.0355204
-0.0204072
-0.00531672
0.0097964
0.0249321
0.0450679
0.0652036
0.100317
0.135407
0.160634
0.185995
0.216448
0.251991
0.287511
0.323009
0.358507
0.394072
0.419887
0.445882
0.48181
0.512647
0.538258
0.563688
0.59405
0.624367
0.619683
0.609955
0.580136
0.545226
0.500226
0.450181
0.385113
0.315
0.249842
0.179661
0.109502
0.0493891
0.00427601
-0.0358824
-0.0660634
-0.101244
-0.131403
-0.151538
-0.166697
-0.176923
-0.177195
-0.177466
-0.177692
-0.177896
-0.183077
-0.188145
-0.188122
-0.188507
-0.184344
-0.181041
-0.183348
-0.18509
-0.185588
-0.182805
-0.176855
-0.1681
-0.147059
-0.129706
-0.112353
-0.102104
-0.0947058
-0.0911086
-0.089819
-0.089276
-0.089095
-0.083914
-0.0787782
-0.0787556
-0.0788461
-0.0840724
-0.0893891
-0.0848416
-0.0803619
-0.0809275
-0.0815158
-0.082104
-0.0826696
-0.0882126
-0.0887556
-0.0792986
-0.0749095
-0.0805882
-0.0912443
-0.101878
-0.107443
-0.107986
-0.108552
-0.10914
-0.109706
-0.110249
-0.110747
-0.111199
-0.111606
-0.116968
-0.12233
-0.122715
-0.123145
-0.123597
-0.118982
-0.124276
-0.12448
-0.124615
-0.124751
-0.124887
-0.124955
-0.124955
-0.119864
-0.114706
-0.119457
-0.12414
-0.118801
-0.113394
-0.107896
-0.102262
-0.101448
-0.100498
-0.0994118
-0.0982127
-0.101878
-0.105385
-0.098733
-0.0919231
-0.0849548
-0.0778733
-0.0806788
-0.0833258
-0.0758371
-0.0682579
-0.0656108
-0.0629185
-0.0552036
-0.0476244
-0.0501583
-0.0477601
-0.0355882
-0.0288009
-0.0273755
-0.0263348
-0.0254751
-0.0196153
-0.013914
-0.0184615
-0.0232579
-0.0182352
-0.013371
-0.0136199
-0.0139366
-0.0142986
-0.0147285
-0.00520357
0.00427607
0.00371045
0.00312221
0.00253397
0.00194572
-0.00866514
-0.0193439
-0.0100679
-0.000723958
0.00371042
0.00816746
0.00262445
-0.00291853
-0.00346152
-0.00402713
0.000384629
0.00479639
0.00425339
0.00368778
0.0081448
0.0127602
0.00785068
0.00386877
0.0104072
0.0169004
0.0221267
0.0249321
0.0149321
0.00183257
-0.0135294
-0.0306335
-0.0334389
-0.0413123
-0.0463801
-0.0523303
-0.0556788
-0.061991
-0.0679186
-0.0689593
-0.0699321
-0.0557466
-0.0413801
-0.0468778
-0.0523077
-0.0576697
-0.0629865
-0.0532127
-0.0434389
-0.0436652
-0.0438688
-0.0490498
-0.0542082
-0.0593439
-0.0644797
-0.059638
-0.0498417
-0.0400679
-0.0352941
-0.0405204
-0.0457014
-0.0508824
-0.0561086
-0.0513801
-0.0466742
-0.0469909
-0.0473077
-0.0476244
-0.0479185
-0.0532127
-0.0535973
-0.0440498
-0.0395023
-0.0399548
-0.0354073
-0.0408597
-0.0463349
-0.0518552
-0.0474208
-0.0430543
-0.0437783
-0.0445927
-0.0454525
-0.0463575
-0.0473077
-0.0483258
-0.049457
-0.0507013
-0.0468552
-0.0382579
-0.0197511
0.00364255
0.0269457
0.0401131
0.0230769
0.0358823
0.0735747
0.101154
0.118597
0.0859276
0.0181448
-0.0197511
-0.0377828
-0.0459729
-0.0542987
-0.0627376
-0.0712217
-0.0946833
-0.118077
-0.126312
-0.134389
-0.137217
-0.129751
-0.127036
-0.129027
-0.130679
-0.132036
-0.123167
-0.114118
-0.129819
-0.145272
-0.14552
-0.145634
-0.145679
-0.145679
-0.140611
-0.13552
-0.135385
-0.135204
-0.125023
-0.124819
-0.15957
-0.264276
-0.468982
-0.583733
-0.573484
-0.293213
0.247081
0.872421
1.55776
2.05805
2.4383
2.58851
2.60873
1.99398
1.08425
0.509525
0.0597964
-0.0249774
-0.00479637
-0.0196154
-0.0444344
-0.0791629
-0.113801
-0.138462
-0.163145
-0.177851
-0.197579
-0.197262
-0.1969
-0.201538
-0.206176
-0.210837
-0.21552
-0.215226
-0.214955
-0.209661
-0.204321
-0.203914
-0.203462
-0.208009
-0.212557
-0.202172
-0.19181
-0.186425
-0.180995
-0.180543
-0.180068
-0.17957
-0.174095
-0.158665
-0.148235
-0.14276
-0.13724
-0.131697
-0.126131
-0.120588
-0.110045
-0.0995023
-0.0839819
-0.0684841
-0.0529864
-0.0374887
-0.0219683
-0.00642532
0.0141403
0.0347285
0.0552941
0.0408371
0.101403
0.122014
0.147715
0.173529
0.209457
0.250453
0.286357
0.322308
0.353439
0.384751
0.411222
0.437557
0.468552
0.504367
0.535113
0.560792
0.591448
0.607104
0.60276
0.588281
0.553665
0.519027
0.474367
0.419706
0.365091
0.30052
0.225973
0.161403
0.10181
0.0522398
0.00769231
-0.0369004
-0.0765385
-0.101154
-0.120747
-0.135407
-0.15009
-0.154751
-0.159389
-0.164005
-0.163597
-0.168145
-0.172715
-0.177489
-0.18276
-0.178982
-0.175747
-0.177443
-0.177851
-0.180792
-0.180882
-0.167873
-0.152647
-0.135769
-0.11819
-0.105452
-0.0954751
-0.0896154
-0.0864027
-0.0802715
-0.0745475
-0.0737556
-0.073009
-0.0773529
-0.0818552
-0.0815158
-0.0813122
-0.0812443
-0.0812443
-0.0813348
-0.0814706
-0.0816516
-0.0818099
-0.0819457
-0.0821493
-0.0824887
-0.083009
-0.0836199
-0.0841402
-0.089638
-0.0952488
-0.101041
-0.107059
-0.0980543
-0.0987782
-0.0993212
-0.104751
-0.110068
-0.115317
-0.12052
-0.115679
-0.110769
-0.110747
-0.110633
-0.115452
-0.120204
-0.119887
-0.119547
-0.124253
-0.128937
-0.118597
-0.10819
-0.107715
-0.107127
-0.111425
-0.115633
-0.119751
-0.123823
-0.117851
-0.111787
-0.110792
-0.109547
-0.108258
-0.106946
-0.105362
-0.103054
-0.0949547
-0.086018
-0.081923
-0.0884841
-0.102285
-0.104728
-0.100068
-0.102737
-0.111832
-0.11181
-0.120226
-0.130814
-0.138122
-0.127014
-0.114751
-0.112127
-0.109593
-0.10733
-0.105204
-0.108167
-0.11129
-0.104615
-0.09819
-0.0920588
-0.0859954
-0.0900678
-0.0943212
-0.098733
-0.10328
-0.0879411
-0.0826923
-0.0825339
-0.0823982
-0.087285
-0.0921945
-0.0921041
-0.0870362
-0.0769909
-0.0719909
-0.0670362
-0.0620361
-0.0669909
-0.0719909
-0.0770362
-0.0821719
-0.0823529
-0.0725339
-0.0577149
-0.0628732
-0.078009
-0.0831447
-0.0833257
-0.0735746
-0.0638687
-0.0591854
-0.0545022
-0.0598415
-0.0652262
-0.0656786
-0.0662669
-0.0619682
-0.0577148
-0.0585067
-0.059389
-0.0503619
-0.0414252
-0.0525565
-0.0638234
-0.0552261
-0.0317872
0.0064933
0.0246381
0.00762453
0.00545258
0.0280996
0.0655431
0.107783
0.0948644
0.0418553
0.00873312
-0.0145022
-0.0378279
-0.0562443
-0.0697737
-0.0833936
-0.0969909
-0.110452
-0.123688
-0.136674
-0.149434
-0.161946
-0.16414
-0.151041
-0.14767
-0.144027
-0.145068
-0.145837
-0.156403
-0.166833
-0.172195
-0.177489
-0.167715
-0.157896
-0.157986
-0.158009
-0.152986
-0.142941
-0.122896
-0.157851
-0.282805
-0.41776
-0.567692
-0.567579
-0.392443
0.132647
0.96267
1.62765
2.17262
2.52265
2.74769
2.42778
1.83287
1.12292
0.362919
0.0929412
-0.0220136
-0.0369231
-0.0217873
-0.0466516
-0.0815159
-0.111425
-0.141403
-0.151403
-0.146403
-0.181357
-0.196244
-0.201109
-0.205996
-0.20095
-0.19595
-0.190882
-0.185792
-0.185679
-0.185543
-0.18543
-0.185339
-0.185226
-0.185068
-0.179864
-0.174615
-0.179321
-0.184005
-0.17371
-0.163462
-0.148258
-0.143032
-0.13776
-0.132466
-0.132127
-0.131787
-0.131493
-0.121222
-0.10595
-0.0956787
-0.0854072
-0.0800679
-0.0746606
-0.064276
-0.053914
-0.028552
-0.00319005
0.00717194
0.0175339
0.0378959
0.0582579
0.0786651
0.0941176
0.124547
0.154955
0.190385
0.225905
0.256606
0.292398
0.3281
0.363778
0.40457
0.445543
0.476719
0.507851
0.533756
0.559525
0.575204
0.590769
0.611244
0.626674
0.627059
0.602398
0.552692
0.497919
0.443077
0.38319
0.313258
0.248303
0.183394
0.118507
0.0586425
0.0088009
-0.0360181
-0.0659276
-0.0859276
-0.105995
-0.126131
-0.141244
-0.15638
-0.166629
-0.176946
-0.182217
-0.182489
-0.182828
-0.183462
-0.184842
-0.186742
-0.194118
-0.201357
-0.202715
-0.201674
-0.186855
-0.169005
-0.163665
-0.156629
-0.143462
-0.131719
-0.11767
-0.106855
-0.0995022
-0.093371
-0.10276
-0.112172
-0.111471
-0.110905
-0.10552
-0.0952941
-0.0852262
-0.0802036
-0.0851583
-0.0952488
-0.105385
-0.105566
-0.0957918
-0.0910407
-0.0913122
-0.0916063
-0.096742
-0.101448
-0.100566
-0.0989366
-0.102172
-0.105724
-0.106561
-0.115814
-0.128167
-0.138484
-0.150543
-0.158824
-0.165814
-0.185724
-0.202195
-0.199887
-0.196222
-0.201629
-0.207036
-0.207557
-0.207964
-0.198394
-0.188394
-0.19819
-0.207851
-0.207376
-0.206878
-0.206357
-0.205724
-0.199977
-0.194163
-0.193281
-0.192285
-0.191176
-0.19
-0.193801
-0.197534
-0.191176
-0.184615
-0.182851
-0.18095
-0.173891
-0.166697
-0.164366
-0.161878
-0.159253
-0.156538
-0.15371
-0.150769
-0.147738
-0.139683
-0.131629
-0.128552
-0.12543
-0.122308
-0.119299
-0.111538
-0.104118
-0.102036
-0.100271
-0.0938687
-0.0878506
-0.0872172
-0.0869457
-0.0919909
-0.0973755
-0.0880769
-0.0790723
-0.0703167
-0.0617194
-0.0583031
-0.0451131
-0.0221493
-0.00936649
-0.0167873
-0.00943434
0.0227376
0.0497964
0.0867421
0.0635747
0.0152715
-0.0181674
-0.0417646
-0.0505203
-0.0593665
-0.0681447
-0.0767873
-0.105317
-0.133665
-0.141787
-0.144615
-0.142059
-0.13914
-0.14086
-0.14224
-0.153348
-0.164253
-0.159932
-0.155475
-0.150882
-0.146176
-0.146357
-0.146425
-0.151425
-0.156448
-0.151516
-0.146561
-0.136538
-0.126516
-0.116516
-0.146493
-0.241471
-0.371471
-0.536471
-0.566493
-0.496561
0.00837106
0.768326
1.45826
2.10817
2.48808
2.76799
2.4929
2.04781
1.29265
0.462421
0.167217
-0.0379638
-0.0381674
-0.0134163
-0.0287104
-0.00902715
-0.094276
-0.129457
-0.154661
-0.179887
-0.175136
-0.170407
-0.170679
-0.17095
-0.176199
-0.181425
-0.186629
-0.19181
-0.186991
-0.177172
-0.162376
-0.152557
-0.162715
-0.172828
-0.172919
-0.173054
-0.168213
-0.163326
-0.158416
-0.148507
-0.138597
-0.133665
-0.13371
-0.128756
-0.118801
-0.103824
-0.0888235
-0.0838235
-0.0838235
-0.0838009
-0.0787557
-0.0586878
-0.0385973
-0.0285294
-0.0184842
0.00158371
0.0216742
0.0367873
0.0469231
0.0720362
0.0971041
0.132172
0.167285
0.182489
0.20276
0.238054
0.273416
0.303891
0.339434
0.384932
0.425453
0.451109
0.4769
0.502896
0.533778
0.559434
0.589932
0.625317
0.645701
0.641086
0.621448
0.591787
0.546991
0.497059
0.432104
0.352149
0.277217
0.202308
0.132421
0.0625566
0.00760181
-0.0424434
-0.0724887
-0.0975339
-0.112534
-0.127489
-0.147421
-0.16733
-0.172285
-0.172285
-0.177262
-0.182217
-0.177149
-0.172059
-0.1769
-0.181855
-0.182262
-0.183303
-0.180136
-0.177127
-0.183778
-0.188122
-0.184027
-0.176923
-0.167036
-0.15552
-0.137828
-0.121335
-0.10681
-0.0958597
-0.0938235
-0.0932805
-0.093733
-0.0889366
-0.0788009
-0.0736425
-0.0783258
-0.0833258
-0.0884163
-0.0936199
-0.088914
-0.084095
-0.0841855
-0.084276
-0.0843665
-0.0844118
-0.0894796
-0.0946154
-0.0947964
-0.0949774
-0.0951357
-0.105204
-0.105204
-0.110226
-0.115271
-0.105339
-0.0954298
-0.100498
-0.105543
-0.105566
-0.105543
-0.110498
-0.115498
-0.115566
-0.115271
-0.115294
-0.11371
-0.111312
-0.109683
-0.114095
-0.122081
-0.128439
-0.137127
-0.142896
-0.149751
-0.161946
-0.171923
-0.184231
-0.192738
-0.193462
-0.188394
-0.177738
-0.176855
-0.185724
-0.189412
-0.187896
-0.186109
-0.184072
-0.181833
-0.174389
-0.166742
-0.158891
-0.155882
-0.157738
-0.14948
-0.141086
-0.132602
-0.124004
-0.125249
-0.126403
-0.122557
-0.118778
-0.110158
-0.101765
-0.0986199
-0.0957919
-0.0933484
-0.091267
-0.0945249
-0.0980995
-0.086991
-0.0761991
-0.0707014
-0.065362
-0.0701584
-0.0750453
-0.0800226
-0.0851357
-0.0803846
-0.0757014
-0.0760634
-0.0764932
-0.071991
-0.0675113
-0.0730543
-0.0786651
-0.0743665
-0.0651583
-0.0560633
-0.0520362
-0.0580543
-0.0641629
-0.0654072
-0.0417873
-0.00832574
0.00997742
0.0281222
0.0161539
0.00404982
0.03681
0.0694571
0.101968
0.114299
0.056448
0.00350683
-0.0194796
-0.0375565
-0.0557692
-0.0740497
-0.0774208
-0.0857466
-0.108982
-0.126991
-0.129774
-0.132262
-0.149434
-0.151267
-0.142783
-0.13905
-0.135045
-0.130769
-0.136267
-0.141629
-0.146833
-0.151968
-0.147036
-0.141991
-0.141855
-0.141719
-0.141584
-0.14138
-0.136154
-0.120973
-0.105837
-0.180701
-0.100566
-0.440407
-0.605226
-0.430045
-0.199864
0.590272
1.34036
1.87543
2.35548
2.60554
2.69063
2.22075
1.65088
0.825973
0.221018
0.0710633
-0.033914
-0.0488462
-0.0687557
-0.0936878
-0.118665
-0.143665
-0.163643
-0.178597
-0.188575
-0.188552
-0.193484
-0.203371
-0.208258
-0.208167
-0.2081
-0.203054
-0.197964
-0.197828
-0.19767
-0.202489
-0.20733
-0.202195
-0.197059
-0.191923
-0.186765
-0.181584
-0.17638
-0.176154
-0.175973
-0.175837
-0.160656
-0.14543
-0.140158
-0.134842
-0.129525
-0.124208
-0.113914
-0.103643
-0.0933484
-0.0830317
-0.0727376
-0.0624434
-0.0521041
-0.0417647
-0.0314706
-0.0162217
0.00402715
0.0293439
0.0497285
0.0651584
0.0805882
0.105973
0.136335
0.17181
0.207443
0.243167
0.273982
0.309751
0.345475
0.376335
0.40733
0.448484
0.489706
0.515679
0.536425
0.562081
0.58767
0.59819
0.613643
0.599072
0.584457
0.539751
0.489977
0.425204
0.35543
0.280588
0.205724
0.14586
0.0860181
0.0262443
-0.0234842
-0.0632353
-0.098009
-0.117851
-0.137715
-0.152557
-0.162376
-0.167195
-0.172014
-0.186833
-0.191652
-0.186448
-0.181222
-0.180973
-0.181041
-0.185724
-0.191923
-0.193846
-0.195023
-0.190226
-0.181923
-0.170317
-0.156403
-0.145385
-0.133235
-0.125724
-0.120407
-0.107873
-0.0993439
-0.098552
-0.0882353
-0.0881674
-0.0929186
-0.0976923
-0.0926018
-0.0876471
-0.0927828
-0.0978959
-0.0929638
-0.0880543
-0.0931222
-0.09819
-0.0983258
-0.0985068
-0.0886878
-0.0788688
-0.0840272
-0.0891403
-0.0992308
-0.109321
-0.104434
-0.0995928
-0.0947511
-0.0898643
-0.0949321
-0.1
-0.105068
-0.110113
-0.105158
-0.100226
-0.100317
-0.100362
-0.105362
-0.110362
-0.115362
-0.120362
-0.120091
-0.119208
-0.117692
-0.115498
-0.108643
-0.107783
-0.114683
-0.115272
-0.118507
-0.123959
-0.130634
-0.148167
-0.163688
-0.176493
-0.185928
-0.181901
-0.176878
-0.176131
-0.175204
-0.174163
-0.172805
-0.171131
-0.169163
-0.1619
-0.15448
-0.1519
-0.149072
-0.145995
-0.142783
-0.139457
-0.136018
-0.132466
-0.128869
-0.120204
-0.111606
-0.108077
-0.104774
-0.101719
-0.0989593
-0.0965159
-0.089457
-0.0777828
-0.0763801
-0.0852489
-0.0893892
-0.0887557
-0.0883258
-0.0780769
-0.0779412
-0.0779186
-0.0779864
-0.0781222
-0.0783032
-0.0785747
-0.0789819
-0.0794796
-0.0700226
-0.0605657
-0.0661086
-0.0716742
-0.0773077
-0.0830543
-0.0739141
-0.0598416
-0.0458145
-0.0268552
-0.0029638
0.0108823
0.00966063
0.0132805
0.0267421
0.0699547
0.128009
0.125995
0.0788914
0.0267195
-0.0305882
-0.0481222
-0.0458371
-0.0436878
-0.0516516
-0.0797285
-0.107919
-0.116199
-0.124548
-0.133009
-0.131539
-0.130045
-0.133416
-0.136561
-0.139389
-0.146923
-0.154163
-0.156154
-0.157851
-0.154163
-0.150181
-0.155928
-0.161471
-0.156878
-0.152195
-0.152421
-0.152647
-0.147851
-0.142919
-0.137919
-0.132873
-0.127805
-0.122783
-0.117805
-0.172851
-0.297896
-0.427941
-0.567986
-0.483032
-0.253054
0.3669
1.19181
1.78674
2.2867
2.57167
2.78167
2.36167
1.78167
1.05158
0.301448
0.106335
-0.0237557
-0.0288462
-0.0189366
-0.0540271
-0.0941176
-0.124231
-0.154367
-0.15948
-0.16457
-0.179661
-0.194729
-0.199751
-0.204751
-0.204774
-0.204819
-0.204864
-0.20491
-0.204932
-0.20491
-0.199864
-0.194819
-0.194774
-0.194774
-0.184819
-0.174796
-0.174683
-0.174548
-0.174434
-0.174344
-0.169253
-0.164163
-0.159027
-0.153891
-0.148756
-0.143597
-0.138416
-0.123235
-0.108054
-0.0928959
-0.0777602
-0.0725566
-0.0722851
-0.0670362
-0.05681
-0.036629
-0.0114932
0.00366516
0.0188688
0.0391629
0.0595701
0.0751131
0.0907466
0.126357
0.156968
0.207647
0.248529
0.269683
0.290837
0.316787
0.347511
0.392986
0.428371
0.463756
0.49414
0.51448
0.534729
0.559887
0.580023
0.600136
0.610226
0.605339
0.575453
0.535543
0.475634
0.405724
0.335769
0.270769
0.195769
0.115769
0.0557918
0.000837095
-0.0391403
-0.0741403
-0.0991177
-0.124095
-0.129118
-0.129163
-0.154163
-0.169118
-0.179072
-0.18905
-0.18405
-0.179118
-0.179253
-0.179706
-0.180792
-0.182489
-0.184796
-0.186923
-0.183258
-0.17681
-0.171629
-0.163484
-0.152805
-0.140792
-0.132783
-0.126629
-0.103054
-0.0927602
-0.0908371
-0.0897059
-0.0890724
-0.0884389
-0.0877376
-0.0871946
-0.0818552
-0.0767421
-0.0768326
-0.0769005
-0.0769457
-0.0820136
-0.0921041
-0.0972398
-0.0924208
-0.0876244
-0.0878507
-0.0880543
-0.0882353
-0.0934389
-0.0986652
-0.0988688
-0.0990724
-0.0893213
-0.0795928
-0.089819
-0.1
-0.105181
-0.11043
-0.110769
-0.110769
-0.110339
-0.109095
-0.107014
-0.10552
-0.109751
-0.117896
-0.124864
-0.134367
-0.141199
-0.148846
-0.166674
-0.181493
-0.188235
-0.191629
-0.187421
-0.182692
-0.177557
-0.172443
-0.177262
-0.181787
-0.186063
-0.190158
-0.184118
-0.177873
-0.176425
-0.174706
-0.172783
-0.170769
-0.168665
-0.166448
-0.164095
-0.156538
-0.148824
-0.14095
-0.132941
-0.134842
-0.136652
-0.133371
-0.130023
-0.126606
-0.123167
-0.114774
-0.106538
-0.103462
-0.100633
-0.0931674
-0.0860633
-0.0842986
-0.0828959
-0.0818778
-0.0811538
-0.0807013
-0.0804525
-0.0803846
-0.0754977
-0.0657918
-0.0611312
-0.0664932
-0.0720362
-0.0677375
-0.058552
-0.0494796
-0.0304751
-0.0115385
0.00230768
0.0160407
0.0196606
0.0131448
0.0564932
0.109706
0.112805
0.110769
0.0485747
-0.0137557
-0.0261991
-0.0387783
-0.0515159
-0.0644344
-0.0724434
-0.0805656
-0.103846
-0.127172
-0.135543
-0.143982
-0.147489
-0.14595
-0.129457
-0.117557
-0.130452
-0.143077
-0.155407
-0.167466
-0.164276
-0.160792
-0.156991
-0.152919
-0.15862
-0.164118
-0.159457
-0.154706
-0.154887
-0.150045
-0.140158
-0.135158
-0.135068
-0.134977
-0.134887
-0.119887
-0.0999095
-0.174887
-0.264842
-0.439796
-0.619751
-0.484706
-0.319661
0.550339
1.40029
1.97523
2.50514
2.70009
2.75509
2.09507
1.41502
0.679955
0.114842
0.0197059
-0.0454073
-0.0254525
-0.0254751
-0.070543
-0.105611
-0.130679
-0.145792
-0.155905
-0.170995
-0.181086
-0.186131
-0.186131
-0.186176
-0.186267
-0.186357
-0.186448
-0.186493
-0.186493
-0.186471
-0.186425
-0.186357
-0.181267
-0.176199
-0.171131
-0.166018
-0.160882
-0.155747
-0.160611
-0.165498
-0.155407
-0.145271
-0.135091
-0.12991
-0.124729
-0.119548
-0.114367
-0.109186
-0.104005
-0.0888235
-0.0736199
-0.068371
-0.0630995
-0.0478281
-0.0275566
-0.0123077
0.00298643
0.0233258
0.0437557
0.064276
0.0898869
0.115588
0.146335
0.177081
0.207964
0.239027
0.275113
0.311199
0.342036
0.367624
0.398145
0.428597
0.464027
0.499434
0.529819
0.565181
0.575475
0.585701
0.600882
0.615996
0.606041
0.621086
0.536267
0.491538
0.431742
0.366855
0.301878
0.236765
0.166538
0.10129
0.0460181
-0.00425337
-0.0495701
-0.0851584
-0.110973
-0.131697
-0.137511
-0.147873
-0.162986
-0.173054
-0.1831
-0.1931
-0.178054
-0.177851
-0.187466
-0.192421
-0.192783
-0.193869
-0.195701
-0.196968
-0.192534
-0.184208
-0.172081
-0.15733
-0.150158
-0.142059
-0.128665
-0.118326
-0.106086
-0.0921946
-0.0808824
-0.08
-0.0894118
-0.0887331
-0.0830543
-0.0876018
-0.0923756
-0.0873303
-0.0824208
-0.0826245
-0.0824661
-0.0917647
-0.10043
-0.0884389
-0.0766516
-0.0752263
-0.0770362
-0.0872625
-0.100543
-0.111787
-0.124253
-0.14776
-0.169638
-0.174593
-0.180566
-0.193032
-0.199276
-0.194593
-0.190045
-0.185633
-0.181131
-0.186448
-0.191561
-0.191493
-0.191312
-0.191041
-0.190747
-0.19043
-0.190068
-0.189661
-0.189163
-0.188575
-0.187941
-0.192285
-0.196606
-0.18586
-0.185068
-0.184231
-0.183303
-0.182285
-0.186154
-0.189909
-0.193597
-0.197195
-0.180701
-0.164095
-0.162353
-0.160452
-0.163394
-0.166222
-0.159005
-0.151674
-0.154231
-0.156674
-0.154005
-0.151222
-0.153303
-0.155385
-0.147466
-0.13457
-0.116697
-0.108914
-0.116109
-0.118733
-0.111629
-0.0999096
-0.08862
-0.0677602
-0.0373303
-0.027353
-0.0178055
-0.0136652
-0.0098869
0.043552
0.0966742
0.0795022
0.0970814
-0.000497788
-0.048258
-0.0561991
-0.0643213
-0.0776245
-0.091086
-0.11457
-0.138077
-0.141652
-0.145181
-0.163597
-0.18181
-0.174819
-0.167602
-0.160566
-0.152692
-0.159434
-0.16586
-0.177014
-0.187941
-0.173665
-0.169231
-0.164661
-0.15991
-0.160023
-0.160091
-0.160158
-0.160204
-0.155204
-0.140226
-0.125271
-0.110271
-0.0952262
-0.190158
-0.320091
-0.465136
-0.610272
-0.565339
-0.485339
0.229638
0.984593
1.65955
2.3145
2.58443
2.81432
2.45412
2.03385
1.15862
0.388416
0.123145
-0.0771719
-0.042466
-0.0177375
-0.0429864
-0.0732127
-0.108462
-0.138733
-0.159005
-0.174276
-0.174547
-0.174842
-0.180158
-0.185452
-0.190724
-0.195973
-0.201199
-0.201425
-0.191674
-0.186946
-0.182172
-0.177376
-0.177557
-0.177738
-0.182919
-0.183122
-0.173348
-0.16362
-0.153937
-0.149163
-0.149299
-0.149434
-0.14957
-0.144729
-0.12991
-0.125068
-0.120204
-0.110362
-0.100543
-0.095724
-0.090905
-0.081086
-0.071267
-0.051448
-0.0316063
-0.0216968
-0.0117647
-0.00187783
0.0129864
0.037828
0.0677149
0.0976471
0.127692
0.157896
0.188145
0.223439
0.253756
0.284095
0.319661
0.360453
0.396176
0.426991
0.457376
0.482557
0.512715
0.542851
0.567896
0.587851
0.592715
0.597489
0.582285
0.557104
0.511833
0.466471
0.416131
0.460814
0.280566
0.200385
0.135181
0.0699547
0.0146606
-0.0307014
-0.0660181
-0.0913348
-0.121629
-0.1419
-0.152172
-0.162466
-0.167805
-0.173281
-0.17362
-0.174231
-0.179842
-0.185317
-0.190679
-0.191719
-0.178575
-0.171109
-0.179276
-0.186946
-0.184005
-0.17776
-0.178032
-0.175249
-0.159502
-0.137534
-0.114502
-0.0979638
-0.0932579
-0.0924887
-0.085181
-0.079095
-0.0789366
-0.0786425
-0.0782579
-0.0779864
-0.0778507
-0.0778507
-0.0779638
-0.0781674
-0.0784615
-0.0738009
-0.0691629
-0.0745249
-0.0798869
-0.0852715
-0.0907013
-0.0911991
-0.0917421
-0.0922851
-0.0921945
-0.0963801
-0.100045
-0.0982805
-0.0979864
-0.0993665
-0.104412
-0.107873
-0.113416
-0.130792
-0.148778
-0.161493
-0.170588
-0.17629
-0.179163
-0.18
-0.180724
-0.181335
-0.18181
-0.182127
-0.182308
-0.187376
-0.192308
-0.187104
-0.181742
-0.181222
-0.180611
-0.179932
-0.179186
-0.168348
-0.167421
-0.16638
-0.170226
-0.173959
-0.172557
-0.171018
-0.169299
-0.167421
-0.16043
-0.153326
-0.151086
-0.14871
-0.146176
-0.143507
-0.140792
-0.137986
-0.12509
-0.112081
-0.108982
-0.105882
-0.107783
-0.109796
-0.101968
-0.0944118
-0.0871267
-0.0800679
-0.0828054
-0.0864027
-0.0854299
-0.084819
-0.0795701
-0.074638
-0.0699774
-0.0655656
-0.0663575
-0.0673982
-0.0686425
-0.0650679
-0.0566742
-0.0284389
-0.055362
0.0175792
0.030362
0.0129865
0.000429876
0.0526923
0.099819
0.101878
0.0938235
0.0255882
-0.0327828
-0.0512217
-0.0697059
-0.0732805
-0.0769005
-0.0804977
-0.0888688
-0.122014
-0.139864
-0.147443
-0.154751
-0.151742
-0.148394
-0.144751
-0.140814
-0.141584
-0.142149
-0.147534
-0.152828
-0.153032
-0.148167
-0.138258
-0.133303
-0.138303
-0.143281
-0.143235
-0.138235
-0.128281
-0.118326
-0.108371
-0.243416
-0.398462
-0.508529
-0.60362
-0.27871
0.0861765
0.896018
1.66084
2.1307
2.54561
2.6855
2.62536
1.8252
1.07502
0.454842
0.0196606
-0.000542982
-0.0207466
-0.0409276
-0.0661086
-0.0912896
-0.111493
-0.131742
-0.151991
-0.167195
-0.182376
-0.192557
-0.197738
-0.202919
-0.208077
-0.203167
-0.198281
-0.193416
-0.188529
-0.18862
-0.188733
-0.193869
-0.199005
-0.19414
-0.184231
-0.174276
-0.169299
-0.174299
-0.174299
-0.159299
-0.149299
-0.139299
-0.139231
-0.139095
-0.133959
-0.128824
-0.11871
-0.10862
-0.0935294
-0.0784389
-0.0783032
-0.0781222
-0.0679412
-0.0527602
-0.0376244
-0.0224887
-0.00733032
0.00782805
0.0279864
0.04819
0.0734163
0.0986199
0.128801
0.158982
0.189186
0.219525
0.249751
0.285362
0.316086
0.351742
0.387353
0.418167
0.449163
0.485204
0.521244
0.546991
0.567489
0.582896
0.598213
0.603507
0.603778
0.56405
0.524299
0.464434
0.399525
0.334593
0.269638
0.199683
0.134728
0.0697737
0.00481898
-0.0401132
-0.0800227
-0.0999548
-0.11991
-0.134864
-0.144864
-0.149842
-0.154796
-0.164774
-0.174751
-0.169706
-0.164683
-0.164661
-0.164661
-0.164706
-0.165498
-0.167104
-0.169163
-0.171629
-0.167738
-0.157353
-0.148552
-0.146335
-0.141719
-0.130023
-0.117489
-0.100136
-0.0864253
-0.0811312
-0.0786199
-0.073009
-0.0723982
-0.0768326
-0.0763348
-0.0759276
-0.0706108
-0.065362
-0.0702262
-0.0752036
-0.0752262
-0.0752941
-0.0754298
-0.0756108
-0.0808144
-0.0860407
-0.0812443
-0.0764027
-0.0865158
-0.0966063
-0.0916968
-0.0868325
-0.0870362
-0.0872624
-0.092466
-0.0976244
-0.102738
-0.107919
-0.108145
-0.1081
-0.107511
-0.105973
-0.108846
-0.111878
-0.111199
-0.113394
-0.118575
-0.126878
-0.132534
-0.139751
-0.156991
-0.173032
-0.186109
-0.194977
-0.186516
-0.18681
-0.186674
-0.181516
-0.176199
-0.180633
-0.184842
-0.178824
-0.172624
-0.166222
-0.159661
-0.157941
-0.156041
-0.163959
-0.171697
-0.169344
-0.16681
-0.154095
-0.141267
-0.143326
-0.145204
-0.1419
-0.138529
-0.130113
-0.121674
-0.113213
-0.104706
-0.101176
-0.097828
-0.0996605
-0.101787
-0.0992533
-0.0970813
-0.0902488
-0.0837556
-0.0775791
-0.0716967
-0.0761311
-0.0808144
-0.0807239
-0.0807917
-0.0809954
-0.0662895
-0.0616741
-0.0621266
-0.0626696
-0.0683709
-0.0741854
-0.0650452
-0.0559728
-0.0419909
-0.0230768
0.00576933
0.0294797
0.0180544
0.0114707
0.0350227
0.0681675
0.121244
0.129208
0.0670137
0.0196155
-0.0279637
-0.0507013
-0.0485293
-0.0464705
-0.0545022
-0.072647
-0.095837
-0.109095
-0.117443
-0.125792
-0.134095
-0.142217
-0.140113
-0.13776
-0.145181
-0.152353
-0.149231
-0.145792
-0.147059
-0.148054
-0.148823
-0.154344
-0.159683
-0.159955
-0.160204
-0.150385
-0.140452
-0.14043
-0.140362
-0.140271
-0.140181
-0.120136
-0.115136
-0.175113
-0.280068
-0.480023
-0.599977
-0.564955
-0.279955
0.360045
1.025
1.72491
2.25484
2.61482
2.63484
2.36986
1.71484
0.794774
0.294683
0.034638
-0.0454299
-0.0355204
-0.0555656
-0.0905656
-0.120611
-0.145701
-0.160814
-0.175928
-0.18095
-0.185905
-0.195837
-0.205747
-0.210701
-0.200724
-0.205792
-0.210882
-0.205905
-0.20086
-0.205814
-0.210769
-0.200724
-0.190701
-0.180701
-0.170656
-0.17552
-0.180339
-0.180136
-0.17991
-0.174706
-0.164525
-0.149344
-0.139163
-0.133959
-0.12871
-0.128416
-0.1231
-0.112805
-0.102557
-0.0873303
-0.0770815
-0.07181
-0.0614932
-0.0511765
-0.0358597
-0.010543
0.00475112
0.0200226
0.0403394
0.0607013
0.0761538
0.0917195
0.122421
0.153213
0.188914
0.15957
0.255362
0.281335
0.312579
0.343891
0.38491
0.425701
0.46129
0.486787
0.517285
0.537783
0.563258
0.578665
0.593959
0.609186
0.609389
0.59957
0.564728
0.519887
0.460091
0.405294
0.350453
0.285566
0.215679
0.150814
0.0859502
0.0311086
-0.0187104
-0.0535747
-0.0784842
-0.0934163
-0.103371
-0.123281
-0.143145
-0.152964
-0.162738
-0.167579
-0.162466
-0.157308
-0.162195
-0.167489
-0.168326
-0.170113
-0.172466
-0.174683
-0.175837
-0.164389
-0.149909
-0.147104
-0.141674
-0.134389
-0.126968
-0.110747
-0.0974435
-0.0932353
-0.0912444
-0.0853846
-0.0797964
-0.084095
-0.0884615
-0.0829638
-0.0776245
-0.0674208
-0.0622851
-0.0772172
-0.087172
-0.0921493
-0.0971946
-0.0973077
-0.0924208
-0.0824661
-0.077534
-0.0826244
-0.0876923
-0.0927376
-0.0978281
-0.0979638
-0.0930543
-0.0830996
-0.0881222
-0.103122
-0.108167
-0.113281
-0.118439
-0.118643
-0.118869
-0.118733
-0.118009
-0.116561
-0.119321
-0.122285
-0.120769
-0.122443
-0.122828
-0.126018
-0.141878
-0.158937
-0.167082
-0.173529
-0.183145
-0.188846
-0.190747
-0.19138
-0.19086
-0.190385
-0.194955
-0.199389
-0.198665
-0.192692
-0.181471
-0.174932
-0.178394
-0.181358
-0.18414
-0.186787
-0.179299
-0.171629
-0.168778
-0.165769
-0.157647
-0.149389
-0.146041
-0.142602
-0.13414
-0.125679
-0.122172
-0.11862
-0.115091
-0.116719
-0.118552
-0.110656
-0.103032
-0.0957014
-0.0886878
-0.0870136
-0.0856561
-0.0896154
-0.0938462
-0.0883258
-0.0830317
-0.0778055
-0.0727828
-0.0728055
-0.0729638
-0.0832579
-0.0936425
-0.0791177
-0.0697059
-0.060362
-0.0461313
-0.0170136
-0.00294119
0.00608596
0.00997737
0.0137104
0.0623077
0.125792
0.119186
0.0824887
0.0306108
-0.021448
-0.0336878
-0.0361086
-0.0486426
-0.0662896
-0.0790724
-0.0919684
-0.114932
-0.133009
-0.141267
-0.149661
-0.1481
-0.146471
-0.149706
-0.152805
-0.155814
-0.158643
-0.156244
-0.153597
-0.160656
-0.167376
-0.168733
-0.169751
-0.170498
-0.171086
-0.166516
-0.161878
-0.162149
-0.162262
-0.157195
-0.152104
-0.147036
-0.136991
-0.126968
-0.116968
-0.106968
-0.176946
-0.291901
-0.441833
-0.611742
-0.561697
-0.446697
0.263281
1.09324
1.72321
2.32821
2.60317
2.84808
2.48303
2.08803
1.23801
0.422964
0.157896
-0.0821946
-0.0522625
-0.0223077
-0.0373756
-0.0574661
-0.0825566
-0.107624
-0.142624
-0.172579
-0.187557
-0.202557
-0.202624
-0.202715
-0.202783
-0.202805
-0.202805
-0.202783
-0.202715
-0.202602
-0.197466
-0.187353
-0.17224
-0.167104
-0.176968
-0.181833
-0.181697
-0.181584
-0.181493
-0.17638
-0.166244
-0.161086
-0.155905
-0.150701
-0.145475
-0.140249
-0.135045
-0.119864
-0.129661
-0.0993891
-0.0990724
-0.0887556
-0.0784389
-0.0681901
-0.058009
-0.0377602
-0.0174661
0.0128733
0.0332805
0.0388235
0.0494344
0.0800905
0.115747
0.146448
0.172308
0.203484
0.234661
0.270701
0.306516
0.342104
0.377602
0.408054
0.438484
0.468869
0.494231
0.51457
0.544796
0.57991
0.604932
0.619887
0.609887
0.589955
0.565091
0.530249
0.480339
0.425385
0.365453
0.300475
0.230339
0.160113
0.0898643
0.0245475
-0.0158371
-0.0564253
-0.0772624
-0.0980995
-0.128846
-0.159389
-0.169638
-0.179819
-0.179977
-0.180045
-0.18
-0.179842
-0.18457
-0.189525
-0.194932
-0.201018
-0.197873
-0.194548
-0.190747
-0.183733
-0.177964
-0.169321
-0.152919
-0.135294
-0.126584
-0.119548
-0.104321
-0.0929186
-0.085181
-0.0786426
-0.0831901
-0.0876245
-0.0869457
-0.0863801
-0.0859503
-0.0856335
-0.0904525
-0.0954978
-0.0953394
-0.0945702
-0.0832353
-0.0813123
-0.0797964
-0.0841856
-0.091629
-0.102896
-0.116923
-0.133439
-0.151244
-0.160068
-0.166991
-0.176538
-0.182421
-0.18457
-0.185815
-0.186222
-0.186742
-0.187376
-0.187873
-0.188213
-0.188394
-0.193416
-0.198326
-0.203122
-0.202896
-0.192647
-0.192308
-0.201991
-0.206516
-0.206018
-0.205498
-0.199955
-0.194389
-0.193801
-0.193145
-0.192421
-0.191538
-0.190543
-0.189548
-0.188552
-0.182489
-0.186312
-0.169977
-0.173507
-0.176923
-0.180226
-0.178394
-0.176471
-0.164457
-0.152308
-0.155023
-0.157602
-0.160068
-0.162466
-0.154819
-0.142127
-0.124208
-0.11138
-0.113507
-0.120747
-0.133145
-0.135747
-0.118597
-0.106787
-0.105339
-0.0892987
-0.0586652
-0.0434616
-0.0387104
-0.0244344
-0.0106109
0.0328507
0.0909729
0.0938688
0.0715837
0.0240724
-0.0387104
-0.0517421
-0.0549548
-0.0682806
-0.0866969
-0.105181
-0.12371
-0.147262
-0.165792
-0.169276
-0.172647
-0.165815
-0.158688
-0.161222
-0.163394
-0.170226
-0.176765
-0.173009
-0.168982
-0.164751
-0.160407
-0.165905
-0.171244
-0.171448
-0.171584
-0.166697
-0.161833
-0.151968
-0.142059
-0.142104
-0.137127
-0.122149
-0.197195
-0.34724
-0.487308
-0.617353
-0.527398
-0.327443
0.347511
1.19247
1.80235
2.35217
2.63697
2.86674
2.45654
1.94636
1.14118
0.305995
0.100814
-0.0843665
-0.0595701
-0.0347964
-0.0600226
-0.0852489
-0.115475
-0.145701
-0.165928
-0.186176
-0.186493
-0.186833
-0.192104
-0.197353
-0.202624
-0.207896
-0.203167
-0.198416
-0.19362
-0.188801
-0.183982
-0.17914
-0.184276
-0.189412
-0.184548
-0.174706
-0.159887
-0.15
-0.15509
-0.160091
-0.155091
-0.150136
-0.145226
-0.130317
-0.115407
-0.110453
-0.110453
-0.110475
-0.10552
-0.0955882
-0.0856787
-0.0657692
-0.0808145
-0.0357466
-0.0306109
-0.0154977
-0.000429871
0.0195475
0.0394796
0.0644796
0.0895249
0.11957
0.144683
0.169932
0.200249
0.235566
0.270905
0.311335
0.346923
0.377828
0.398756
0.419593
0.450204
0.49552
0.525815
0.551131
0.57138
0.586538
0.596652
0.596719
0.586674
0.571539
0.541358
0.501131
0.440996
0.37095
0.295928
0.220928
0.155837
0.0957014
0.0405883
-0.00952486
-0.0396606
-0.0697737
-0.0998416
-0.124909
-0.135023
-0.145204
-0.145452
-0.145792
-0.156199
-0.166606
-0.171991
-0.177376
-0.17776
-0.178733
-0.175633
-0.172986
-0.175701
-0.177828
-0.183891
-0.186855
-0.17095
-0.152308
-0.141199
-0.12871
-0.11509
-0.103281
-0.093733
-0.0878507
-0.0857692
-0.0845928
-0.0792308
-0.0737783
-0.0732353
-0.0727828
-0.0724208
-0.0721946
-0.0771041
-0.0771267
-0.0672624
-0.0623982
-0.0675339
-0.0726923
-0.0778959
-0.0831674
-0.0835068
-0.088914
-0.0942308
-0.0943439
-0.0937104
-0.0971041
-0.100317
-0.0986426
-0.099276
-0.0976018
-0.0989593
-0.118348
-0.139434
-0.157149
-0.174548
-0.181425
-0.184299
-0.188281
-0.190317
-0.190611
-0.190928
-0.19129
-0.191561
-0.191697
-0.191674
-0.186493
-0.186109
-0.195679
-0.199955
-0.19914
-0.198235
-0.19224
-0.186154
-0.184977
-0.183688
-0.182285
-0.180724
-0.17905
-0.177308
-0.170475
-0.158529
-0.161448
-0.149186
-0.156765
-0.154186
-0.151516
-0.143801
-0.135973
-0.137941
-0.139796
-0.131584
-0.123303
-0.124955
-0.126584
-0.118258
-0.110045
-0.0968552
-0.0839367
-0.0911991
-0.0987557
-0.101652
-0.104955
-0.0886652
-0.0827149
-0.0820814
-0.0767873
-0.0668099
-0.0670136
-0.0824208
-0.0880769
-0.0789819
-0.0650905
-0.0463801
-0.0227375
0.000814483
0.00920815
0.00242081
0.00540723
0.0182127
0.0708823
0.123416
0.0808371
0.0281448
-0.0146607
-0.0526018
-0.0657014
-0.0789593
-0.0773077
-0.0756561
-0.0990045
-0.12224
-0.135317
-0.14819
-0.14586
-0.143258
-0.150362
-0.157149
-0.153597
-0.149683
-0.155453
-0.161018
-0.16138
-0.161606
-0.156719
-0.151742
-0.151629
-0.151448
-0.151244
-0.146063
-0.135905
-0.125747
-0.105566
-0.12043
-0.160339
-0.320226
-0.530091
-0.564977
-0.544887
-0.0398416
0.560158
1.24018
1.92523
2.31025
2.66525
2.5902
2.48011
1.60005
0.745
0.329932
-0.0401584
-0.0302489
-0.0203394
-0.0404072
-0.0654525
-0.0905204
-0.115611
-0.140679
-0.165747
-0.18586
-0.200996
-0.206176
-0.211335
-0.211448
-0.211538
-0.211629
-0.211697
-0.216742
-0.216787
-0.206833
-0.196878
-0.1869
-0.181878
-0.181878
-0.18181
-0.186765
-0.186719
-0.176674
-0.171584
-0.171448
-0.166357
-0.156312
-0.151222
-0.151086
-0.145995
-0.13595
-0.12086
-0.130724
-0.100543
-0.100317
-0.0951358
-0.09
-0.0748869
-0.0597964
-0.049638
-0.039457
-0.019276
0.00092759
0.0111765
0.0264253
0.0516063
0.0817647
0.116968
0.147217
0.162579
0.183054
0.208643
0.239253
0.284819
0.320385
0.350995
0.381855
0.412964
0.443891
0.469593
0.500113
0.530475
0.560769
0.590995
0.601244
0.601516
0.576719
0.541855
0.496878
0.451833
0.39181
0.32681
0.256787
0.186742
0.111742
0.0417873
-0.00321268
-0.0482805
-0.0783937
-0.108529
-0.12862
-0.148665
-0.15871
-0.168756
-0.168824
-0.168891
-0.173914
-0.178891
-0.173801
-0.168846
-0.174118
-0.180249
-0.182466
-0.184864
-0.177195
-0.167308
-0.164796
-0.159412
-0.156086
-0.150837
-0.133778
-0.116855
-0.105271
-0.0976696
-0.0889366
-0.0820588
-0.0818099
-0.0814479
-0.0859954
-0.0906108
-0.0853167
-0.0801131
-0.08
-0.0799773
-0.0800678
-0.0802941
-0.0706108
-0.0759275
-0.0812443
-0.0815836
-0.081923
-0.0872171
-0.0924886
-0.0927828
-0.0931221
-0.0934841
-0.0938235
-0.0941176
-0.0943891
-0.0996606
-0.104955
-0.105339
-0.105045
-0.10905
-0.112534
-0.105656
-0.0999773
-0.105837
-0.115339
-0.118235
-0.123439
-0.14052
-0.158213
-0.170339
-0.178597
-0.183484
-0.185656
-0.186131
-0.186448
-0.186629
-0.186742
-0.186719
-0.186403
-0.185882
-0.185249
-0.18448
-0.183552
-0.182443
-0.176109
-0.179593
-0.177986
-0.176267
-0.169434
-0.162466
-0.155317
-0.148032
-0.145611
-0.143054
-0.140362
-0.137556
-0.134683
-0.131719
-0.123597
-0.11543
-0.112127
-0.108778
-0.11043
-0.11224
-0.0942533
-0.0864931
-0.0839592
-0.0817194
-0.0797963
-0.0782126
-0.0819683
-0.0861085
-0.0806334
-0.0704298
-0.060475
-0.0556787
-0.0610407
-0.0665384
-0.0671945
-0.0679637
-0.0638913
-0.0599547
-0.0611085
-0.0623529
-0.0587103
-0.0451357
-0.0366515
-0.00830309
0.0198643
0.0228508
0.0256788
0.0384164
0.0560408
0.0985069
0.130837
0.0880317
0.0400679
-0.00800902
-0.0461538
-0.0493891
-0.0527375
-0.0611538
-0.0745475
-0.0929411
-0.106222
-0.114389
-0.12233
-0.129977
-0.137308
-0.144344
-0.146063
-0.137489
-0.133642
-0.13948
-0.14509
-0.14052
-0.140837
-0.151063
-0.156267
-0.156448
-0.146584
-0.131674
-0.126742
-0.126787
-0.12681
-0.12681
-0.121833
-0.106878
-0.256946
-0.402036
-0.512127
-0.592217
-0.322308
0.0276018
0.837489
1.58735
2.10222
2.52708
2.67692
2.54174
1.71658
0.971448
0.376267
0.00606335
-0.0141629
-0.0293665
-0.0345475
-0.0547285
-0.0999095
-0.125113
-0.140339
-0.155543
-0.165724
-0.175905
-0.191086
-0.201244
-0.206425
-0.211584
-0.211719
-0.211855
-0.206991
-0.202104
-0.202195
-0.202217
-0.202217
-0.197195
-0.187149
-0.177127
-0.182127
-0.162081
-0.161991
-0.161878
-0.161742
-0.151629
-0.141538
-0.136403
-0.131267
-0.126109
-0.120928
-0.115747
-0.110566
-0.100407
-0.0852715
-0.0701131
-0.0599321
-0.0546833
-0.0494118
-0.0391629
-0.0239593
-0.00877828
0.0164027
0.0466063
0.0668326
0.0820588
0.102308
0.122602
0.147941
0.173303
0.208778
0.249367
0.285
0.315679
0.351425
0.387262
0.418281
0.444434
0.475385
0.506109
0.526629
0.546991
0.572353
0.592715
0.593054
0.593348
0.568552
0.538688
0.483824
0.423959
0.359095
0.294208
0.224253
0.159276
0.0993439
0.0394344
-0.0154978
-0.0604299
-0.0853167
-0.105226
-0.115204
-0.125226
-0.135272
-0.145294
-0.150271
-0.155158
-0.159977
-0.164864
-0.164819
-0.164774
-0.159706
-0.15543
-0.1619
-0.168869
-0.166222
-0.162421
-0.162217
-0.158665
-0.14681
-0.132421
-0.120882
-0.108439
-0.101493
-0.0982805
-0.0834389
-0.076267
-0.0707013
-0.0751357
-0.0795701
-0.0789819
-0.0784615
-0.0731448
-0.0679638
-0.0728959
-0.0779185
-0.0779638
-0.078009
-0.0780769
-0.07819
-0.0833936
-0.0886425
-0.083914
-0.0791855
-0.0794344
-0.079638
-0.094819
-0.100023
-0.105249
-0.110543
-0.10586
-0.101018
-0.10586
-0.109729
-0.112941
-0.115882
-0.114412
-0.114819
-0.112896
-0.114661
-0.129299
-0.145882
-0.158258
-0.170339
-0.179796
-0.18491
-0.18724
-0.182738
-0.187647
-0.187624
-0.187602
-0.182489
-0.177195
-0.176697
-0.175973
-0.175023
-0.173891
-0.177602
-0.181199
-0.174683
-0.168054
-0.16129
-0.15448
-0.157511
-0.160385
-0.158122
-0.155679
-0.148054
-0.140317
-0.132489
-0.124548
-0.121493
-0.118348
-0.115113
-0.111787
-0.108394
-0.105023
-0.0966742
-0.0884615
-0.0904072
-0.0926244
-0.0951357
-0.0929638
-0.0811312
-0.0746606
-0.0735068
-0.0726471
-0.0720814
-0.0767873
-0.0817647
-0.0769231
-0.0722398
-0.0676697
-0.0632127
-0.0588688
-0.054638
-0.0704977
-0.0864932
-0.0726244
-0.058914
-0.0553394
-0.0468778
-0.0235068
-0.00527147
-0.00719456
-0.00427601
0.00852942
0.0461765
0.113643
0.130995
0.0832579
0.0304072
-0.0225566
-0.0506561
-0.0538914
-0.0572172
-0.0655656
-0.0838688
-0.107081
-0.125158
-0.138054
-0.145701
-0.148077
-0.145181
-0.136968
-0.133462
-0.139683
-0.150656
-0.161403
-0.161946
-0.14733
-0.142624
-0.137828
-0.137896
-0.137851
-0.142738
-0.147579
-0.142443
-0.13733
-0.117285
-0.102285
-0.127262
-0.202217
-0.397172
-0.542127
-0.602149
-0.472172
-0.047172
0.552828
1.37285
2.0129
2.44792
2.6279
2.56785
1.99276
1.04262
0.442511
0.0524208
-0.0676471
-0.0477375
-0.042828
-0.0529186
-0.0779638
-0.107964
-0.132964
-0.152964
-0.172964
-0.192964
-0.198009
-0.2031
-0.203167
-0.208213
-0.183213
-0.178167
-0.178122
-0.178077
-0.183032
-0.187986
-0.182896
-0.17776
-0.172602
-0.167421
-0.16724
-0.167059
-0.1619
-0.156765
-0.151629
-0.146448
-0.141244
-0.135973
-0.130679
-0.12543
-0.120226
-0.110045
-0.0998416
-0.0946154
-0.0893891
-0.0841403
-0.0788688
-0.0635973
-0.0483258
-0.0330769
-0.0178507
-0.00257919
0.0127376
0.0280769
0.0434389
0.0687104
0.0938914
0.12414
0.154457
0.179796
0.205181
0.240656
0.271199
0.301742
0.332308
0.372919
0.41371
0.439864
0.466131
0.497195
0.523009
0.553552
0.578959
0.594367
0.609774
0.605158
0.590452
0.555633
0.510747
0.455814
0.395814
0.340769
0.275769
0.205837
0.14095
0.0860633
0.0361086
-0.00891404
-0.0439819
-0.0690272
-0.0940498
-0.119095
-0.139276
-0.154548
-0.164864
-0.175226
-0.175588
-0.166063
-0.161697
-0.162376
-0.1631
-0.169005
-0.175588
-0.167738
-0.175158
-0.181946
-0.181742
-0.178733
-0.1719
-0.162127
-0.145362
-0.12776
-0.105453
-0.0857693
-0.085362
-0.0876471
-0.0866743
-0.0862444
-0.0857919
-0.0853168
-0.0898869
-0.0945702
-0.0943892
-0.0942987
-0.0942761
-0.0943666
-0.0895702
-0.0848191
-0.0851358
-0.0855431
-0.0909503
-0.0958598
-0.100204
-0.10371
-0.101765
-0.100136
-0.105294
-0.114118
-0.121222
-0.131267
-0.143281
-0.156471
-0.164005
-0.16948
-0.176833
-0.190407
-0.192059
-0.202692
-0.2131
-0.20862
-0.204095
-0.199412
-0.19457
-0.194525
-0.194344
-0.199027
-0.203665
-0.208258
-0.21276
-0.202195
-0.191538
-0.195792
-0.199977
-0.199095
-0.198167
-0.192195
-0.186154
-0.185045
-0.183801
-0.182421
-0.180905
-0.174253
-0.167489
-0.165634
-0.163688
-0.156652
-0.154434
-0.162036
-0.164525
-0.161923
-0.154253
-0.141516
-0.133665
-0.130724
-0.127738
-0.124706
-0.11672
-0.108846
-0.106177
-0.103778
-0.0917195
-0.08
-0.0835747
-0.0874887
-0.0917647
-0.096448
-0.0914932
-0.0868779
-0.0775792
-0.0685294
-0.0696833
-0.061086
-0.0327149
-0.0145928
-0.0116969
-0.00902717
-0.00658371
0.020724
0.0729412
0.0950905
0.0771267
0.0390271
-0.00923079
-0.0326244
-0.0360634
-0.0496154
-0.0682353
-0.0918326
-0.120362
-0.13371
-0.1419
-0.149887
-0.147579
-0.14491
-0.151855
-0.158484
-0.164842
-0.16595
-0.151833
-0.152534
-0.153077
-0.153507
-0.153846
-0.159095
-0.164321
-0.159525
-0.154706
-0.149864
-0.14
-0.120113
-0.125204
-0.210294
-0.330385
-0.515543
-0.615747
-0.550973
-0.161176
0.65362
1.38339
2.03817
2.47792
2.73765
2.59233
2.14199
1.4567
0.626425
0.206131
-0.0141403
-0.0595023
-0.0299548
-0.0353846
-0.0657919
-0.0911765
-0.126538
-0.151878
-0.177195
-0.182557
-0.187986
-0.193484
-0.194005
-0.199412
-0.204729
-0.205068
-0.20543
-0.200792
-0.196154
-0.186471
-0.176742
-0.176991
-0.177217
-0.182421
-0.187602
-0.177783
-0.167964
-0.158145
-0.148303
-0.148416
-0.148507
-0.14862
-0.143778
-0.128959
-0.119118
-0.114231
-0.109321
-0.104412
-0.0994796
-0.0945249
-0.0845701
-0.0746154
-0.0596833
-0.0397738
-0.0247964
-0.0147511
-0.00470588
0.00533938
0.0302941
0.0552036
0.0801131
0.105023
0.124977
0.145
0.175068
0.200204
0.235453
0.270747
0.311018
0.35129
0.381606
0.412081
0.432828
0.45871
0.489502
0.520113
0.545498
0.565769
0.586063
0.596335
0.591539
0.576629
0.536584
0.501471
0.461312
0.401131
0.330973
0.25586
0.180747
0.115588
0.0603846
0.0101584
-0.0300226
-0.0652036
-0.0953846
-0.120566
-0.140747
-0.145973
-0.151244
-0.156493
-0.156719
-0.156946
-0.162149
-0.167285
-0.172557
-0.178371
-0.169796
-0.167059
-0.164819
-0.172353
-0.178281
-0.175724
-0.169774
-0.155656
-0.139367
-0.116719
-0.0946832
-0.0896832
-0.0877828
-0.0896154
-0.0933032
-0.0829186
-0.0726923
-0.0722851
-0.0718778
-0.0715837
-0.0714027
-0.0763801
-0.081448
-0.0766063
-0.0668326
-0.0571267
-0.0574434
-0.0727601
-0.0830769
-0.0833936
-0.083733
-0.084095
-0.0844344
-0.0897511
-0.0950678
-0.100385
-0.105701
-0.110588
-0.114706
-0.108326
-0.101584
-0.100882
-0.107081
-0.116176
-0.128665
-0.143575
-0.15052
-0.1581
-0.170814
-0.180317
-0.185837
-0.188778
-0.194389
-0.199751
-0.195113
-0.19043
-0.185724
-0.180679
-0.185362
-0.189887
-0.194276
-0.198575
-0.182783
-0.176833
-0.170724
-0.164502
-0.163167
-0.166742
-0.175226
-0.178575
-0.17181
-0.159909
-0.147873
-0.140679
-0.143326
-0.145814
-0.148145
-0.150452
-0.14267
-0.134774
-0.126765
-0.118642
-0.12043
-0.122127
-0.118801
-0.110543
-0.102421
-0.0945475
-0.0868552
-0.0843665
-0.0821719
-0.0852941
-0.0888009
-0.0827149
-0.0769683
-0.0715158
-0.0663575
-0.066448
-0.0667647
-0.0672624
-0.0679638
-0.0638461
-0.0598869
-0.061086
-0.0623982
-0.0588009
-0.0552941
-0.0519231
-0.028733
0.00427603
0.0170815
0.0147964
0.0223756
0.0348416
0.0671493
0.109299
0.086267
0.0381222
-0.00509048
-0.048371
-0.0616742
-0.0649774
-0.0683032
-0.0766063
-0.0898416
-0.107941
-0.120814
-0.133416
-0.140792
-0.147851
-0.14957
-0.150995
-0.157172
-0.163122
-0.153823
-0.144276
-0.144502
-0.144615
-0.149683
-0.154751
-0.149751
-0.144729
-0.144683
-0.144638
-0.134615
-0.124593
-0.12457
-0.21957
-0.394593
-0.509661
-0.579729
-0.339751
0.0902489
0.740226
1.49018
2.02509
2.47495
2.61982
2.66468
1.96455
1.08941
0.524299
0.0142082
-0.0359276
-0.0311086
-0.0312896
-0.0264706
-0.0866289
-0.126765
-0.1469
-0.167036
-0.177217
-0.187443
-0.197602
-0.207738
-0.207851
-0.207941
-0.208009
-0.208077
-0.208167
-0.208258
-0.203326
-0.198371
-0.193348
-0.188281
-0.193213
-0.19819
-0.183213
-0.178258
-0.173281
-0.168258
-0.16819
-0.168077
-0.167964
-0.162873
-0.152783
-0.13767
-0.122534
-0.117376
-0.112195
-0.106991
-0.106765
-0.0965837
-0.0814479
-0.0712896
-0.0611086
-0.045905
-0.0306787
-0.0154525
-0.00522623
0.0150226
0.0352715
0.0654978
0.095724
0.11595
0.136176
0.156425
0.181697
0.216991
0.252398
0.292941
0.323529
0.359118
0.389796
0.420588
0.451516
0.492624
0.51862
0.539389
0.559977
0.575385
0.585769
0.586177
0.576561
0.556901
0.522195
0.482421
0.432579
0.38267
0.312738
0.237783
0.172805
0.112805
0.0577602
0.00766969
-0.0373529
-0.0773077
-0.10224
-0.127149
-0.137104
-0.152104
-0.157081
-0.162036
-0.162014
-0.162014
-0.166946
-0.171855
-0.171833
-0.172308
-0.168643
-0.165588
-0.172941
-0.179231
-0.178552
-0.175
-0.16319
-0.149208
-0.133439
-0.11681
-0.104751
-0.0956335
-0.0952715
-0.0974661
-0.0919683
-0.0866968
-0.0813801
-0.0759728
-0.0754751
-0.0752036
-0.0800679
-0.0850226
-0.0800679
-0.0751583
-0.0752941
-0.0754977
-0.0757692
-0.0760181
-0.0812443
-0.0864932
-0.0917647
-0.0970588
-0.0973529
-0.0925792
-0.0977602
-0.102919
-0.108077
-0.103303
-0.0985973
-0.0988688
-0.0989819
-0.103869
-0.107896
-0.110995
-0.114118
-0.112376
-0.113416
-0.111629
-0.118552
-0.128371
-0.139751
-0.157511
-0.174389
-0.179932
-0.181222
-0.183756
-0.184887
-0.18491
-0.184864
-0.184729
-0.184434
-0.189005
-0.188416
-0.17767
-0.171652
-0.170407
-0.169005
-0.167466
-0.16586
-0.164163
-0.162308
-0.155294
-0.1481
-0.145769
-0.153281
-0.160656
-0.152919
-0.145091
-0.137127
-0.129072
-0.125928
-0.122692
-0.124389
-0.126063
-0.117783
-0.10957
-0.106448
-0.103484
-0.095724
-0.0882127
-0.0859276
-0.0840045
-0.0774661
-0.0712896
-0.0654525
-0.0599095
-0.064638
-0.0695928
-0.0747511
-0.0800905
-0.0756108
-0.0712443
-0.0720135
-0.0728959
-0.0688688
-0.0649321
-0.0711086
-0.0674208
-0.0538688
-0.0404525
-0.0271945
-0.00904974
0.00898193
0.0118552
0.00454754
0.0170362
0.0444118
0.0967195
0.148914
0.100995
0.0479864
-0.00513573
-0.0533484
-0.0566516
-0.0600452
-0.0634842
-0.0718099
-0.0949774
-0.112919
-0.125656
-0.1381
-0.140249
-0.142149
-0.143756
-0.145023
-0.140995
-0.136719
-0.142217
-0.147557
-0.142805
-0.138032
-0.133235
-0.133394
-0.143484
-0.148507
-0.148507
-0.143529
-0.133575
-0.123597
-0.113597
-0.143597
-0.188597
-0.37362
-0.578665
-0.573733
-0.543824
0.0760633
-0.539072
1.40081
2.05572
2.40566
2.71559
2.52545
2.23027
1.30011
0.484977
0.184819
-0.050362
-0.0505204
-0.0556561
-0.0757919
-0.0959502
-0.111109
-0.126312
-0.156425
-0.176516
-0.191606
-0.201719
-0.196855
-0.191991
-0.192127
-0.192262
-0.192376
-0.192421
-0.192421
-0.192466
-0.187557
-0.17767
-0.167805
-0.162873
-0.162873
-0.162828
-0.162738
-0.15767
-0.147647
-0.142647
-0.142647
-0.142624
-0.137557
-0.132421
-0.13224
-0.122081
-0.111968
-0.0968778
-0.0817647
-0.0715837
-0.0613575
-0.0561312
-0.050905
-0.0357013
-0.0205204
-0.00533935
0.00984165
0.03
0.0451584
0.065362
0.090543
0.115656
0.140747
0.17086
0.206086
0.236425
0.266878
0.297443
0.333032
0.378597
0.404231
0.425
0.456018
0.487285
0.513348
0.539186
0.559751
0.575068
0.590362
0.605634
0.585928
0.556222
0.511448
0.466629
0.401742
0.331787
0.271833
0.211855
0.141833
0.0767873
0.0217873
-0.0281674
-0.0631674
-0.0882353
-0.0983258
-0.108416
-0.123462
-0.138484
-0.148552
-0.15871
-0.158982
-0.159344
-0.159774
-0.160136
-0.16043
-0.160995
-0.161923
-0.163869
-0.166855
-0.16957
-0.166923
-0.161335
-0.168416
-0.166674
-0.161923
-0.150566
-0.12776
-0.110747
-0.100023
-0.0934842
-0.0856109
-0.079095
-0.0836425
-0.0882127
-0.0878281
-0.0825566
-0.0873982
-0.0772851
-0.0872172
-0.0872624
-0.0873756
-0.0825792
-0.0778507
-0.0780995
-0.0783258
-0.0785746
-0.0788688
-0.0892081
-0.0994344
-0.0995023
-0.0986878
-0.0887104
-0.0768552
-0.0849774
-0.0954525
-0.108371
-0.124638
-0.134027
-0.140158
-0.142715
-0.150385
-0.167262
-0.185317
-0.19991
-0.207014
-0.202466
-0.192919
-0.183371
-0.183733
-0.193937
-0.198914
-0.20371
-0.208371
-0.207941
-0.207398
-0.201765
-0.196041
-0.190226
-0.189321
-0.193348
-0.182285
-0.171109
-0.159842
-0.148484
-0.156968
-0.165271
-0.168416
-0.171425
-0.169344
-0.167149
-0.164796
-0.162353
-0.159819
-0.157149
-0.154344
-0.151448
-0.138462
-0.12543
-0.117376
-0.109253
-0.111063
-0.112986
-0.115068
-0.117398
-0.109977
-0.102896
-0.101176
-0.0947737
-0.0836878
-0.0779411
-0.0825565
-0.0875339
-0.0828507
-0.0734389
-0.0642307
-0.0601131
-0.0661086
-0.072285
-0.0736651
-0.0602262
-0.0369683
-0.0138235
0.00918556
0.00201362
-0.0052941
0.0222625
0.0546833
0.0919684
0.114095
0.0560407
0.00291856
-0.0302489
-0.0584615
-0.0717647
-0.085181
-0.093733
-0.107217
-0.125588
-0.138778
-0.146787
-0.154525
-0.156946
-0.15905
-0.155882
-0.152466
-0.148756
-0.144728
-0.150452
-0.155973
-0.161403
-0.166742
-0.161991
-0.157149
-0.15724
-0.157308
-0.152353
-0.14233
-0.132285
-0.157285
-0.19233
-0.387398
-0.197466
-0.602443
-0.597353
-0.0723077
0.46767
1.20756
1.89738
2.28722
2.6121
2.64204
2.46699
1.6219
0.861742
0.316538
-0.0486878
-0.0388914
-0.0290498
-0.0341629
-0.054276
-0.0944344
-0.124638
-0.149887
-0.165136
-0.175362
-0.180588
-0.185792
-0.190973
-0.191131
-0.191267
-0.191403
-0.191493
-0.186538
-0.181516
-0.186425
-0.191403
-0.196448
-0.196493
-0.186538
-0.176561
-0.166561
-0.161561
-0.161561
-0.161561
-0.161561
-0.156538
-0.151493
-0.141425
-0.131335
-0.131199
-0.131018
-0.12586
-0.120724
-0.110611
-0.10052
-0.0904073
-0.0802715
-0.0701358
-0.0599774
-0.0547738
-0.0395702
-0.0144118
0.010724
0.0358823
0.056086
0.0663348
0.0816289
0.106923
0.137172
0.167398
0.19767
0.223032
0.253529
0.294163
0.324751
0.355294
0.385995
0.416878
0.452919
0.49405
0.50991
0.52552
0.541018
0.556425
0.576765
0.602036
0.587262
0.572421
0.537534
0.497624
0.43767
0.372602
0.307443
0.242195
0.181878
0.116561
0.051267
-0.00909505
-0.0445928
-0.0753168
-0.0962896
-0.117127
-0.132783
-0.143235
-0.148507
-0.153756
-0.168959
-0.174072
-0.174095
-0.17414
-0.169253
-0.170226
-0.180317
-0.18724
-0.18914
-0.183665
-0.170747
-0.15948
-0.155091
-0.148937
-0.136312
-0.123552
-0.106584
-0.0934389
-0.088733
-0.0864932
-0.085905
-0.0852715
-0.0845927
-0.0839593
-0.0835068
-0.0783484
-0.0730769
-0.0775339
-0.0812896
-0.0792308
-0.0771946
-0.0753394
-0.0764932
-0.0859502
-0.0985294
-0.103145
-0.115272
-0.13371
-0.15129
-0.15776
-0.160158
-0.168824
-0.175724
-0.181131
-0.186652
-0.18724
-0.187692
-0.188032
-0.188235
-0.193326
-0.198348
-0.193281
-0.188077
-0.192738
-0.19733
-0.196878
-0.196425
-0.195973
-0.195475
-0.194932
-0.194367
-0.193778
-0.193122
-0.192421
-0.186742
-0.181041
-0.180271
-0.179412
-0.178416
-0.177308
-0.181154
-0.184932
-0.178597
-0.172127
-0.165543
-0.158869
-0.162127
-0.165294
-0.158303
-0.151199
-0.153982
-0.156652
-0.149208
-0.141652
-0.133959
-0.126244
-0.128507
-0.130792
-0.1231
-0.115385
-0.107624
-0.100023
-0.102556
-0.105339
-0.0984162
-0.0769004
-0.055837
-0.0352262
-0.0150452
-0.0102262
-0.0107918
0.00823538
0.0318327
0.075068
0.123009
0.0857015
0.0481449
0.0053847
-0.0375339
-0.0455655
-0.053733
-0.0670814
-0.0804977
-0.103959
-0.127262
-0.135339
-0.14319
-0.14586
-0.148258
-0.150339
-0.152081
-0.153461
-0.15457
-0.15543
-0.156086
-0.156538
-0.1569
-0.157149
-0.157308
-0.157398
-0.157421
-0.157376
-0.157262
-0.152081
-0.1319
-0.106719
-0.161516
-0.24629
-0.416109
-0.605973
-0.605814
-0.570634
0.0895475
0.819729
1.50986
0.854955
2.51505
2.81014
2.6252
2.37525
1.47029
0.640339
0.250385
-0.0695701
-0.0345701
-0.00961539
-0.0346606
-0.0597059
-0.0897285
-0.114751
-0.124774
-0.139864
-0.159887
-0.17991
-0.194977
-0.205068
-0.200158
-0.195249
-0.195339
-0.19543
-0.19052
-0.185566
-0.190566
-0.190566
-0.180566
-0.170543
-0.160498
-0.15543
-0.160339
-0.165249
-0.165158
-0.165113
-0.165113
-0.165068
-0.159977
-0.149864
-0.139729
-0.129593
-0.124457
-0.119299
-0.114118
-0.108982
-0.103891
-0.0937783
-0.0836426
-0.0734842
-0.0633032
-0.0431448
-0.0230091
-0.00785071
0.00733029
0.0275339
0.0427828
0.0630317
0.0882127
0.118371
0.153597
0.188891
0.219299
0.239819
0.260362
0.285905
0.321516
0.367217
0.4031
0.439186
0.475113
0.505882
0.531471
0.551878
0.577285
0.602692
0.613032
0.623213
0.588122
0.542805
0.492376
0.441833
0.376199
0.305566
0.235023
0.16457
0.109208
0.048914
-0.00133483
-0.0465158
-0.0666289
-0.0867195
-0.101787
-0.116765
-0.131652
-0.146516
-0.161403
-0.176312
-0.176244
-0.176086
-0.175814
-0.175814
-0.171222
-0.167376
-0.174367
-0.181335
-0.183122
-0.181968
-0.172557
-0.160023
-0.155452
-0.143394
-0.130023
-0.117534
-0.100973
-0.0878733
-0.0879185
-0.0891629
-0.0820362
-0.0757692
-0.07681
-0.081629
-0.094457
-0.104729
-0.121674
-0.124774
-0.146742
-0.151403
-0.152828
-0.155656
-0.157127
-0.157873
-0.158507
-0.159208
-0.159774
-0.170136
-0.180385
-0.180566
-0.180701
-0.180814
-0.180747
-0.185588
-0.190362
-0.190113
-0.18991
-0.184729
-0.17957
-0.184434
-0.189321
-0.189208
-0.189027
-0.193778
-0.198529
-0.198303
-0.198077
-0.192851
-0.187579
-0.187262
-0.186878
-0.186425
-0.185996
-0.185543
-0.185023
-0.184457
-0.183869
-0.183235
-0.187511
-0.191765
-0.180996
-0.170181
-0.164299
-0.158281
-0.162127
-0.16586
-0.164525
-0.16319
-0.156833
-0.150407
-0.143869
-0.13724
-0.13552
-0.133756
-0.131946
-0.130158
-0.133416
-0.136765
-0.130204
-0.10371
-0.0622851
-0.0311538
-0.0103394
0.0100679
0.0300679
0.029638
0.00875564
-0.0125566
-0.0342987
-0.0513801
-0.0638009
-0.0814932
-0.0994118
-0.10733
-0.115158
-0.137805
-0.160226
-0.167421
-0.164389
-0.161109
-0.152602
-0.153801
-0.154729
-0.15043
-0.14595
-0.15129
-0.156493
-0.161629
-0.166765
-0.1569
-0.146991
-0.146991
-0.146946
-0.141878
-0.136787
-0.126742
-0.171697
-0.311629
-0.446539
-0.571471
-0.531425
-0.306357
0.228733
1.03882
1.67889
2.18891
2.53394
2.77894
2.514
1.98405
1.2491
0.43914
0.129163
-0.0258371
-0.0458371
-0.0308371
-0.0608145
-0.100769
-0.120769
-0.140814
-0.150882
-0.145973
-0.176041
-0.186086
-0.196154
-0.206244
-0.201335
-0.196425
-0.191493
-0.186538
-0.181606
-0.176697
-0.181765
-0.18681
-0.176878
-0.166968
-0.162059
-0.157172
-0.16224
-0.167262
-0.172262
-0.17724
-0.162195
-0.157172
-0.152172
-0.142149
-0.132104
-0.127081
-0.127081
-0.117081
-0.102081
-0.0870588
-0.0720136
-0.0669457
-0.0618552
-0.0567647
-0.0516742
-0.0316063
-0.0115611
0.00850678
0.0285973
0.0437104
0.0588461
0.0840045
0.104185
0.134344
0.164434
0.209434
0.254434
0.279525
0.304751
0.335158
0.360701
0.401312
0.441991
0.47276
0.503529
0.529208
0.554819
0.575362
0.590792
0.601131
0.606357
0.586471
0.546584
0.491697
0.426742
0.361719
0.296652
0.226584
0.161516
0.0964706
0.0364253
-0.0136199
-0.0535973
-0.0885294
-0.113552
-0.133688
-0.138959
-0.139344
-0.149751
-0.165136
-0.170475
-0.175837
-0.181267
-0.171878
-0.172738
-0.173778
-0.175271
-0.177104
-0.179231
-0.181131
-0.182059
-0.180588
-0.170475
-0.157376
-0.146833
-0.134683
-0.12638
-0.119253
-0.10457
-0.0932127
-0.0855204
-0.0792308
-0.0786426
-0.0781222
-0.0825113
-0.0870588
-0.08681
-0.0866742
-0.0816516
-0.0766516
-0.0816063
-0.0866742
-0.0867647
-0.0869231
-0.0871493
-0.0873756
-0.0876018
-0.0878281
-0.0880543
-0.0882806
-0.0935294
-0.0988462
-0.0988236
-0.0980996
-0.0967195
-0.0897738
-0.0935973
-0.0989593
-0.107421
-0.11957
-0.134344
-0.141335
-0.149072
-0.16724
-0.181991
-0.182692
-0.180724
-0.186267
-0.191652
-0.186946
-0.182172
-0.18224
-0.182127
-0.186833
-0.191448
-0.185973
-0.180362
-0.179615
-0.178756
-0.177783
-0.176719
-0.180566
-0.184321
-0.178009
-0.161584
-0.145045
-0.148281
-0.16129
-0.164186
-0.161968
-0.159683
-0.152308
-0.144751
-0.142014
-0.139163
-0.136199
-0.138122
-0.139932
-0.126674
-0.113394
-0.100113
-0.0868326
-0.0886652
-0.0907014
-0.0930091
-0.0956561
-0.0886426
-0.0819684
-0.0756561
-0.0697059
-0.0691177
-0.0688688
-0.0788914
-0.0841629
-0.0696607
-0.0503847
-0.0263123
-0.00735297
0.00651582
0.0102488
-0.00119911
0.00219455
0.0204298
0.0635068
0.126471
0.119276
0.0769457
0.0145022
-0.0480769
-0.0607919
-0.0536652
-0.0517195
-0.0499321
-0.0732127
-0.106538
-0.119932
-0.133371
-0.141833
-0.135249
-0.138484
-0.141493
-0.144208
-0.146606
-0.153688
-0.160452
-0.156946
-0.153213
-0.149253
-0.145068
-0.150611
-0.155973
-0.161199
-0.166403
-0.161538
-0.156629
-0.151674
-0.146697
-0.141697
-0.136674
-0.131629
-0.121584
-0.111561
-0.191584
-0.336629
-0.471674
-0.591719
-0.416719
-0.0817194
0.598235
1.40814
1.98301
2.48783
2.65767
2.75753
2.01238
1.12719
0.542036
-0.00809952
-0.0332805
-0.0385068
-0.0386878
-0.0588235
-0.0939593
-0.129095
-0.144276
-0.159502
-0.169706
-0.179887
-0.185045
-0.190181
-0.195294
-0.200385
-0.195498
-0.190656
-0.185769
-0.180882
-0.185905
-0.190928
-0.190995
-0.191086
-0.176176
-0.171267
-0.171335
-0.171357
-0.166357
-0.161312
-0.161222
-0.161199
-0.156244
-0.146267
-0.136267
-0.131176
-0.125995
-0.120814
-0.115633
-0.105498
-0.0954072
-0.0852715
-0.0750905
-0.0599095
-0.0447059
-0.029457
-0.0191855
-0.0039819
0.0111312
0.0362444
0.0614706
0.0818778
0.102398
0.122986
0.148597
0.17914
0.209683
0.240317
0.276154
0.312285
0.343394
0.369321
0.399977
0.430362
0.465679
0.506018
0.54138
0.561765
0.577081
0.592285
0.602398
0.602421
0.587421
0.552466
0.507511
0.447557
0.382624
0.312715
0.242738
0.177692
0.122624
0.0724887
0.0222851
-0.0329638
-0.0682805
-0.103643
-0.11405
-0.129683
-0.140588
-0.151493
-0.15724
-0.162738
-0.167964
-0.1731
-0.173213
-0.173258
-0.168213
-0.163439
-0.164231
-0.165566
-0.172376
-0.178371
-0.172896
-0.164366
-0.152195
-0.137443
-0.12543
-0.112602
-0.099276
-0.0892987
-0.0833032
-0.08
-0.0742308
-0.068552
-0.0728733
-0.0771946
-0.0766064
-0.0761991
-0.0709728
-0.0658371
-0.0657919
-0.0657919
-0.0708371
-0.075905
-0.0809955
-0.0861312
-0.0863348
-0.0815837
-0.0868552
-0.0721267
-0.0769005
-0.0809276
-0.0843891
-0.0823529
-0.0812443
-0.0814932
-0.0851357
-0.0976697
-0.112692
-0.134932
-0.157692
-0.160837
-0.160679
-0.168824
-0.167195
-0.17776
-0.188167
-0.193416
-0.198665
-0.193914
-0.188959
-0.193846
-0.198552
-0.193122
-0.192511
-0.201765
-0.20595
-0.20009
-0.184163
-0.168167
-0.172059
-0.185837
-0.189502
-0.188054
-0.186538
-0.179932
-0.173213
-0.17138
-0.169412
-0.167285
-0.165
-0.162579
-0.160068
-0.157489
-0.149842
-0.142036
-0.139005
-0.135792
-0.137489
-0.139163
-0.125837
-0.112489
-0.109163
-0.105928
-0.102873
-0.100068
-0.102557
-0.105407
-0.0936425
-0.0822851
-0.0713122
-0.0506109
-0.0301584
-0.0149774
-0.00511312
-0.000542983
0.00373304
0.0478733
0.111833
0.115588
0.0841629
0.0326244
-0.0240498
-0.0409276
-0.0429864
-0.0502263
-0.0626244
-0.0851131
-0.107692
-0.125385
-0.143235
-0.151267
-0.144457
-0.142738
-0.141063
-0.139412
-0.137692
-0.15086
-0.163824
-0.171584
-0.17914
-0.171493
-0.163507
-0.170158
-0.176448
-0.177443
-0.178235
-0.173778
-0.16914
-0.164299
-0.159321
-0.159231
-0.15905
-0.158801
-0.158575
-0.153371
-0.143213
-0.128077
-0.117873
-0.112647
-0.21733
-0.387014
-0.516719
-0.626448
-0.421199
-0.105973
0.649253
1.50948
2.05971
2.55491
2.67502
2.76007
2.03014
2.76525
0.61543
0.00565612
-0.0241629
-0.0540498
-0.0490045
-0.0440045
-0.0790045
-0.103982
-0.133937
-0.153891
-0.178801
-0.193688
-0.19362
-0.193597
-0.193529
-0.193462
-0.193303
-0.193122
-0.197964
-0.202851
-0.19776
-0.19267
-0.187557
-0.182421
-0.182285
-0.182127
-0.181946
-0.181742
-0.176516
-0.161335
-0.146199
-0.146018
-0.155792
-0.160566
-0.160339
-0.150136
-0.134955
-0.129706
-0.124389
-0.119072
-0.113756
-0.103439
-0.0981222
-0.0828054
-0.0674887
-0.0471493
-0.0267873
-0.0213801
-0.0158824
-0.0052715
0.0104072
0.041086
0.0717647
0.0924434
0.118303
0.154457
0.185656
0.206742
0.232602
0.273213
0.30871
0.349163
0.384638
0.410113
0.435475
0.460724
0.49586
0.53086
0.560747
0.585588
0.600339
0.610023
0.599774
0.574502
0.528959
0.483213
0.437376
0.391606
0.316176
0.24095
0.165724
0.0955204
0.045362
-0.0097285
-0.0497059
-0.0896154
-0.11448
-0.139299
-0.159095
-0.178869
-0.178665
-0.178484
-0.173281
-0.168032
-0.177715
-0.187353
-0.191946
-0.196991
-0.197851
-0.199299
-0.196244
-0.192262
-0.191855
-0.188032
-0.185317
-0.175113
-0.15267
-0.134728
-0.116448
-0.106493
-0.103235
-0.104706
-0.103959
-0.0984162
-0.0880542
-0.0826244
-0.0767873
-0.0752941
-0.0833257
-0.0861085
-0.0898642
-0.0957466
-0.0997058
-0.102398
-0.117647
-0.114774
-0.132805
-0.156244
-0.177308
-0.179864
-0.179389
-0.180973
-0.181878
-0.182602
-0.183281
-0.188959
-0.194502
-0.199887
-0.205204
-0.195543
-0.185588
-0.190475
-0.195317
-0.195158
-0.195023
-0.194887
-0.194683
-0.199389
-0.204118
-0.203869
-0.203575
-0.203235
-0.202851
-0.207443
-0.212014
-0.206561
-0.201018
-0.200385
-0.199729
-0.20405
-0.203394
-0.192692
-0.186878
-0.18095
-0.174955
-0.173869
-0.177647
-0.181335
-0.179977
-0.178575
-0.167059
-0.15543
-0.163665
-0.171765
-0.164774
-0.157738
-0.145656
-0.128507
-0.10629
-0.0840271
-0.0567421
-0.0344796
-0.0422398
-0.0301583
0.0216969
0.0581901
0.0743213
0.0551132
-0.00945698
-0.0445023
-0.0500226
-0.0610407
-0.0725339
-0.0894344
-0.111719
-0.124344
-0.132262
-0.140385
-0.14871
-0.157217
-0.155882
-0.15457
-0.158167
-0.161516
-0.164593
-0.167421
-0.175023
-0.182376
-0.174457
-0.176244
-0.17776
-0.178982
-0.179977
-0.180792
-0.181471
-0.182059
-0.182579
-0.172986
-0.163326
-0.158597
-0.153801
-0.153982
-0.149163
-0.134389
-0.124593
-0.134751
-0.219887
-0.4
-0.530091
-0.615204
-0.420362
0.0244344
0.689186
1.51391
2.07867
2.49339
2.69319
2.78296
2.25765
1.47724
0.801855
0.156493
0.0111086
-0.0242986
-0.029638
-0.0299547
-0.0603167
-0.095724
-0.111176
-0.101674
-0.152127
-0.172511
-0.182873
-0.193235
-0.19362
-0.194027
-0.199434
-0.204842
-0.195271
-0.185724
-0.191154
-0.196561
-0.196968
-0.197376
-0.187805
-0.178258
-0.178643
-0.179005
-0.179367
-0.179729
-0.165113
-0.16052
-0.155905
-0.151244
-0.146538
-0.141787
-0.137014
-0.127262
-0.117534
-0.102828
-0.0881448
-0.0783937
-0.0685747
-0.0638236
-0.0591403
-0.0444344
-0.0297059
-0.00993214
0.0099095
0.029819
0.0497964
0.0699095
0.0851358
0.110294
0.135452
0.170792
0.20629
0.2369
0.272443
0.302692
0.332783
0.367828
0.402805
0.442738
0.472602
0.507376
0.532081
0.551742
0.571357
0.590928
0.605339
0.609638
0.588869
0.538009
0.482217
0.416448
0.355453
0.294253
0.227964
0.161719
0.100769
0.0400226
-0.00563347
-0.0462217
-0.0768099
-0.102398
-0.118009
-0.133575
-0.143959
-0.154231
-0.169457
-0.184638
-0.189819
-0.179977
-0.180091
-0.180181
-0.180317
-0.180837
-0.187149
-0.194027
-0.191312
-0.187738
-0.182149
-0.173552
-0.166199
-0.156267
-0.144457
-0.131742
-0.108665
-0.0879864
-0.0808597
-0.0767873
-0.0706335
-0.0651584
-0.0798642
-0.0847059
-0.0795475
-0.073914
-0.067828
-0.061086
-0.0591855
-0.0639593
-0.076086
-0.0871041
-0.0913801
-0.0978507
-0.110792
-0.124276
-0.136267
-0.144434
-0.154344
-0.161606
-0.162715
-0.163778
-0.164796
-0.165701
-0.176403
-0.176923
-0.17733
-0.17767
-0.177941
-0.173077
-0.168167
-0.173213
-0.178213
-0.183167
-0.188077
-0.187941
-0.18776
-0.182511
-0.177262
-0.181923
-0.186516
-0.181041
-0.175566
-0.17509
-0.174593
-0.174072
-0.173484
-0.167828
-0.162036
-0.166109
-0.170158
-0.164231
-0.153258
-0.142217
-0.140995
-0.149593
-0.1531
-0.151493
-0.149819
-0.143032
-0.136109
-0.134072
-0.131923
-0.129706
-0.122376
-0.115
-0.107602
-0.100204
-0.067828
-0.0354525
-0.0130995
0.00907245
-0.00407235
-0.00760175
0.043439
0.0840725
0.0992987
0.0990498
0.0333258
-0.012828
-0.0343891
-0.0513122
-0.0535746
-0.0561086
-0.0538914
-0.0668325
-0.0999321
-0.118167
-0.126538
-0.135068
-0.138756
-0.142398
-0.140882
-0.139208
-0.14233
-0.145181
-0.152738
-0.160023
-0.157014
-0.15362
-0.154887
-0.15586
-0.161584
-0.167127
-0.167534
-0.167851
-0.158054
-0.1531
-0.148054
-0.148009
-0.147941
-0.142805
-0.137624
-0.112534
-0.112511
-0.247511
-0.382489
-0.542398
-0.567262
-0.247127
0.252986
1.10301
1.81299
2.29796
2.62296
2.73796
2.40299
1.56803
0.858054
0.268032
0.00796381
-0.00212668
-0.0121946
-0.0272398
-0.0622851
-0.102376
-0.127489
-0.142624
-0.15776
-0.172896
-0.178009
-0.1831
-0.18819
-0.193281
-0.198371
-0.203484
-0.203643
-0.208824
-0.193959
-0.199027
-0.204072
-0.209118
-0.204163
-0.199208
-0.189253
-0.179299
-0.174321
-0.169321
-0.179276
-0.189186
-0.174118
-0.154072
-0.139005
-0.128914
-0.133756
-0.138575
-0.128416
-0.118326
-0.103281
-0.0982127
-0.0930995
-0.0829638
-0.0678281
-0.0526697
-0.0424887
-0.0273077
-0.0121267
0.00805431
0.0332353
0.048552
0.0590045
0.0795702
0.100249
0.130837
0.16138
0.192127
0.223032
0.264005
0.304977
0.340679
0.371199
0.406629
0.441968
0.472262
0.502534
0.522828
0.543077
0.56319
0.583235
0.603281
0.623326
0.608348
0.583348
0.548348
0.503371
0.443416
0.378484
0.313552
0.243552
0.163529
0.0935294
0.0335294
-0.016448
-0.0564253
-0.086448
-0.106493
-0.131561
-0.156606
-0.166652
-0.166719
-0.171855
-0.182081
-0.187398
-0.18276
-0.173009
-0.163348
-0.16448
-0.176335
-0.183959
-0.186561
-0.187443
-0.17595
-0.165588
-0.151946
-0.141041
-0.128643
-0.120701
-0.114208
-0.101425
-0.0918326
-0.0848869
-0.0790951
-0.0833484
-0.0876471
-0.0870136
-0.0865385
-0.0812444
-0.0760634
-0.0759503
-0.075905
-0.0759276
-0.0759503
-0.0809729
-0.0860408
-0.0911539
-0.0912896
-0.081448
-0.076629
-0.0818552
-0.091991
-0.102127
-0.10733
-0.102602
-0.0978733
-0.0981448
-0.0983937
-0.103643
-0.108937
-0.114005
-0.118597
-0.117602
-0.115792
-0.113959
-0.107624
-0.113801
-0.123529
-0.136176
-0.136448
-0.13819
-0.156063
-0.172647
-0.182353
-0.188552
-0.19595
-0.202014
-0.197014
-0.191923
-0.186719
-0.181403
-0.180815
-0.180023
-0.18405
-0.187941
-0.181697
-0.175249
-0.168597
-0.16181
-0.159887
-0.157738
-0.160362
-0.162851
-0.160226
-0.152489
-0.139638
-0.131629
-0.128462
-0.125204
-0.121855
-0.118484
-0.120045
-0.121538
-0.112964
-0.104457
-0.0960633
-0.092828
-0.094819
-0.0971267
-0.0997737
-0.0877601
-0.0760859
-0.0747737
-0.0737782
-0.0780769
-0.082647
-0.0774434
-0.0724208
-0.0675339
-0.0627828
-0.0581674
-0.0486877
-0.034276
-0.0149547
0.00925343
0.0233032
0.0222398
0.0411313
0.0799774
0.103688
0.11224
0.0806109
0.0188235
-0.00814477
-0.0152036
-0.0323982
-0.0496832
-0.0570588
-0.0645475
-0.0821719
-0.0999547
-0.107873
-0.115905
-0.124005
-0.127149
-0.130385
-0.133688
-0.136968
-0.140136
-0.143122
-0.145837
-0.148281
-0.150407
-0.157217
-0.16371
-0.159932
-0.155928
-0.156719
-0.157308
-0.15267
-0.147873
-0.152964
-0.158032
-0.148054
-0.138054
-0.132986
-0.127896
-0.122805
-0.11267
-0.0975113
-0.142398
-0.25733
-0.397308
-0.562308
-0.547308
-0.422308
0.142715
0.922715
1.56269
2.15265
2.48765
2.75269
2.47272
2.06272
1.29771
0.472715
0.192692
-0.032353
-0.0373982
-0.0474435
-0.0524661
-0.0874661
-0.117443
-0.147398
-0.157376
-0.167376
-0.182353
-0.197308
-0.197217
-0.197081
-0.206946
-0.21681
-0.211697
-0.206606
-0.196516
-0.186403
-0.191244
-0.196063
-0.195882
-0.195701
-0.18052
-0.175317
-0.170113
-0.164932
-0.164729
-0.164502
-0.164253
-0.158982
-0.14871
-0.138462
-0.128235
-0.122941
-0.122579
-0.122217
-0.116855
-0.106538
-0.0962669
-0.0859728
-0.0756561
-0.0703167
-0.0649547
-0.0445701
-0.0291402
-0.0136425
0.00194574
0.0326245
0.0633485
0.0840951
0.104955
0.135996
0.162127
0.198258
0.234231
0.274932
0.30552
0.341086
0.366606
0.387082
0.412511
0.437896
0.46819
0.503394
0.533597
0.553801
0.569005
0.584231
0.594412
0.589548
0.564638
0.529661
0.474593
0.414434
0.344208
0.273937
0.203643
0.13819
0.0824435
0.0315837
-0.0141629
-0.0547059
-0.0849774
-0.115113
-0.130271
-0.15043
-0.160498
-0.170452
-0.170317
-0.170091
-0.179774
-0.189389
-0.183937
-0.17871
-0.17405
-0.170045
-0.171765
-0.173394
-0.174457
-0.172964
-0.167941
-0.160023
-0.149434
-0.13733
-0.124027
-0.111991
-0.10181
-0.0950905
-0.0921041
-0.0904299
-0.084819
-0.0792308
-0.0786878
-0.0781901
-0.0828733
-0.0877376
-0.0877828
-0.0878507
-0.0875566
-0.0864706
-0.0898417
-0.0929186
-0.0919231
-0.0930769
-0.097172
-0.104774
-0.114887
-0.126878
-0.139751
-0.153122
-0.16414
-0.171674
-0.176154
-0.182647
-0.188462
-0.189095
-0.189683
-0.190271
-0.190747
-0.196086
-0.20129
-0.201538
-0.201425
-0.206176
-0.210882
-0.210566
-0.210249
-0.20491
-0.199525
-0.199095
-0.19862
-0.1981
-0.197534
-0.196923
-0.196222
-0.195475
-0.194728
-0.188959
-0.183054
-0.187014
-0.190882
-0.189661
-0.183326
-0.171923
-0.165407
-0.163756
-0.161923
-0.159955
-0.162851
-0.165679
-0.158462
-0.151199
-0.143891
-0.136471
-0.138891
-0.141176
-0.143394
-0.145634
-0.132896
-0.120158
-0.107489
-0.0900226
-0.0678054
-0.0459502
-0.029457
-0.0183711
-0.0176923
0.0124887
0.0821946
0.111538
0.0855203
0.0391629
-0.0175113
-0.044457
-0.0466742
-0.0540724
-0.0666742
-0.0844796
-0.102466
-0.120588
-0.138846
-0.147285
-0.150882
-0.149525
-0.143122
-0.141561
-0.149796
-0.157828
-0.160611
-0.163122
-0.165339
-0.167262
-0.168869
-0.170136
-0.171131
-0.171878
-0.172443
-0.172851
-0.173167
-0.163416
-0.15362
-0.153756
-0.153801
-0.148778
-0.143733
-0.133756
-0.123801
-0.128846
-0.218869
-0.408869
-0.543869
-0.608891
-0.403937
0.0610181
0.70095
1.48086
2.04077
2.46568
2.67059
2.7755
2.25038
1.48025
0.805113
0.159977
0.0147964
-0.0204298
-0.0256335
-0.0258145
-0.0509955
-0.0811764
-0.106403
-0.0866742
-0.156923
-0.177149
-0.182376
-0.187602
-0.187851
-0.188122
-0.188371
-0.188597
-0.188801
-0.188982
-0.19414
-0.199276
-0.199434
-0.194615
-0.179796
-0.169955
-0.170068
-0.170158
-0.170271
-0.170385
-0.165475
-0.155588
-0.145701
-0.140747
-0.140747
-0.140724
-0.135679
-0.125679
-0.115724
-0.100769
-0.0858145
-0.0808371
-0.0808371
-0.0808371
-0.0758371
-0.0558823
-0.0359728
-0.0260181
-0.0160181
0.00400454
0.0240724
0.0492534
0.0695475
0.0899095
0.110294
0.150634
0.191109
0.216946
0.247941
0.278824
0.309502
0.33991
0.370181
0.395453
0.420701
0.455882
0.485996
0.516063
0.546041
0.575928
0.600769
0.615588
0.61043
0.580317
0.540204
0.495045
0.439774
0.379389
0.313891
0.248303
0.177738
0.102172
0.0415385
-0.0142308
-0.0552262
-0.0913122
-0.112262
-0.128009
-0.138484
-0.148801
-0.164095
-0.179367
-0.184615
-0.174819
-0.174887
-0.174842
-0.179751
-0.185045
-0.186177
-0.187896
-0.189932
-0.191063
-0.185091
-0.176222
-0.168824
-0.158891
-0.147014
-0.134185
-0.115928
-0.100068
-0.0927149
-0.0884163
-0.0820362
-0.0763122
-0.0807466
-0.0852488
-0.0847963
-0.0843665
-0.078733
-0.0722171
-0.0749321
-0.0780542
-0.082285
-0.0893439
-0.0893212
-0.0923303
-0.102738
-0.114751
-0.132602
-0.150452
-0.166063
-0.177489
-0.175973
-0.172398
-0.173032
-0.178643
-0.184163
-0.18457
-0.184864
-0.190045
-0.195136
-0.185136
-0.175023
-0.184796
-0.194525
-0.199231
-0.203914
-0.198575
-0.193213
-0.187783
-0.182353
-0.181833
-0.181267
-0.185679
-0.190136
-0.184615
-0.179005
-0.178303
-0.177602
-0.1719
-0.166109
-0.170226
-0.174231
-0.173145
-0.166991
-0.155792
-0.15448
-0.163032
-0.166471
-0.164774
-0.163009
-0.156154
-0.149208
-0.147172
-0.145068
-0.137873
-0.135543
-0.138145
-0.130679
-0.123145
-0.115566
-0.107986
-0.10543
-0.102986
-0.0957692
-0.0888687
-0.0673076
-0.0411312
-0.0153619
0.00500008
-4.51654e-05
-0.000565533
0.013439
0.0420363
0.090249
0.108122
0.0756788
0.0280317
-0.0247963
-0.0527601
-0.0608597
-0.0691176
-0.0725339
-0.0809276
-0.104185
-0.122285
-0.140181
-0.147828
-0.155226
-0.16233
-0.159163
-0.155724
-0.156991
-0.157964
-0.158665
-0.159163
-0.164502
-0.169728
-0.159887
-0.154932
-0.149887
-0.149774
-0.149638
-0.149457
-0.149231
-0.139004
-0.128778
-0.148552
-0.223326
-0.443077
-0.592805
-0.572557
-0.34733
0.272828
0.912964
1.58312
2.11328
2.46842
2.65357
2.65373
2.15887
1.22898
0.574027
0.11905
-0.050905
-0.0408597
-0.0508145
-0.0757692
-0.100747
-0.125747
-0.145769
-0.160814
-0.175792
-0.190701
-0.195634
-0.200588
-0.205566
-0.205566
-0.200566
-0.205566
-0.19052
-0.19543
-0.200339
-0.205249
-0.195158
-0.185068
-0.184955
-0.184819
-0.174683
-0.164548
-0.164367
-0.16414
-0.163959
-0.163824
-0.158688
-0.148507
-0.133258
-0.122986
-0.122738
-0.122511
-0.107285
-0.0970814
-0.0868778
-0.076629
-0.0663575
-0.0610633
-0.055724
-0.0403846
-0.0250679
-0.00975111
0.0105656
0.0358824
0.0561991
0.0765385
0.0969005
0.127262
0.157624
0.188077
0.218643
0.244321
0.270091
0.305837
0.336584
0.367398
0.398348
0.434502
0.470724
0.496833
0.52276
0.543462
0.56405
0.584593
0.605091
0.595566
0.575996
0.541335
0.496606
0.43681
0.376991
0.312149
0.252262
0.192376
0.127511
0.0676471
0.0128054
-0.0320136
-0.0668326
-0.0916742
-0.106584
-0.126493
-0.14138
-0.156244
-0.161086
-0.165905
-0.170747
-0.175611
-0.180475
-0.180317
-0.180204
-0.180407
-0.181629
-0.183575
-0.185475
-0.176403
-0.174615
-0.170045
-0.157579
-0.142715
-0.136176
-0.128869
-0.116697
-0.106991
-0.0917195
-0.0792534
-0.0785747
-0.0784615
-0.0830996
-0.0877602
-0.082534
-0.0773982
-0.0773529
-0.0773303
-0.0823077
-0.0873077
-0.0923303
-0.0973529
-0.0973756
-0.0974434
-0.0925339
-0.0876018
-0.0926923
-0.0977376
-0.0978281
-0.0979186
-0.103009
-0.108054
-0.108054
-0.108077
-0.108122
-0.108122
-0.113077
-0.118032
-0.113009
-0.108054
-0.108145
-0.113213
-0.118235
-0.123213
-0.127738
-0.126674
-0.124955
-0.117489
-0.111154
-0.11638
-0.124977
-0.13724
-0.151787
-0.163462
-0.175452
-0.182104
-0.185068
-0.183824
-0.180294
-0.184683
-0.189027
-0.183326
-0.177376
-0.176176
-0.174706
-0.173009
-0.171086
-0.168982
-0.166652
-0.164118
-0.161471
-0.15371
-0.145769
-0.147647
-0.149412
-0.146063
-0.142647
-0.134163
-0.125611
-0.116991
-0.108416
-0.104932
-0.101629
-0.0985747
-0.0958371
-0.0933937
-0.0862444
-0.0793665
-0.0777828
-0.0765159
-0.0805204
-0.0847964
-0.0843213
-0.0840498
-0.0739367
-0.063914
-0.0640045
-0.0642308
-0.0695702
-0.075
-0.0705204
-0.0661086
-0.0567647
-0.0524887
-0.0632579
-0.0691177
-0.0650679
-0.056086
-0.0471946
-0.0384163
-0.0197059
0.00389139
0.0323756
0.0307692
0.0140271
0.0270815
0.0549548
0.102692
0.150294
0.112828
0.0502941
0.00264707
-0.0451357
-0.0530543
-0.0561086
-0.0642534
-0.0724661
-0.0907466
-0.109027
-0.122285
-0.13543
-0.143439
-0.151244
-0.148824
-0.146109
-0.148077
-0.149706
-0.146063
-0.142217
-0.148122
-0.153824
-0.154344
-0.154774
-0.150091
-0.145294
-0.145385
-0.145452
-0.14552
-0.140588
-0.125611
-0.115611
-0.115611
-0.115633
-0.110679
-0.200747
-0.330837
-0.47595
-0.626086
-0.366199
-0.0112896
0.74362
1.56353
2.07339
2.54819
2.63294
2.57267
1.77244
0.862262
0.382104
-0.0580317
-0.0482127
-0.0384389
-0.0636425
-0.0888235
-0.118982
-0.139118
-0.164231
-0.179321
-0.194434
-0.20957
-0.204706
-0.199842
-0.20491
-0.209955
-0.210023
-0.210113
-0.205204
-0.200294
-0.195362
-0.190407
-0.19043
-0.190385
-0.185294
-0.175226
-0.165181
-0.160136
-0.160091
-0.16
-0.154864
-0.149729
-0.149593
-0.14448
-0.134389
-0.124299
-0.114208
-0.10905
-0.103824
-0.0885973
-0.078371
-0.0631674
-0.0480091
-0.0378733
-0.0277376
-0.0175339
-0.00728506
0.0129412
0.0331674
0.0484163
0.0687104
0.0940271
0.119367
0.144796
0.170362
0.196086
0.23181
0.272466
0.308145
0.338914
0.36991
0.396131
0.422195
0.447986
0.478552
0.503891
0.529208
0.554525
0.574819
0.590091
0.590317
0.580498
0.550611
0.515656
0.465656
0.415611
0.350588
0.285588
0.215588
0.150588
0.100611
0.0456561
0.000678729
-0.0443213
-0.0693213
-0.0943213
-0.119321
-0.144321
-0.149299
-0.154276
-0.159299
-0.164344
-0.164367
-0.164457
-0.164661
-0.164932
-0.165272
-0.166018
-0.162353
-0.159638
-0.162851
-0.164751
-0.169887
-0.171335
-0.158869
-0.139118
-0.11724
-0.0999095
-0.0927828
-0.0892081
-0.0846833
-0.0823077
-0.0769005
-0.0714253
-0.0708824
-0.0704525
-0.0751358
-0.0799548
-0.0848643
-0.0898869
-0.085
-0.0802263
-0.0805204
-0.0807466
-0.0909276
-0.0911086
-0.0912896
-0.0914932
-0.0917195
-0.0919231
-0.0921041
-0.0922851
-0.0924661
-0.102647
-0.112851
-0.108077
-0.103371
-0.103529
-0.103235
-0.107262
-0.110588
-0.108348
-0.107127
-0.107353
-0.111584
-0.119457
-0.129661
-0.146765
-0.164525
-0.176787
-0.18552
-0.190882
-0.188167
-0.178439
-0.173529
-0.178462
-0.183258
-0.187896
-0.19233
-0.191561
-0.190633
-0.184548
-0.178281
-0.176833
-0.180226
-0.183484
-0.181652
-0.179706
-0.167624
-0.155407
-0.153054
-0.150566
-0.147964
-0.145249
-0.137421
-0.12948
-0.126471
-0.123371
-0.120158
-0.116878
-0.118552
-0.120226
-0.111946
-0.103846
-0.0959502
-0.0883032
-0.085905
-0.0838009
-0.0819909
-0.0805656
-0.0795022
-0.0786878
-0.0781448
-0.0778507
-0.0778054
-0.0778959
-0.0731448
-0.0685973
-0.0742534
-0.0750226
-0.065905
-0.0568552
-0.0478959
-0.0240272
-0.000271492
0.013371
0.0319005
0.0302715
0.0285068
0.091629
0.144661
0.112579
0.0753394
0.0129186
-0.0346832
-0.0324434
-0.0302489
-0.0480996
-0.0660407
-0.0841176
-0.102308
-0.110611
-0.118937
-0.127262
-0.135475
-0.138575
-0.141471
-0.144186
-0.146629
-0.148823
-0.145769
-0.137398
-0.13871
-0.149728
-0.155498
-0.161086
-0.166538
-0.161878
-0.157149
-0.157353
-0.157466
-0.152511
-0.147489
-0.147443
-0.142443
-0.132511
-0.107602
-0.12767
-0.222692
-0.372692
-0.527715
-0.64776
-0.417828
-0.0979185
0.791968
1.60683
2.13172
2.56163
2.71152
2.60638
1.84124
1.10609
0.44095
0.0107692
-0.0193439
-0.0444118
-0.0644796
-0.0895928
-0.114751
-0.139932
-0.160113
-0.175294
-0.190453
-0.205566
-0.215656
-0.220747
-0.21586
-0.206041
-0.196244
-0.191335
-0.191335
-0.191312
-0.191267
-0.191244
-0.191244
-0.186222
-0.176176
-0.171109
-0.171018
-0.165905
-0.160769
-0.160656
-0.160566
-0.150475
-0.140385
-0.135249
-0.130068
-0.129864
-0.129638
-0.114434
-0.0992534
-0.0940724
-0.0888914
-0.078733
-0.0685747
-0.0633937
-0.0532127
-0.033009
-0.0128054
0.00735294
0.0275113
0.0377149
0.0529864
0.0733258
0.0987557
0.124276
0.149864
0.185543
0.216199
0.246833
0.27276
0.298937
0.335
0.370928
0.406561
0.446968
0.467398
0.487851
0.513235
0.538552
0.558778
0.583914
0.589027
0.594118
0.574186
0.549231
0.504276
0.459321
0.394344
0.334344
0.274344
0.209367
0.144434
0.0795023
0.0245022
-0.0256109
-0.0558597
-0.0812444
-0.0967195
-0.112127
-0.132511
-0.148122
-0.163914
-0.169706
-0.170475
-0.165995
-0.15629
-0.156448
-0.166652
-0.172195
-0.173326
-0.175068
-0.172285
-0.168462
-0.16319
-0.153869
-0.150837
-0.14543
-0.133077
-0.120023
-0.107443
-0.0933937
-0.092715
-0.0750227
-0.0792534
-0.0835973
-0.0880317
-0.0825792
-0.0772625
-0.0770362
-0.0769231
-0.0769457
-0.0770588
-0.0822398
-0.0874887
-0.0928054
-0.0932353
-0.0785747
-0.0733711
-0.0874208
-0.0957919
-0.0986199
-0.102172
-0.0969005
-0.0956561
-0.103122
-0.113077
-0.130136
-0.148145
-0.166109
-0.181403
-0.18871
-0.192466
-0.188801
-0.184502
-0.189842
-0.195249
-0.200656
-0.205905
-0.201041
-0.196018
-0.195837
-0.195543
-0.190158
-0.189661
-0.194072
-0.193439
-0.192783
-0.187104
-0.181335
-0.18043
-0.179412
-0.183326
-0.187195
-0.181041
-0.174796
-0.173439
-0.171968
-0.165362
-0.158643
-0.156787
-0.154842
-0.157805
-0.160611
-0.153258
-0.145792
-0.14319
-0.140475
-0.137647
-0.134751
-0.126787
-0.118778
-0.115701
-0.112647
-0.109615
-0.106719
-0.103982
-0.101493
-0.0942987
-0.0875113
-0.086086
-0.0849774
-0.0842308
-0.0838914
-0.0789819
-0.0594344
-0.0352263
-0.011267
0.0124434
0.00090494
-0.00581452
0.0422624
0.0851357
0.0878054
0.0802714
0.0275565
-0.0152489
-0.0230996
-0.0360634
-0.0591856
-0.0824435
-0.105837
-0.124276
-0.127738
-0.131131
-0.139434
-0.147511
-0.150407
-0.153054
-0.160453
-0.162579
-0.149412
-0.14086
-0.147014
-0.152828
-0.158416
-0.163891
-0.159253
-0.15448
-0.159593
-0.159638
-0.149638
-0.14457
-0.14448
-0.144389
-0.139299
-0.119253
-0.134231
-0.244118
-0.398959
-0.543869
-0.663824
-0.503801
-0.243801
0.646199
1.4662
2.0212
2.4962
2.71118
2.70113
2.11604
1.46091
0.675769
0.140611
0.0104977
-0.0595702
-0.039638
-0.0347511
-0.0699095
-0.0950905
-0.115249
-0.135385
-0.15552
-0.170633
-0.185701
-0.195769
-0.20086
-0.195995
-0.181154
-0.181222
-0.191222
-0.196222
-0.201222
-0.196244
-0.18129
-0.176312
-0.176312
-0.17629
-0.171244
-0.166154
-0.166018
-0.160905
-0.155814
-0.155769
-0.155747
-0.145656
-0.13552
-0.140362
-0.145181
-0.135023
-0.124887
-0.114751
-0.104615
-0.0944797
-0.0843213
-0.0741403
-0.0639819
-0.0538462
-0.0337331
-0.00861992
0.0115384
0.0217194
0.0369004
0.0620814
0.0922398
0.117398
0.142624
0.167941
0.198371
0.238914
0.264434
0.289955
0.320679
0.351584
0.392489
0.433348
0.459005
0.479502
0.504977
0.530385
0.555656
0.585814
0.59586
0.605815
0.595792
0.580792
0.535769
0.490701
0.430588
0.375339
0.314932
0.249457
0.168982
0.098552
0.0381448
-0.0175339
-0.048552
-0.0795475
-0.105475
-0.126131
-0.141561
-0.151968
-0.167308
-0.172579
-0.177805
-0.182986
-0.1781
-0.173077
-0.178077
-0.183552
-0.184706
-0.186516
-0.188869
-0.19052
-0.186018
-0.177489
-0.170249
-0.160475
-0.148529
-0.135611
-0.11776
-0.102602
-0.0954299
-0.08681
-0.0906109
-0.095
-0.0997511
-0.0944797
-0.0891629
-0.0889367
-0.0880996
-0.0864706
-0.0845702
-0.0874887
-0.0921267
-0.0937104
-0.0991629
-0.090905
-0.0971493
-0.125113
-0.148077
-0.160724
-0.169434
-0.174434
-0.177127
-0.177873
-0.178688
-0.184593
-0.190385
-0.196041
-0.201516
-0.196855
-0.192104
-0.187285
-0.187421
-0.197511
-0.202511
-0.207421
-0.212376
-0.207376
-0.202308
-0.197172
-0.191991
-0.191765
-0.196493
-0.201176
-0.195837
-0.190498
-0.185158
-0.179751
-0.184208
-0.188552
-0.187873
-0.187195
-0.181471
-0.175633
-0.169706
-0.163688
-0.162579
-0.161357
-0.164955
-0.168484
-0.161946
-0.155317
-0.148597
-0.141742
-0.144751
-0.14767
-0.14552
-0.138348
-0.126154
-0.118914
-0.111606
-0.104344
-0.107104
-0.11
-0.108077
-0.101471
-0.0902036
-0.0593665
-0.0289367
-0.013914
0.00070136
-0.000158362
-0.0114932
0.0417421
0.109593
0.0971493
0.0844344
0.0264706
-0.0316968
-0.0400226
-0.0485068
-0.0621719
-0.0758824
-0.089638
-0.103326
-0.116855
-0.130136
-0.138213
-0.146041
-0.148575
-0.150837
-0.147828
-0.144502
-0.14586
-0.146923
-0.152738
-0.158439
-0.159027
-0.154548
-0.144977
-0.140317
-0.140588
-0.140792
-0.140973
-0.131176
-0.116403
-0.121606
-0.136787
-0.296968
-0.492149
-0.572308
-0.632466
-0.267692
0.147036
0.991742
0.166425
2.27115
2.66591
2.66561
2.58529
1.70995
0.884593
0.379231
-0.0361312
-0.0165158
0.00307694
-0.0223303
-0.0477375
-0.0831674
-0.11362
-0.12905
-0.139457
-0.149842
-0.160226
-0.170656
-0.181109
-0.176584
-0.172081
-0.177557
-0.183009
-0.183439
-0.183801
-0.184118
-0.184434
-0.179751
-0.170068
-0.160385
-0.155656
-0.160882
-0.166131
-0.161403
-0.146674
-0.131946
-0.127195
-0.122421
-0.117624
-0.112783
-0.107896
-0.107986
-0.0981222
-0.0883032
-0.0784842
-0.0686652
-0.0588009
-0.0488914
-0.0440045
-0.0391403
-0.019276
0.000610846
0.015543
0.0304977
0.0504751
0.0654751
0.0854525
0.11043
0.13543
0.165407
0.200385
0.23552
0.265815
0.291176
0.316606
0.352014
0.387353
0.417919
0.453778
0.484593
0.515362
0.540882
0.561154
0.586403
0.611629
0.616787
0.621878
0.601923
0.571923
0.521878
0.471787
0.411652
0.346471
0.28629
0.226109
0.15595
0.0908145
0.0306788
-0.024457
-0.0495927
-0.0747511
-0.0899547
-0.105158
-0.120339
-0.135611
-0.145995
-0.156448
-0.156991
-0.157511
-0.157986
-0.158733
-0.159796
-0.161471
-0.168891
-0.171403
-0.163982
-0.159932
-0.154027
-0.144231
-0.1431
-0.132398
-0.124842
-0.117217
-0.0999095
-0.0865837
-0.0820136
-0.0797285
-0.0743213
-0.0688235
-0.0732353
-0.0777602
-0.0773982
-0.0772172
-0.0771946
-0.0772172
-0.0772625
-0.0773303
-0.0774208
-0.0775792
-0.0778054
-0.0780317
-0.0783032
-0.0786652
-0.0788462
-0.0887556
-0.0977828
-0.100882
-0.104321
-0.0973529
-0.0945023
-0.104932
-0.118032
-0.12871
-0.140701
-0.15371
-0.16595
-0.17681
-0.183529
-0.186697
-0.193145
-0.203394
-0.208778
-0.204253
-0.199593
-0.194751
-0.189661
-0.194367
-0.198937
-0.198394
-0.197805
-0.197172
-0.196448
-0.195633
-0.194728
-0.19371
-0.192557
-0.191335
-0.195068
-0.198733
-0.18733
-0.175814
-0.17914
-0.182308
-0.180339
-0.178258
-0.171086
-0.163778
-0.156335
-0.148778
-0.146086
-0.143303
-0.140407
-0.137421
-0.134367
-0.131267
-0.123122
-0.114977
-0.111833
-0.108778
-0.10586
-0.103235
-0.0959049
-0.0888914
-0.0872172
-0.0858597
-0.0848416
-0.0842081
-0.0839366
-0.0840271
-0.0894796
-0.0901809
-0.0811312
-0.0772398
-0.0735294
-0.0500226
-0.026742
-0.0136651
0.00420818
0.00692312
0.00947968
0.0619005
0.114208
0.0864254
0.0535295
-0.00952484
-0.0577375
-0.0560407
-0.0543665
-0.0727149
-0.0909955
-0.104185
-0.122195
-0.140023
-0.152647
-0.150023
-0.147036
-0.148733
-0.150113
-0.151154
-0.1519
-0.152443
-0.152873
-0.148167
-0.143348
-0.148416
-0.153394
-0.158303
-0.16319
-0.158054
-0.152919
-0.147783
-0.132647
-0.117511
-0.162376
-0.22224
-0.417127
-0.622059
-0.547059
-0.632104
0.287873
1.02287
1.61787
2.18287
2.46785
2.69781
2.54276
2.25271
1.34265
0.562557
0.187489
-0.0725792
-0.0376923
-0.017828
-0.0379412
-0.0680543
-0.113122
-0.148145
-0.168167
-0.183235
-0.188326
-0.193416
-0.193507
-0.19362
-0.198756
-0.208846
-0.218891
-0.218937
-0.208982
-0.199095
-0.189276
-0.184367
-0.184367
-0.184344
-0.184299
-0.184321
-0.179367
-0.174367
-0.169321
-0.164253
-0.159163
-0.149072
-0.143982
-0.138869
-0.133733
-0.11862
-0.103529
-0.0983937
-0.0932127
-0.0930317
-0.0928507
-0.0776923
-0.0625566
-0.0523756
-0.0421493
-0.0319457
-0.0167421
-0.00151582
0.0137104
0.0339367
0.0591403
0.0892987
0.119457
0.139661
0.16491
0.195204
0.230588
0.266063
0.301584
0.337172
0.372783
0.403416
0.429321
0.450498
0.476539
0.507421
0.542986
0.573303
0.583665
0.594072
0.584412
0.564683
0.52491
0.480068
0.430136
0.380136
0.305181
0.235271
0.165362
0.0954525
0.0355204
-0.014457
-0.0444796
-0.0745023
-0.099457
-0.124367
-0.144299
-0.159276
-0.164344
-0.169548
-0.169842
-0.170249
-0.170769
-0.171131
-0.171357
-0.172014
-0.178167
-0.180317
-0.173416
-0.17086
-0.173416
-0.171719
-0.171629
-0.168846
-0.153484
-0.136765
-0.123959
-0.11181
-0.0959276
-0.0841402
-0.0858597
-0.089276
-0.0888688
-0.0883258
-0.0877149
-0.0821946
-0.0868099
-0.0916063
-0.0965384
-0.0915611
-0.0866515
-0.0867873
-0.0869683
-0.0821493
-0.0773303
-0.0875339
-0.0978054
-0.0981674
-0.0985747
-0.088914
-0.0785973
-0.0875113
-0.0958371
-0.103733
-0.113077
-0.0991855
-0.099095
-0.112489
-0.128077
-0.140475
-0.153394
-0.165633
-0.174072
-0.184095
-0.191425
-0.187036
-0.182489
-0.187783
-0.192964
-0.193009
-0.192941
-0.18776
-0.182421
-0.186946
-0.19138
-0.185724
-0.184977
-0.18914
-0.188213
-0.187195
-0.181109
-0.174932
-0.17362
-0.172172
-0.175656
-0.17905
-0.17233
-0.165475
-0.158484
-0.151357
-0.149095
-0.146697
-0.149163
-0.151538
-0.143846
-0.136086
-0.123235
-0.110226
-0.112081
-0.113891
-0.110656
-0.107534
-0.10457
-0.101833
-0.0943439
-0.0871267
-0.090181
-0.0936199
-0.0924208
-0.0915837
-0.0861538
-0.0761086
-0.0663574
-0.0667647
-0.0773755
-0.08319
-0.0842307
-0.0804751
-0.0669004
-0.0434615
-0.020181
0.00791858
0.0358824
0.0137104
-0.00361991
0.0438914
0.0912443
0.113394
0.11543
0.0423982
-0.020724
-0.0439593
-0.0622624
-0.0656787
-0.0741403
-0.0926018
-0.105928
-0.119118
-0.132059
-0.139729
-0.147081
-0.149186
-0.151041
-0.147602
-0.143869
-0.144842
-0.145566
-0.151109
-0.156538
-0.156878
-0.157127
-0.152308
-0.147443
-0.147534
-0.147534
-0.147489
-0.142489
-0.132534
-0.122602
-0.127692
-0.262715
-0.42267
-0.547647
-0.64267
-0.322783
0.0670362
0.906923
1.68183
2.17172
2.57658
2.69647
2.55138
1.72127
0.971109
0.38095
0.00570138
-0.0145023
-0.0346606
-0.054819
-0.0800226
-0.105249
-0.130475
-0.150679
-0.16586
-0.176063
-0.186267
-0.196425
-0.201561
-0.206697
-0.211878
-0.207104
-0.202262
-0.202353
-0.202443
-0.197534
-0.192647
-0.187783
-0.182873
-0.177919
-0.172941
-0.167941
-0.162919
-0.162873
-0.157851
-0.152873
-0.142919
-0.132941
-0.132873
-0.132738
-0.132647
-0.132602
-0.117534
-0.102443
-0.0923529
-0.0822624
-0.072172
-0.0620588
-0.0519457
-0.0418326
-0.0316968
-0.0115837
0.0135294
0.0286878
0.0338914
0.049095
0.0692534
0.0943665
0.119457
0.14457
0.169751
0.200045
0.240452
0.271018
0.301742
0.337353
0.372873
0.408597
0.449525
0.475566
0.501629
0.527376
0.552851
0.568235
0.588552
0.593846
0.599095
0.574276
0.544412
0.489502
0.434548
0.36957
0.30957
0.249547
0.184502
0.11948
0.0544796
0.00447963
-0.0405204
-0.0705882
-0.0956561
-0.110701
-0.120792
-0.130905
-0.141018
-0.156154
-0.161403
-0.161765
-0.162149
-0.157534
-0.152919
-0.158439
-0.164819
-0.172081
-0.174796
-0.16776
-0.16405
-0.163439
-0.158982
-0.150973
-0.140679
-0.133484
-0.125656
-0.108439
-0.0899547
-0.0898416
-0.0723982
-0.0766516
-0.0809955
-0.0854299
-0.0799774
-0.0746606
-0.074457
-0.0743665
-0.0743665
-0.0744344
-0.0795249
-0.084638
-0.0897738
-0.0949548
-0.0851131
-0.0754299
-0.085724
-0.0959955
-0.096267
-0.096629
-0.0969909
-0.0968552
-0.101154
-0.104615
-0.102489
-0.100724
-0.105226
-0.113371
-0.119955
-0.12448
-0.126267
-0.139163
-0.161878
-0.177624
-0.180452
-0.179321
-0.185837
-0.191425
-0.191584
-0.191765
-0.186878
-0.18681
-0.191561
-0.196154
-0.200656
-0.195091
-0.189367
-0.188462
-0.187466
-0.186425
-0.185294
-0.179072
-0.172738
-0.171312
-0.169796
-0.168167
-0.16638
-0.169389
-0.172285
-0.165068
-0.15776
-0.150362
-0.142783
-0.14
-0.137104
-0.134095
-0.130995
-0.127805
-0.12457
-0.116267
-0.107986
-0.104728
-0.101584
-0.0985972
-0.0959275
-0.0935746
-0.0915836
-0.0849094
-0.0785293
-0.0774886
-0.0767872
-0.0764479
-0.0764252
-0.0666741
-0.072104
-0.0777148
-0.0684841
-0.0594117
-0.055475
-0.0516967
-0.0280995
-0.00470582
0.00348424
0.0115385
0.0195023
0.042353
0.0950453
0.127557
0.0998643
0.0570363
0.0041177
-0.0288914
-0.0420135
-0.0552262
-0.0735294
-0.0919004
-0.115362
-0.128801
-0.137127
-0.145226
-0.148145
-0.150724
-0.153032
-0.155068
-0.15181
-0.148235
-0.149344
-0.150136
-0.150701
-0.151063
-0.156267
-0.161357
-0.166403
-0.161471
-0.171538
-0.141516
-0.141425
-0.141357
-0.141312
-0.121267
-0.116222
-0.221176
-0.341131
-0.521109
-0.646109
-0.561086
-0.276041
0.533982
1.29398
1.94898
2.45396
2.70898
2.679
2.24398
1.59891
0.723846
0.203778
0.0136652
-0.0664706
-0.0516063
-0.0567194
-0.0867873
-0.116833
-0.141878
-0.151968
-0.157104
-0.172172
-0.187172
-0.192172
-0.197172
-0.202195
-0.20224
-0.202262
-0.197262
-0.19224
-0.192195
-0.197149
-0.202081
-0.196991
-0.1919
-0.17681
-0.161719
-0.166606
-0.171448
-0.171244
-0.171018
-0.165792
-0.160566
-0.155362
-0.150181
-0.14
-0.129774
-0.129502
-0.124208
-0.108891
-0.0935973
-0.0783258
-0.0680543
-0.0627602
-0.0524434
-0.0421267
-0.0268326
-0.00656106
0.00871043
0.0190272
0.0343439
0.0546607
0.0800227
0.10043
0.12586
0.151312
0.191855
0.237489
0.268145
0.293824
0.324548
0.355385
0.391471
0.432715
0.463846
0.494796
0.52052
0.546109
0.566674
0.587217
0.602692
0.618054
0.608258
0.588394
0.548529
0.503665
0.443778
0.378846
0.313846
0.243801
0.178733
0.113575
0.0433032
-0.00692305
-0.052104
-0.0874434
-0.117941
-0.133643
-0.13448
-0.140068
-0.150498
-0.155679
-0.160769
-0.165814
-0.165792
-0.165611
-0.165362
-0.165543
-0.166222
-0.167647
-0.174615
-0.181199
-0.181516
-0.178213
-0.171493
-0.151787
-0.139774
-0.126584
-0.113529
-0.0974887
-0.0843891
-0.0752489
-0.0684615
-0.0675339
-0.0669683
-0.0713349
-0.075724
-0.0802715
-0.0850679
-0.0798869
-0.0745928
-0.083914
-0.0923982
-0.0901131
-0.0880769
-0.0816969
-0.0786199
-0.0838236
-0.0922625
-0.108462
-0.126018
-0.139118
-0.155566
-0.17457
-0.184525
-0.181561
-0.177511
-0.177851
-0.183371
-0.193959
-0.199434
-0.199774
-0.199955
-0.195
-0.189932
-0.184774
-0.189525
-0.199163
-0.203733
-0.208281
-0.202805
-0.197285
-0.196674
-0.195995
-0.195294
-0.194547
-0.188778
-0.182964
-0.182059
-0.181086
-0.18509
-0.189027
-0.187851
-0.186584
-0.185249
-0.183869
-0.177443
-0.170837
-0.164027
-0.157081
-0.155023
-0.152873
-0.150633
-0.148281
-0.145792
-0.143213
-0.140543
-0.137783
-0.139932
-0.142036
-0.139118
-0.126222
-0.108371
-0.100656
-0.103122
-0.10586
-0.098914
-0.0873756
-0.0712669
-0.0606109
-0.0503846
-0.0255656
-0.00115383
-0.0121719
-0.0235747
0.00966065
0.0375792
0.075181
0.0976018
0.0449095
-0.00291855
-0.030905
-0.0540271
-0.0673077
-0.0856561
-0.10405
-0.117376
-0.130611
-0.14362
-0.161403
-0.168914
-0.171199
-0.168258
-0.160045
-0.156516
-0.16267
-0.168507
-0.174095
-0.174525
-0.164819
-0.16
-0.160068
-0.160023
-0.159887
-0.159683
-0.159457
-0.159231
-0.154005
-0.128824
-0.148688
-0.183507
-0.273281
-0.473122
-0.658032
-0.607941
-0.467851
0.257262
0.982398
1.69751
2.3126
2.61769
2.73778
2.36785
1.82287
0.932851
0.292783
0.0677602
-0.0522398
-0.0172398
-0.00728506
-0.0323982
-0.0625339
-0.0926697
-0.117805
-0.137919
-0.152986
-0.163009
-0.178032
-0.193077
-0.193167
-0.183303
-0.178416
-0.183507
-0.188552
-0.188552
-0.188552
-0.183552
-0.178529
-0.178484
-0.178439
-0.173394
-0.173348
-0.178303
-0.173258
-0.168213
-0.15319
-0.13819
-0.138145
-0.138054
-0.137919
-0.137738
-0.127579
-0.117443
-0.107285
-0.0971041
-0.0869457
-0.0767873
-0.0716063
-0.0664254
-0.056267
-0.0411765
-0.0211312
0.00398189
0.0241855
0.0444344
0.0646833
0.0898643
0.120023
0.150204
0.18543
0.210701
0.236018
0.261471
0.287059
0.322624
0.358167
0.393824
0.43457
0.460475
0.486471
0.512262
0.537873
0.563348
0.59371
0.60405
0.614344
0.599548
0.57957
0.529389
0.47905
0.418552
0.362896
0.307104
0.246335
0.175656
0.105136
0.0447285
-0.0106561
-0.0459955
-0.0762896
-0.0964932
-0.116652
-0.136787
-0.151787
-0.166652
-0.171538
-0.176448
-0.181425
-0.176448
-0.171357
-0.176357
-0.181493
-0.177014
-0.173462
-0.175769
-0.177851
-0.179299
-0.177466
-0.167353
-0.154005
-0.147873
-0.140385
-0.122421
-0.106222
-0.097172
-0.0865385
-0.0881674
-0.0851358
-0.0832579
-0.077353
-0.0744344
-0.0802489
-0.0887783
-0.099819
-0.112127
-0.130475
-0.147036
-0.161493
-0.172308
-0.176787
-0.173145
-0.17371
-0.174299
-0.184955
-0.19552
-0.195973
-0.196335
-0.196584
-0.196719
-0.196765
-0.196765
-0.201697
-0.206629
-0.206584
-0.206538
-0.201493
-0.196357
-0.201131
-0.205905
-0.210679
-0.21552
-0.210385
-0.205204
-0.209977
-0.214706
-0.209389
-0.209027
-0.21362
-0.213213
-0.212828
-0.202443
-0.192014
-0.196493
-0.200882
-0.205226
-0.209502
-0.198688
-0.187805
-0.181855
-0.175837
-0.174729
-0.173552
-0.177285
-0.18095
-0.184548
-0.188054
-0.176471
-0.164819
-0.158077
-0.151312
-0.154548
-0.157783
-0.151018
-0.144276
-0.147557
-0.15095
-0.144457
-0.113167
-0.0771267
-0.0514932
-0.0312217
-0.00131223
0.0282127
0.0273529
0.016086
-0.0156335
-0.0477602
-0.0602263
-0.0779864
-0.090905
-0.103869
-0.111742
-0.119502
-0.152127
-0.18457
-0.18181
-0.178778
-0.165475
-0.151923
-0.153054
-0.153937
-0.159615
-0.165181
-0.160566
-0.155837
-0.156018
-0.156154
-0.156244
-0.15629
-0.156267
-0.156199
-0.151131
-0.136131
-0.116154
-0.186131
-0.321086
-0.461018
-0.610973
-0.47595
-0.22595
0.444072
1.24412
1.81416
2.33921
2.59428
2.80437
2.39441
1.91939
1.0993
1.89419
0.0991403
-0.0658597
-0.0558371
-0.0458145
-0.0708823
-0.0960181
-0.116154
-0.13629
-0.156403
-0.176493
-0.186584
-0.196674
-0.196787
-0.196946
-0.192081
-0.187262
-0.192376
-0.197443
-0.197511
-0.197624
-0.182783
-0.177941
-0.178054
-0.178145
-0.178258
-0.178371
-0.178439
-0.178507
-0.173597
-0.163733
-0.153914
-0.149005
-0.149005
-0.144005
-0.134005
-0.12905
-0.12914
-0.119185
-0.104185
-0.0891403
-0.0740498
-0.0639593
-0.0588688
-0.0488009
-0.0387783
-0.0238235
-0.00889139
0.0111312
0.0312217
0.0513349
0.0764706
0.101561
0.126606
0.156674
0.191765
0.226833
0.261878
0.291946
0.327149
0.367511
0.397941
0.418416
0.449072
0.47991
0.510747
0.541538
0.562172
0.577647
0.588077
0.588439
0.568733
0.528959
0.484186
0.434412
0.37948
0.319389
0.254299
0.189208
0.129185
0.0642534
0.0143665
-0.0355204
-0.0654752
-0.100475
-0.120453
-0.140407
-0.150362
-0.160317
-0.170272
-0.180294
-0.185407
-0.190656
-0.181063
-0.171425
-0.17672
-0.182398
-0.183756
-0.185815
-0.183643
-0.180634
-0.181267
-0.178824
-0.172715
-0.163959
-0.15776
-0.15043
-0.132149
-0.110611
-0.0911312
-0.085362
-0.0859955
-0.0897511
-0.0942534
-0.0937104
-0.0831222
-0.0776697
-0.0773529
-0.0771267
-0.0819909
-0.0869231
-0.0869231
-0.0869683
-0.0870588
-0.082172
-0.0873077
-0.0774435
-0.0875792
-0.0927602
-0.0980317
-0.0933711
-0.0885068
-0.0932353
-0.097172
-0.0952263
-0.0934163
-0.0969231
-0.103756
-0.109231
-0.117489
-0.113122
-0.115249
-0.138394
-0.159321
-0.172896
-0.182715
-0.179208
-0.175045
-0.175362
-0.175611
-0.180747
-0.185656
-0.185339
-0.184864
-0.184276
-0.17862
-0.167896
-0.167059
-0.176109
-0.180023
-0.178801
-0.177511
-0.171131
-0.164638
-0.163032
-0.16129
-0.159389
-0.15733
-0.155113
-0.152783
-0.150339
-0.13776
-0.125068
-0.132262
-0.139299
-0.136222
-0.133032
-0.124729
-0.11638
-0.113009
-0.109615
-0.101244
-0.0929864
-0.0949095
-0.0970814
-0.0895249
-0.0823077
-0.0754525
-0.0688914
-0.0676244
-0.0716516
-0.0809955
-0.0806335
-0.0705656
-0.0656787
-0.0660181
-0.0665611
-0.0673077
-0.0681674
-0.0691403
-0.0552489
-0.0365384
-0.00800902
0.030362
0.0336652
0.0368778
0.0498869
0.062715
0.0753846
0.0929186
0.0403168
-0.0123755
-0.025181
-0.0380995
-0.0561312
-0.0742986
-0.0726018
-0.0759728
-0.104367
-0.127602
-0.130634
-0.133462
-0.136131
-0.138529
-0.140633
-0.142421
-0.138846
-0.134932
-0.135724
-0.13629
-0.141674
-0.146968
-0.147149
-0.147285
-0.142353
-0.137308
-0.132217
-0.127036
-0.121855
-0.106697
-0.0915611
-0.136425
-0.21129
-0.381177
-0.576086
-0.545973
-0.475837
0.259276
1.06434
1.67937
1.10437
2.54943
2.78457
2.29966
1.77971
0.954706
0.229661
0.0896154
-0.0254299
-0.0304751
-0.0405204
-0.0755656
-0.110611
-0.135633
-0.155656
-0.160656
-0.165701
-0.175679
-0.185634
-0.195611
-0.205634
-0.200679
-0.195724
-0.195747
-0.195724
-0.195679
-0.195611
-0.19552
-0.19543
-0.190339
-0.180249
-0.170158
-0.165023
-0.169842
-0.174661
-0.16948
-0.164321
-0.159186
-0.149027
-0.138846
-0.133643
-0.128416
-0.123145
-0.122828
-0.112534
-0.102262
-0.0819909
-0.0617194
-0.0614027
-0.0610407
-0.0556787
-0.0503393
-0.0350452
-0.0197511
-0.00943437
0.00588237
0.0311991
0.0565385
0.0719005
0.0872625
0.107624
0.138054
0.173575
0.204208
0.23
0.260837
0.301719
0.33767
0.373688
0.404751
0.440882
0.466787
0.492466
0.5181
0.543688
0.574163
0.599525
0.60991
0.620294
0.595588
0.560814
0.516041
0.471267
0.406516
0.336787
0.267036
0.197262
0.127489
0.0627149
0.0129412
-0.0318326
-0.0566516
-0.0815158
-0.0913801
-0.106244
-0.126109
-0.141086
-0.151176
-0.161267
-0.16138
-0.161448
-0.156471
-0.151991
-0.1531
-0.154864
-0.162376
-0.169548
-0.171222
-0.164525
-0.14914
-0.135928
-0.135272
-0.128009
-0.114615
-0.103371
-0.0894344
-0.0792308
-0.0723077
-0.0660181
-0.0652489
-0.0645023
-0.0688235
-0.0733484
-0.0780543
-0.0778507
-0.0827149
-0.0675792
-0.0724434
-0.0773529
-0.0823077
-0.0773303
-0.0724208
-0.0724886
-0.0725339
-0.0776017
-0.0826922
-0.0877601
-0.0928054
-0.0928732
-0.093009
-0.0930768
-0.0932352
-0.0933257
-0.092647
-0.101289
-0.109502
-0.102443
-0.0963347
-0.0966967
-0.100792
-0.11328
-0.128145
-0.144932
-0.162534
-0.174728
-0.183869
-0.184842
-0.182466
-0.187964
-0.193077
-0.192986
-0.192896
-0.192738
-0.192376
-0.186833
-0.181154
-0.180317
-0.184276
-0.188077
-0.186787
-0.18543
-0.184027
-0.182489
-0.175747
-0.168846
-0.17181
-0.174615
-0.172262
-0.169774
-0.162149
-0.154412
-0.151516
-0.148507
-0.145385
-0.142195
-0.128937
-0.115588
-0.112172
-0.108665
-0.110068
-0.111584
-0.108258
-0.105204
-0.107421
-0.109955
-0.102828
-0.0960633
-0.0896606
-0.0835973
-0.0828733
-0.0824434
-0.0772851
-0.0723303
-0.0725566
-0.0728507
-0.068258
-0.0388236
-0.00954753
-0.00540726
0.00357465
0.0073982
0.011086
0.0746607
0.128145
0.101516
0.069706
0.0226924
-0.0195248
-0.031923
-0.0444117
-0.0569456
-0.0695474
-0.0872624
-0.105136
-0.118167
-0.131357
-0.134683
-0.137986
-0.141267
-0.144389
-0.147353
-0.145113
-0.13767
-0.134977
-0.142013
-0.148733
-0.155158
-0.161199
-0.161991
-0.162579
-0.157986
-0.153235
-0.153348
-0.153371
-0.148303
-0.14319
-0.148054
-0.152918
-0.147783
-0.13267
-0.142579
-0.112466
-0.11733
-0.282172
-0.437014
-0.536946
-0.591946
-0.376923
-0.0468778
0.788167
1.54824
2.07833
2.50839
2.69339
2.60335
1.9383
1.24826
0.528281
0.0783032
-0.00671942
-0.0517647
-0.0468099
-0.0568552
-0.0869004
-0.111968
-0.132036
-0.152059
-0.172059
-0.182081
-0.187127
-0.187172
-0.177217
-0.177217
-0.187172
-0.192104
-0.197014
-0.201968
-0.196968
-0.191946
-0.1869
-0.18181
-0.181674
-0.181561
-0.181471
-0.171357
-0.161222
-0.151041
-0.140814
-0.150566
-0.160294
-0.160045
-0.159819
-0.144615
-0.129434
-0.124253
-0.119095
-0.108959
-0.0987783
-0.0935294
-0.0832579
-0.0679864
-0.0527602
-0.0325566
-0.0173303
-0.0121041
-0.0018552
0.0134389
0.0338461
0.0543665
0.0799095
0.115498
0.146109
0.176742
0.20267
0.228846
0.26991
0.310837
0.351516
0.391968
0.417376
0.437738
0.458077
0.478394
0.508643
0.543801
0.578869
0.613869
0.613891
0.613914
0.583891
0.548846
0.503801
0.453665
0.393394
0.328122
0.257805
0.187421
0.116968
0.0561991
0.0051131
-0.0408145
-0.0715611
-0.0971041
-0.117466
-0.137783
-0.153032
-0.16319
-0.168303
-0.173371
-0.168348
-0.163235
-0.168145
-0.172896
-0.177647
-0.17819
-0.16948
-0.166222
-0.168213
-0.169253
-0.168824
-0.169593
-0.1719
-0.161787
-0.139729
-0.121878
-0.109457
-0.100045
-0.103756
-0.0957014
-0.0896606
-0.0890272
-0.0886199
-0.0882127
-0.0878959
-0.0827602
-0.077828
-0.0830769
-0.0880996
-0.0878055
-0.0867421
-0.0864932
-0.0849095
-0.0937331
-0.106267
-0.112466
-0.121561
-0.128326
-0.13629
-0.15491
-0.171878
-0.186652
-0.197421
-0.195
-0.191403
-0.197059
-0.202873
-0.203733
-0.204412
-0.20991
-0.215317
-0.215656
-0.215928
-0.211131
-0.206222
-0.211199
-0.211109
-0.200973
-0.205792
-0.215566
-0.215294
-0.214977
-0.204638
-0.194253
-0.193801
-0.193303
-0.19776
-0.202149
-0.196471
-0.190701
-0.189864
-0.188937
-0.187873
-0.186697
-0.185385
-0.184005
-0.182557
-0.180973
-0.169253
-0.157376
-0.155339
-0.15319
-0.15595
-0.158688
-0.156403
-0.149027
-0.136538
-0.128982
-0.131312
-0.128665
-0.116063
-0.108688
-0.106584
-0.079819
-0.0383937
-0.0323077
-0.0266063
-0.0163348
-0.00653848
0.0577375
0.126584
0.0900452
0.0531674
0.0110407
-0.0313349
-0.0439367
-0.0567647
-0.0747964
-0.0930543
-0.111516
-0.130113
-0.138778
-0.147443
-0.156154
-0.16491
-0.158688
-0.152308
-0.155724
-0.158869
-0.156742
-0.154344
-0.161652
-0.168688
-0.175475
-0.176991
-0.16819
-0.164095
-0.164796
-0.165362
-0.17086
-0.17629
-0.171652
-0.166991
-0.162308
-0.152602
-0.142873
-0.123054
-0.10319
-0.173348
-0.263529
-0.443733
-0.268959
-0.564208
-0.464457
0.355294
1.15502
1.78973
2.37441
2.6341
2.78378
2.42344
1.94308
1.06269
0.357285
0.0968778
-0.0685294
-0.0239593
-0.00441176
-0.034819
-0.0652263
-0.0956561
-0.121131
-0.136629
-0.152127
-0.162602
-0.173054
-0.183529
-0.188982
-0.189367
-0.189774
-0.195226
-0.195679
-0.186131
-0.181538
-0.1769
-0.17224
-0.177557
-0.182896
-0.183258
-0.183597
-0.178914
-0.174231
-0.169548
-0.164842
-0.165113
-0.155407
-0.145724
-0.136041
-0.126357
-0.121606
-0.116787
-0.116968
-0.117149
-0.102376
-0.0876471
-0.0779186
-0.0681674
-0.0483484
-0.0384842
-0.0336425
-0.0238235
-0.00398191
0.0208371
0.0506109
0.075543
0.0907014
0.110905
0.136154
0.171425
0.216719
0.252285
0.288145
0.318846
0.344389
0.374751
0.404932
0.435045
0.465091
0.505023
0.544864
0.569683
0.589457
0.594208
0.598914
0.603529
0.602986
0.56733
0.531652
0.47595
0.415226
0.354525
0.288643
0.222466
0.156312
0.0952715
0.0344344
-0.0261086
-0.0716063
-0.102081
-0.127534
-0.137964
-0.148348
-0.153643
-0.158869
-0.164027
-0.169118
-0.18414
-0.189095
-0.188982
-0.189231
-0.184932
-0.181425
-0.177104
-0.179118
-0.190679
-0.193529
-0.18276
-0.169118
-0.152828
-0.135385
-0.122285
-0.110815
-0.101516
-0.0962217
-0.0891629
-0.0833484
-0.0833258
-0.0831222
-0.0923303
-0.0908824
-0.0890498
-0.0819004
-0.0760633
-0.0770362
-0.0813574
-0.0893665
-0.0997059
-0.117149
-0.135226
-0.148778
-0.158959
-0.172557
-0.17638
-0.177443
-0.178394
-0.184231
-0.190023
-0.190815
-0.191471
-0.192014
-0.192421
-0.192715
-0.192919
-0.198032
-0.203077
-0.198077
-0.193077
-0.193077
-0.192986
-0.197805
-0.202602
-0.202376
-0.202172
-0.196991
-0.191765
-0.191493
-0.191176
-0.195814
-0.200385
-0.199932
-0.194457
-0.188982
-0.178484
-0.167896
-0.177172
-0.186335
-0.19043
-0.194457
-0.188416
-0.182262
-0.17595
-0.169525
-0.167986
-0.166357
-0.164638
-0.162851
-0.155995
-0.149095
-0.137149
-0.130045
-0.137783
-0.140475
-0.138167
-0.13095
-0.113824
-0.0817873
-0.0448642
-0.0282127
-0.0218552
-0.0158824
-0.0153167
0.0297964
0.089457
0.0786652
0.0474434
0.000837091
-0.0561539
-0.0635294
-0.0712443
-0.0792308
-0.0924661
-0.11086
-0.129344
-0.142873
-0.156357
-0.164729
-0.172919
-0.170973
-0.168778
-0.161312
-0.153507
-0.160339
-0.166787
-0.167873
-0.168733
-0.169389
-0.169932
-0.170317
-0.170611
-0.165814
-0.16095
-0.161041
-0.161109
-0.156154
-0.146222
-0.13129
-0.121312
-0.116312
-0.226312
-0.401358
-0.516425
-0.616516
-0.351584
0.033371
0.758303
1.56321
2.06814
2.5231
2.65801
2.76287
2.01774
2.7676
0.607466
0.00733033
-0.0128054
-0.0329412
-0.0380995
-0.0432805
-0.0784615
-0.103643
-0.133824
-0.154005
-0.169186
-0.184367
-0.19457
-0.204796
-0.195
-0.185181
-0.195317
-0.205453
-0.205611
-0.205792
-0.200973
-0.196154
-0.191312
-0.186448
-0.186584
-0.186674
-0.181742
-0.176833
-0.176923
-0.167014
-0.152104
-0.147127
-0.147081
-0.147059
-0.147059
-0.142104
-0.132195
-0.122262
-0.112308
-0.10233
-0.0923303
-0.0823077
-0.0772624
-0.0622398
-0.0472398
-0.0272398
-0.0072398
-0.00217193
0.0029412
0.0180317
0.0380996
0.0631222
0.0881448
0.113258
0.138529
0.163937
0.194412
0.224932
0.255453
0.29595
0.331606
0.367489
0.398371
0.424163
0.449774
0.475158
0.505475
0.535724
0.565973
0.591199
0.601312
0.606312
0.59129
0.561244
0.516177
0.471063
0.410905
0.350724
0.275611
0.200566
0.12052
0.0454751
-0.00459276
-0.0596833
-0.0897964
-0.119932
-0.135045
-0.150158
-0.160294
-0.170453
-0.175656
-0.180996
-0.176493
-0.171968
-0.177398
-0.182805
-0.183167
-0.184276
-0.181493
-0.179027
-0.18181
-0.183213
-0.177692
-0.168846
-0.166312
-0.161493
-0.144615
-0.127081
-0.114005
-0.104208
-0.0909502
-0.0874435
-0.086629
-0.0859502
-0.0854073
-0.0848869
-0.0843892
-0.0840498
-0.0838235
-0.0837104
-0.0836651
-0.0837104
-0.0838461
-0.0840498
-0.0843213
-0.0845249
-0.0946606
-0.094819
-0.0950453
-0.0953394
-0.0956787
-0.0960407
-0.0964253
-0.0968326
-0.0966968
-0.105905
-0.11448
-0.112421
-0.11129
-0.104163
-0.102692
-0.114751
-0.129276
-0.146154
-0.163982
-0.172195
-0.177149
-0.183824
-0.187195
-0.187986
-0.188484
-0.193733
-0.198937
-0.194072
-0.189005
-0.183756
-0.178281
-0.182602
-0.186787
-0.190882
-0.18991
-0.178846
-0.17267
-0.17638
-0.18
-0.173529
-0.171946
-0.175226
-0.168348
-0.161335
-0.149186
-0.1369
-0.14448
-0.151946
-0.154299
-0.156538
-0.143688
-0.130724
-0.132624
-0.134389
-0.121063
-0.107715
-0.109344
-0.111086
-0.108009
-0.100181
-0.0826018
-0.0703394
-0.0733937
-0.07681
-0.0805883
-0.084819
-0.0794797
-0.0744118
-0.069638
-0.0650905
-0.0707466
-0.0715385
-0.0624887
-0.0535973
-0.0448643
-0.016267
0.0221946
0.0255656
0.0288235
0.0318778
0.0247511
0.0774208
0.144955
0.097353
0.0496606
0.00685521
-0.0360633
-0.0490498
-0.0621267
-0.0653394
-0.0686878
-0.0821267
-0.100566
-0.124027
-0.142398
-0.150633
-0.158688
-0.151538
-0.144072
-0.14629
-0.14819
-0.149796
-0.151109
-0.157127
-0.162941
-0.158552
-0.154027
-0.149366
-0.144615
-0.149774
-0.154842
-0.159887
-0.15491
-0.13991
-0.129932
-0.119977
-0.109977
-0.0999321
-0.214887
-0.359842
-0.499864
-0.634977
-0.425136
-0.645294
0.614615
1.40957
1.95952
2.47948
2.68939
2.77425
2.05912
1.34398
0.623824
0.0636425
0.00848416
-0.0366516
-0.03681
-0.0469909
-0.0771493
-0.102308
-0.132421
-0.157489
-0.182557
-0.19767
-0.197828
-0.197986
-0.1981
-0.19819
-0.193303
-0.188416
-0.188484
-0.188552
-0.193643
-0.19371
-0.183756
-0.178756
-0.17371
-0.168688
-0.168688
-0.168688
-0.163688
-0.158643
-0.158552
-0.158507
-0.153507
-0.148439
-0.148303
-0.138213
-0.128167
-0.118122
-0.108054
-0.0978959
-0.0876697
-0.0824661
-0.0772851
-0.0571267
-0.0369909
-0.0268326
-0.0166516
0.00352943
0.0187104
0.0338688
0.0540272
0.0792308
0.104457
0.129706
0.155091
0.180656
0.211267
0.251923
0.287579
0.33319
0.36405
0.400226
0.426199
0.451968
0.477579
0.498032
0.523439
0.548778
0.57405
0.599276
0.60448
0.609638
0.589683
0.559638
0.51957
0.47448
0.404457
0.33448
0.264457
0.199412
0.134367
0.0692534
0.0240272
-0.0213574
-0.0519004
-0.0823982
-0.102805
-0.123348
-0.144118
-0.159932
-0.165814
-0.171425
-0.166719
-0.161991
-0.17224
-0.182353
-0.18233
-0.18276
-0.178778
-0.170407
-0.162624
-0.163846
-0.176018
-0.177466
-0.175294
-0.170679
-0.153756
-0.135882
-0.117624
-0.102624
-0.0908824
-0.0823755
-0.0863801
-0.0906108
-0.0900452
-0.0895249
-0.0890724
-0.083733
-0.0884842
-0.0933936
-0.0984842
-0.0937556
-0.089095
-0.0893891
-0.0889819
-0.0877149
-0.0859955
-0.0888914
-0.0931448
-0.0939593
-0.0985294
-0.099457
-0.110091
-0.12276
-0.135905
-0.154163
-0.16862
-0.179434
-0.187443
-0.188145
-0.188778
-0.184367
-0.179955
-0.185475
-0.190792
-0.18595
-0.180995
-0.180928
-0.180724
-0.185407
-0.190023
-0.18957
-0.189095
-0.188597
-0.188009
-0.18733
-0.186629
-0.180905
-0.175068
-0.17414
-0.173167
-0.172149
-0.166063
-0.159887
-0.158597
-0.157195
-0.160701
-0.164095
-0.15733
-0.15043
-0.148326
-0.146109
-0.143778
-0.141335
-0.143756
-0.146109
-0.143416
-0.135679
-0.117896
-0.105023
-0.107059
-0.109118
-0.101199
-0.0934615
-0.0909502
-0.0886877
-0.0917194
-0.0901583
-0.0790045
-0.0732579
-0.0729185
-0.0579864
-0.0384841
-0.00934383
0.0294345
0.0229413
0.00617655
0.0391856
0.0819458
0.0844118
0.0916743
0.0337557
-0.0243212
-0.0225113
-0.0207692
-0.0441402
-0.0676244
-0.0861764
-0.104751
-0.113326
-0.121765
-0.135023
-0.148054
-0.155905
-0.163529
-0.155905
-0.148009
-0.149796
-0.151267
-0.147443
-0.143348
-0.148982
-0.154434
-0.159774
-0.160045
-0.150226
-0.145339
-0.150385
-0.155385
-0.150385
-0.135407
-0.120452
-0.120452
-0.130407
-0.285362
-0.475317
-0.575272
-0.655226
-0.350204
-0.00522625
0.824706
0.0146154
2.15955
2.6195
2.72948
2.75946
1.92437
1.11923
0.499072
-0.00610862
-0.0162896
-0.0264706
-0.0266064
-0.0366969
-0.07681
-0.111946
-0.127059
-0.142172
-0.162262
-0.17733
-0.182398
-0.187489
-0.187579
-0.187692
-0.187828
