ekg
0
0.00666666
-0.005
-0.00357144
-0.00277779
-0.00272727
-0.00538461
-0.00933334
-0.015
-0.0181579
-0.0145238
-0.00500003
0.00620002
0.0138889
0.0294828
0.0541936
0.0742424
0.0855714
0.102432
0.127692
0.155488
0.188256
0.211
0.232447
0.252449
0.272059
0.286226
0.289818
0.287982
0.280085
0.255902
0.230873
0.190077
0.14403
0.0924638
0.0353521
0.00260274
-0.0356
-0.0792857
-0.123101
-0.132284
-0.141928
-0.161941
-0.177126
-0.177472
-0.178022
-0.168763
-0.159368
-0.165206
-0.171263
-0.177475
-0.183835
-0.18519
-0.186776
-0.193532
-0.20027
-0.197212
-0.194304
-0.181496
-0.168866
-0.166157
-0.16374
-0.15132
-0.143976
-0.151783
-0.15458
-0.152556
-0.150556
-0.148504
-0.146547
-0.139716
-0.132902
-0.13131
-0.12966
-0.123054
-0.11649
-0.119967
-0.123516
-0.122166
-0.12088
-0.114627
-0.108313
-0.107121
-0.105928
-0.0947633
-0.098655
-0.102572
-0.1016
-0.100678
-0.0997766
-0.098895
-0.0980328
-0.0973514
-0.106845
-0.116667
-0.111885
-0.10728
-0.107538
-0.108122
-0.108643
-0.108607
-0.108153
-0.107659
-0.112271
-0.116483
-0.110355
-0.104202
-0.103163
-0.102281
-0.106667
-0.111154
-0.105
-0.0988914
-0.0979864
-0.0972851
-0.0970362
-0.0976244
-0.0941176
-0.0966063
-0.110158
-0.114864
-0.10914
-0.106584
-0.11129
-0.112624
-0.107195
-0.0959502
-0.0848868
-0.0845248
-0.0848189
-0.0757239
-0.0671493
-0.0640724
-0.0612669
-0.0636651
-0.0661085
-0.0635746
-0.0610633
-0.0535973
-0.0462217
-0.048914
-0.0518326
-0.0398869
-0.0282127
-0.0318326
-0.0357466
-0.0349774
-0.0343892
-0.0340046
-0.0338462
-0.0339141
-0.0340951
-0.0343892
-0.034819
-0.030362
-0.0259503
-0.0315837
-0.0321946
-0.0227828
-0.0234163
-0.034095
-0.0398869
-0.0357466
-0.031629
-0.0325566
-0.0335746
-0.0396606
-0.0407466
-0.0368778
-0.0380317
-0.0391629
-0.0403167
-0.0415384
-0.0377828
-0.0340271
-0.0353167
-0.0366742
-0.0380995
-0.0395927
-0.0411538
-0.0427601
-0.0443891
-0.0461086
-0.0379185
-0.029819
-0.0267873
-0.0188009
-0.00590496
0.0118552
0.0295023
0.0420588
0.0495475
0.046991
0.0293439
0.0316064
0.0538462
0.061086
0.0583258
0.0355204
0.00266975
-0.0301583
-0.0579411
-0.0656334
-0.0732126
-0.0707239
-0.0580995
-0.0752488
-0.102149
-0.123824
-0.150249
-0.156425
-0.162376
-0.158122
-0.15371
-0.149186
-0.144593
-0.129909
-0.115113
-0.105226
-0.0953167
-0.105407
-0.110475
-0.0804751
-0.0354299
0.0245701
0.139615
0.339706
0.554819
0.789977
1.04014
1.31025
1.23536
0.85552
0.275724
-0.449072
-0.813914
-0.963778
-0.90362
-0.743439
-0.593303
-0.448213
-0.3231
-0.197964
-0.132828
-0.0826923
-0.0676018
-0.0575566
-0.0525113
-0.0524661
-0.0473756
-0.0522398
-0.0371493
-0.0421041
-0.0320136
-0.0218779
-0.0167647
-0.0116742
-0.0115837
-0.0114932
-0.0114027
-0.0113122
-0.00124434
0.00880091
0.0138688
0.0189593
0.0240724
0.0291629
0.0292308
0.0293213
0.0294796
0.029638
0.0447511
0.049819
0.0498869
0.0550226
0.0652036
0.070362
0.0704751
0.0805656
0.0956561
0.100747
0.105837
0.12095
0.136086
0.141244
0.141425
0.151584
0.166719
0.181878
0.197059
0.20724
0.217421
0.242579
0.262715
0.282896
0.303122
0.318371
0.333665
0.359005
0.384412
0.404932
0.425543
0.441199
0.461855
0.482466
0.4981
0.493801
0.489548
0.500317
0.510973
0.506471
0.49681
0.477014
0.452217
0.427421
0.387647
0.342941
0.293167
0.243281
0.188281
0.133145
0.0830317
0.0379412
0.00282807
-0.0273077
-0.0474208
-0.0625113
-0.0825339
-0.102489
-0.107398
-0.112262
-0.122172
-0.132104
-0.1369
-0.126493
-0.135814
-0.144615
-0.147511
-0.149434
-0.145294
-0.140023
-0.133552
-0.127443
-0.128054
-0.13129
-0.127805
-0.125973
-0.129796
-0.133326
-0.131176
-0.128348
-0.129864
-0.130814
-0.131199
-0.13129
-0.126154
-0.120973
-0.120769
-0.12052
-0.125249
-0.13
-0.124819
-0.119547
-0.119276
-0.118959
-0.118597
-0.118235
-0.117851
-0.117398
-0.116923
-0.116516
-0.111154
-0.105724
-0.110226
-0.114706
-0.114163
-0.103597
-0.103009
-0.107421
-0.111833
-0.111244
-0.110656
-0.105023
-0.0993665
-0.108665
-0.117941
-0.112217
-0.106493
-0.100769
-0.095
-0.0941629
-0.0933032
-0.0974208
-0.101493
-0.10052
-0.0995249
-0.0935294
-0.0874887
-0.0913801
-0.095181
-0.0938914
-0.0926018
-0.0863122
-0.0799548
-0.0785521
-0.0770362
-0.0754525
-0.0739367
-0.0674661
-0.0609729
-0.0644344
-0.0677828
-0.0660407
-0.064276
-0.0674434
-0.065543
-0.0535294
-0.0514027
-0.0541629
-0.0467647
-0.0392534
-0.0317195
-0.0242534
-0.0269457
-0.0297059
-0.0274887
-0.025362
-0.0233484
-0.0215385
-0.0149322
-0.00855206
-0.0173982
-0.0264706
-0.0157693
-0.00529414
-0.00502266
-0.00488691
-0.00486429
-0.00488691
-0.00497742
-0.0052489
-0.00572401
-0.00649324
-0.00773759
-0.00988691
-0.0129186
-0.0170136
-0.0222172
-0.0286199
-0.0351132
-0.0399548
-0.0374435
-0.0317421
-0.029095
-0.0257692
-0.022534
-0.02
-0.0231448
-0.0269684
-0.0164027
-0.0163801
-0.016629
-0.0170588
-0.0175792
-0.0181448
-0.018733
-0.014276
-0.00977377
-0.0152941
-0.0208371
-0.0114027
-0.00199097
-0.00757921
-0.0131674
-0.0138009
-0.0144344
-0.0100679
-0.0107466
-0.0264706
-0.0321946
-0.0179186
-0.0086652
-0.0144118
-0.0201584
-0.0209503
-0.0217874
-0.0226471
-0.0234616
-0.0242761
-0.0251358
-0.0260408
-0.026991
-0.0229865
-0.0239594
-0.0349096
-0.0359277
-0.0270363
-0.0231675
-0.0242987
-0.0254299
-0.0265838
-0.0278055
-0.0290951
-0.0254525
-0.0218552
-0.0232806
-0.0247964
-0.0263801
-0.0279638
-0.0345928
-0.0413575
-0.0332353
-0.025181
-0.017172
-0.00920816
-0.0161991
-0.0134616
0.0141402
0.0366968
0.0542307
0.0666968
0.0590497
0.0563348
0.0635746
0.0657918
0.0679638
0.0550905
0.0222172
-0.0106561
-0.0385295
-0.056267
-0.0688462
-0.066267
-0.0534842
-0.0654978
-0.0873077
-0.108914
-0.130294
-0.136403
-0.142308
-0.148009
-0.153529
-0.153959
-0.149321
-0.13457
-0.119706
-0.109751
-0.0997512
-0.109751
-0.114729
-0.0796607
-0.0395702
0.015543
0.110679
0.305814
0.510996
0.736244
0.971493
1.23172
1.24695
0.882172
0.362398
-0.342353
-0.772104
-0.926878
-0.911652
-0.751425
-0.596177
-0.445928
-0.310724
-0.185498
-0.120271
-0.0800453
-0.0598416
-0.0496606
-0.044457
-0.0492308
-0.0540045
-0.0487783
-0.0435973
-0.0434389
-0.04319
-0.0378733
-0.0326018
-0.0223756
-0.0221493
-0.0219231
-0.0116516
-0.00135746
-0.00115384
-0.000995467
0.0042534
0.00957014
0.0148416
0.0200679
0.0253167
0.0305882
0.0308597
0.0311312
0.0363575
0.041629
0.0519457
0.0622398
0.0625339
0.0628507
0.0681448
0.0784389
0.0887783
0.0941177
0.0994344
0.109751
0.125068
0.140407
0.150769
0.156131
0.161493
0.1819
0.202353
0.207783
0.21319
0.238575
0.263937
0.279321
0.294728
0.310181
0.300679
0.361154
0.391652
0.402308
0.4131
0.433982
0.454932
0.46586
0.476787
0.482738
0.488688
0.499683
0.510656
0.511493
0.507195
0.482783
0.453281
0.42371
0.384163
0.334683
0.285181
0.240611
0.190928
0.131131
0.0863348
0.0465385
0.0116968
-0.01819
-0.0430769
-0.0579412
-0.0727149
-0.0923982
-0.102081
-0.101765
-0.106471
-0.116176
-0.120747
-0.125158
-0.129299
-0.127986
-0.135769
-0.147624
-0.143507
-0.133348
-0.127014
-0.120611
-0.115837
-0.113416
-0.109231
-0.107014
-0.110475
-0.113846
-0.121493
-0.128439
-0.124729
-0.120407
-0.120475
-0.120226
-0.114796
-0.109321
-0.113846
-0.118326
-0.112805
-0.10733
-0.101855
-0.101335
-0.110792
-0.115271
-0.109751
-0.104208
-0.10362
-0.102986
-0.107308
-0.111629
-0.10595
-0.100317
-0.104728
-0.109118
-0.103507
-0.0979185
-0.102376
-0.1069
-0.106471
-0.106086
-0.095724
-0.105339
-0.114977
-0.109638
-0.104321
-0.109072
-0.113756
-0.113303
-0.112647
-0.106765
-0.100814
-0.099819
-0.0987783
-0.102715
-0.106561
-0.100272
-0.0938688
-0.102353
-0.110701
-0.103914
-0.0971267
-0.0953394
-0.0934842
-0.0865611
-0.0795701
-0.0775113
-0.0754525
-0.0735068
-0.0712895
-0.0739366
-0.076561
-0.0742533
-0.0720814
-0.0702262
-0.0690044
-0.0636651
-0.0594795
-0.0664931
-0.0747058
-0.0776922
-0.0794116
-0.0787782
-0.0702488
-0.0602714
-0.0545248
-0.0488008
-0.0485067
-0.0489592
-0.0402714
-0.0323302
-0.0351357
-0.0386198
-0.0327601
-0.0271945
-0.0268778
-0.0266968
-0.0315836
-0.0366063
-0.026742
-0.0169456
-0.0221718
-0.0274207
-0.0227148
-0.0180995
-0.0235746
-0.0290497
-0.0345022
-0.0350225
-0.0256334
-0.0212669
-0.0219004
-0.0225338
-0.0281673
-0.0288234
-0.0195022
-0.0151809
-0.0208596
-0.026561
-0.027285
-0.0280316
-0.0238008
-0.02457
-0.0353619
-0.041199
-0.0420814
-0.0329863
-0.0238913
-0.0298189
-0.0358144
-0.0318551
-0.0278958
-0.033914
-0.0399773
-0.0361538
-0.0323981
-0.0336651
-0.0349321
-0.0462217
-0.0576244
-0.0491402
-0.0407692
-0.032466
-0.0242534
-0.0261764
-0.0232126
-0.0153167
-0.00246604
0.0152941
0.0279412
0.0354978
0.0380091
0.0355204
0.0429412
0.0552489
0.0675113
0.0797511
0.0619457
0.034095
-0.00373305
-0.0465159
-0.0592308
-0.0668326
-0.0692534
-0.0614706
-0.0684616
-0.0902263
-0.111742
-0.132986
-0.14405
-0.154977
-0.150724
-0.146312
-0.136787
-0.127127
-0.127308
-0.127443
-0.112557
-0.0976245
-0.0976471
-0.0976471
-0.0926245
-0.0675792
-0.0174887
0.0726244
0.22276
0.427896
0.688054
0.958213
1.23333
1.19346
0.913643
0.388756
-0.276199
-0.626109
-0.825973
-0.86086
-0.815769
-0.700679
-0.555588
-0.440452
-0.335271
-0.230136
-0.125045
-0.0949547
-0.0698642
-0.0647511
-0.064638
-0.0495928
-0.0445927
-0.0395475
-0.034457
-0.0343891
-0.0343439
-0.019276
-0.00418549
-0.00909499
-0.0140045
-0.00895926
-0.00393663
0.00113126
0.00622175
0.00631225
0.00640275
0.0114254
0.0164706
0.0215837
0.0267195
0.0318326
0.0369457
0.0370815
0.0372172
0.0423756
0.0525113
0.0625792
0.0726471
0.0827376
0.0878959
0.0880996
0.0982127
0.113258
0.118371
0.118552
0.128643
0.14371
0.153846
0.164027
0.169231
0.174457
0.199615
0.219683
0.239751
0.259842
0.285
0.310226
0.330453
0.350701
0.365995
0.381357
0.401787
0.422262
0.432783
0.443326
0.453869
0.469457
0.485113
0.49586
0.501697
0.507466
0.503122
0.493597
0.483869
0.464072
0.424231
0.379412
0.324661
0.269864
0.219955
0.164977
0.114932
0.074819
0.039638
0.00947966
-0.0156561
-0.0457466
-0.0758144
-0.0809276
-0.0860633
-0.0961312
-0.106131
-0.111109
-0.121063
-0.131018
-0.140882
-0.14552
-0.149751
-0.148303
-0.145928
-0.137398
-0.12767
-0.131719
-0.135995
-0.116584
-0.0996606
-0.10586
-0.113688
-0.112489
-0.111425
-0.120136
-0.128371
-0.135995
-0.143167
-0.139932
-0.136154
-0.13181
-0.127172
-0.132285
-0.132353
-0.122398
-0.117376
-0.117308
-0.117149
-0.116878
-0.116471
-0.115973
-0.115452
-0.119909
-0.124389
-0.118891
-0.113371
-0.112851
-0.112376
-0.111923
-0.111471
-0.101018
-0.105566
-0.110113
-0.109638
-0.109276
-0.114072
-0.119208
-0.119728
-0.12129
-0.118959
-0.117805
-0.127828
-0.137941
-0.147941
-0.150633
-0.13586
-0.123959
-0.130068
-0.13586
-0.116448
-0.112489
-0.118982
-0.120995
-0.123529
-0.126606
-0.120158
-0.108846
-0.0976471
-0.0914254
-0.0951584
-0.0988009
-0.0973529
-0.0958145
-0.0941855
-0.0925565
-0.0858823
-0.079095
-0.0771946
-0.0752715
-0.0733258
-0.0713575
-0.0693439
-0.072285
-0.0752036
-0.0730995
-0.0709954
-0.0639592
-0.0569909
-0.0500678
-0.0432579
-0.0466742
-0.0503167
-0.0442308
-0.0384163
-0.0428281
-0.0475339
-0.0425113
-0.0376697
-0.0379864
-0.0384842
-0.0391403
-0.0349774
-0.0259955
-0.0220588
-0.0231674
-0.0243665
-0.0306561
-0.0370136
-0.0334615
-0.03
-0.0316516
-0.0333936
-0.0352262
-0.0371267
-0.034095
-0.0311086
-0.02819
-0.0204298
-0.012828
0.00972855
0.0322625
0.0397059
0.0520363
0.0442987
0.0365159
0.0436652
0.050724
0.0626923
0.0745928
0.0564706
0.0333484
-0.0047285
-0.0377602
-0.0458145
-0.0537556
-0.0565158
-0.0640498
-0.0813574
-0.103394
-0.135158
-0.156697
-0.147986
-0.139072
-0.14
-0.140792
-0.141425
-0.1369
-0.122262
-0.112602
-0.112919
-0.113167
-0.108303
-0.103439
-0.103575
-0.0736878
-0.0337783
0.0461539
0.131109
0.361041
0.61095
0.880882
1.15084
1.18079
1.16575
0.660679
0.115611
-0.344389
-0.769344
-0.834367
-0.879457
-0.76948
-0.654502
-0.529548
-0.404615
-0.279751
-0.169932
-0.115091
-0.0702036
-0.0552715
-0.0452941
-0.040362
-0.0354751
-0.0356109
-0.035724
-0.0208145
-0.0159276
-0.0210407
-0.0261086
-0.0211538
-0.0162217
-0.0113122
-0.0064027
-0.0014932
0.00339368
0.00325793
0.00812219
0.0179864
0.0228733
0.0227828
0.0277149
0.0376697
0.0426244
0.0475792
0.0525339
0.0524887
0.0624208
0.0723303
0.0722398
0.0721493
0.0820815
0.0920362
0.101968
0.111923
0.116968
0.122036
0.132059
0.142059
0.152059
0.162059
0.172081
0.187127
0.202172
0.217217
0.232262
0.247285
0.262308
0.282376
0.307489
0.332624
0.357783
0.378054
0.393439
0.413869
0.434367
0.449864
0.460362
0.47586
0.491358
0.501946
0.512625
0.518235
0.513756
0.509095
0.509276
0.484434
0.45457
0.409706
0.359819
0.299864
0.239819
0.189661
0.134434
0.0892308
0.0490498
0.0138462
-0.0163801
-0.0465837
-0.0717421
-0.0768552
-0.0819457
-0.0970136
-0.112081
-0.117195
-0.122262
-0.127308
-0.132195
-0.141878
-0.151244
-0.145271
-0.138258
-0.135113
-0.130724
-0.13009
-0.129366
-0.123756
-0.120407
-0.119502
-0.120701
-0.118846
-0.117285
-0.120928
-0.12405
-0.131629
-0.133643
-0.125091
-0.120973
-0.121357
-0.121493
-0.121425
-0.126312
-0.121176
-0.116018
-0.110837
-0.115679
-0.120543
-0.115339
-0.110091
-0.114819
-0.11957
-0.114344
-0.109118
-0.108869
-0.108597
-0.108303
-0.107964
-0.107647
-0.107308
-0.106923
-0.106538
-0.106176
-0.105792
-0.110362
-0.114909
-0.109434
-0.103982
-0.103575
-0.103167
-0.0977828
-0.0925113
-0.0973529
-0.102217
-0.0970814
-0.0968778
-0.106629
-0.106471
-0.0963348
-0.0911312
-0.0957919
-0.100272
-0.0995701
-0.0986878
-0.0976697
-0.0965837
-0.0954299
-0.0892308
-0.0829638
-0.0865837
-0.09
-0.0831901
-0.0762444
-0.0741629
-0.0719683
-0.0697059
-0.0673529
-0.0699321
-0.0725113
-0.0600905
-0.0476245
-0.0501132
-0.0525566
-0.0499548
-0.0473982
-0.0399548
-0.0327376
-0.0308824
-0.0299548
-0.0300679
-0.0314707
-0.0342535
-0.03862
-0.0485747
-0.0572399
-0.0539141
-0.0474435
-0.0390046
-0.0300001
-0.0310861
-0.0329639
-0.0256109
-0.018982
-0.0230091
-0.0226698
-0.00773762
-0.0130544
-0.0185068
-0.0240498
-0.0296381
-0.0202715
-0.0109729
-0.0116969
-0.0124208
-0.0181448
-0.0238688
-0.0146154
-0.00538465
-0.0111765
-0.016991
-0.0128055
-0.00864258
-0.00947969
-0.0102942
-0.0161086
-0.0219457
-0.0228281
-0.0237331
-0.0246154
-0.0254752
-0.0263349
-0.0272625
-0.023258
-0.0192534
-0.0202037
-0.0211765
-0.017172
-0.0132127
-0.0142987
-0.020362
-0.0314254
-0.0325792
-0.0238009
-0.0200227
-0.0212444
-0.0224887
-0.0237783
-0.0301358
-0.0265611
-0.0280317
-0.0295702
-0.0261765
-0.0228507
-0.0245928
-0.0263575
-0.0281674
-0.0301357
-0.0222172
-0.0143665
-0.00660631
0.006086
0.0288462
0.0514027
0.0638462
0.0711991
0.0635068
0.0607692
0.0829412
0.0900453
0.0821267
0.0592308
0.0263122
-0.00662894
-0.0395701
-0.057466
-0.0602715
-0.0628959
-0.0603393
-0.0626018
-0.074638
-0.101425
-0.128009
-0.134321
-0.140407
-0.14629
-0.146968
-0.147489
-0.142919
-0.128303
-0.118643
-0.113891
-0.109027
-0.109095
-0.10914
-0.0942082
-0.074276
-0.029276
0.0507693
0.230792
0.430792
0.670815
0.925882
1.216
1.28611
0.951177
0.456199
-0.283778
-0.758688
-0.918529
-0.928394
-0.783326
-0.638281
-0.483213
-0.343122
-0.218054
-0.143009
-0.0929186
-0.0678054
-0.0526697
-0.0476018
-0.0476018
-0.0425566
-0.0324661
-0.0273529
-0.0272172
-0.0271267
-0.0270815
-0.026991
-0.0218552
-0.0167421
-0.0166516
-0.0115611
-0.00644797
-0.0062896
-0.0061086
-0.000972858
0.00411765
0.00918551
0.0142534
0.0143665
0.0144796
0.0295475
0.0446154
0.0397511
0.0349321
0.0450679
0.0552263
0.0604299
0.0656561
0.0658824
0.071086
0.0862444
0.0963801
0.101538
0.106742
0.111968
0.122172
0.137353
0.152511
0.162692
0.177851
0.192986
0.208145
0.223326
0.228529
0.233756
0.263982
0.294208
0.31448
0.334796
0.350158
0.340588
0.391109
0.41172
0.427421
0.44319
0.453914
0.464615
0.480407
0.496244
0.497104
0.497873
0.498462
0.498891
0.489208
0.46948
0.429751
0.39
0.355249
0.310498
0.250701
0.200792
0.145769
0.100724
0.0556561
0.0105656
-0.0245249
-0.044638
-0.0597511
-0.0747964
-0.0847964
-0.0997511
-0.119661
-0.129593
-0.124547
-0.124434
-0.134231
-0.138846
-0.133122
-0.126584
-0.12914
-0.135588
-0.14086
-0.134819
-0.123462
-0.113643
-0.106086
-0.116878
-0.129819
-0.123484
-0.117195
-0.120226
-0.122579
-0.124253
-0.125317
-0.120837
-0.116018
-0.125928
-0.135747
-0.125543
-0.115294
-0.115023
-0.114728
-0.119389
-0.12405
-0.118733
-0.113416
-0.1131
-0.112783
-0.112443
-0.112104
-0.106787
-0.106425
-0.116018
-0.120633
-0.115271
-0.109887
-0.10448
-0.104027
-0.113529
-0.113054
-0.102602
-0.102081
-0.111493
-0.115928
-0.105385
-0.109796
-0.114163
-0.113507
-0.112828
-0.112172
-0.111516
-0.105792
-0.100023
-0.104231
-0.108439
-0.10267
-0.0968778
-0.0960181
-0.0951131
-0.0892308
-0.0833711
-0.082534
-0.0816969
-0.0858598
-0.09
-0.0891177
-0.0881448
-0.0870815
-0.0859729
-0.0847964
-0.0834616
-0.0770589
-0.0702263
-0.0731448
-0.0759729
-0.0687331
-0.0615158
-0.054276
-0.0519005
-0.0593892
-0.05681
-0.0441629
-0.0364479
-0.0386878
-0.0409728
-0.038371
-0.0309955
-0.0238235
-0.0218326
-0.0200905
-0.0186652
-0.0174887
-0.0165611
-0.0158371
-0.0153394
-0.0152715
-0.0106109
-0.00660634
-0.0082353
-0.0109729
-0.0177602
-0.0278733
-0.0292082
-0.030181
-0.0354977
-0.0378281
-0.0323982
-0.0252489
-0.0216742
-0.0182806
-0.0202715
-0.0231222
-0.0217873
-0.021086
-0.0159276
-0.0111086
-0.0115384
-0.012104
-0.0127828
-0.0134163
-0.0190045
-0.0246153
-0.0202489
-0.0158823
-0.0115158
-0.0121267
-0.0227149
-0.0183711
-0.00911767
-0.0148643
-0.0205883
-0.0212896
-0.021991
-0.0177602
-0.0135747
-0.0143665
-0.0151584
-0.0159955
-0.0168552
-0.0127376
-0.00864256
-0.0145249
-0.0204525
-0.0164706
-0.0125113
-0.0135294
-0.0145249
-0.0204978
-0.0265385
-0.0226923
-0.0188688
-0.0200226
-0.0211991
-0.0224435
-0.0237557
-0.0250679
-0.0264027
-0.0277828
-0.0292534
-0.0257919
-0.0223756
-0.0240272
-0.025724
-0.0274887
-0.0243665
-0.0163349
-0.0133484
-0.0154299
-0.0126018
0.000135718
0.0178054
0.0354298
0.048009
0.0604977
0.0578506
0.0550905
0.0622624
0.0694117
0.0765384
0.0785973
0.0555882
0.0275565
-0.0204299
-0.0583485
-0.0662218
-0.0689819
-0.0565837
-0.0539593
-0.071086
-0.0880091
-0.104774
-0.121357
-0.137692
-0.148756
-0.149615
-0.145362
-0.135973
-0.131448
-0.126787
-0.117059
-0.107262
-0.102398
-0.102489
-0.102534
-0.0975339
-0.0475339
0.00746605
0.132489
0.257534
0.487602
0.267692
0.98776
1.23781
1.1479
1.00803
0.348167
-0.271697
-0.656561
-0.966403
-0.921199
-0.840996
-0.66086
-0.490769
-0.350679
-0.225588
-0.145475
-0.085362
-0.0652715
-0.0502036
-0.0501584
-0.0500905
-0.0450226
-0.0399774
-0.0399095
-0.039819
-0.0397059
-0.0395928
-0.0345249
-0.024457
-0.0143665
-0.00925341
-0.0141177
-0.0140272
-0.00398192
0.00110858
0.00124432
0.00635745
0.0164479
0.0215611
0.0266968
0.0318552
0.0320588
0.042285
0.0525113
0.0527375
0.0529638
0.05319
0.0533936
0.0685294
0.0836199
0.0887556
0.0939366
0.0991176
0.104299
0.114457
0.124638
0.124887
0.130113
0.150294
0.165475
0.175679
0.19095
0.206267
0.226538
0.246765
0.262014
0.277308
0.297602
0.317873
0.338167
0.358529
0.374027
0.384661
0.405317
0.430995
0.451674
0.467353
0.4731
0.478914
0.494751
0.510588
0.516335
0.511968
0.502421
0.487738
0.458032
0.428326
0.38371
0.334118
0.289412
0.244615
0.204751
0.159819
0.104842
0.0547963
0.0246832
-0.00540729
-0.0304073
-0.0553621
-0.0702942
-0.0851811
-0.100023
-0.109842
-0.119661
-0.12948
-0.129276
-0.128869
-0.128235
-0.127014
-0.130204
-0.132398
-0.130634
-0.125588
-0.124389
-0.123575
-0.118371
-0.116176
-0.11181
-0.114163
-0.127896
-0.131425
-0.124615
-0.122036
-0.12371
-0.124729
-0.125158
-0.120226
-0.115023
-0.109729
-0.104367
-0.109005
-0.113643
-0.113258
-0.112851
-0.112421
-0.111968
-0.111539
-0.111131
-0.105701
-0.100226
-0.109706
-0.119186
-0.10871
-0.0982127
-0.102647
-0.107059
-0.101471
-0.0958824
-0.100272
-0.104593
-0.103846
-0.1081
-0.117376
-0.121652
-0.115928
-0.110204
-0.10948
-0.103801
-0.0931901
-0.0875792
-0.091991
-0.0964933
-0.0960181
-0.0954752
-0.0899096
-0.0943439
-0.108801
-0.103348
-0.0928733
-0.0922172
-0.0913122
-0.100158
-0.108869
-0.0975113
-0.0860634
-0.0845249
-0.0828959
-0.0761539
-0.0692082
-0.0670589
-0.0647512
-0.0722851
-0.0797738
-0.0672625
-0.0547059
-0.0520815
-0.0493891
-0.0516516
-0.0539367
-0.0462443
-0.0384842
-0.0356561
-0.0328054
-0.0350227
-0.0375566
-0.0355204
-0.0341856
-0.0387783
-0.0397286
-0.0320363
-0.0306788
-0.034887
-0.0387331
-0.0460408
-0.0407015
-0.0235295
-0.0201359
-0.0263123
-0.0276019
-0.0244119
-0.0219458
-0.0201132
-0.0189141
-0.018258
-0.0181449
-0.0182806
-0.0135295
-0.00880101
-0.0140951
-0.0194119
-0.00975122
-0.000113204
-0.00547518
-0.0108372
-0.016267
-0.0217195
-0.017172
-0.0126697
-0.0181901
-0.0237105
-0.0242761
-0.0198643
-0.0104299
-0.00595029
-0.011448
-0.0170136
-0.0176471
-0.018258
-0.0188462
-0.0194344
-0.0200227
-0.0206561
-0.0213349
-0.0220136
-0.0276923
-0.0333937
-0.0291403
-0.0249321
-0.0257466
-0.0265611
-0.0273982
-0.0233258
-0.0193212
-0.0252941
-0.0312669
-0.0323077
-0.0334163
-0.0295475
-0.0257013
-0.0369231
-0.0482805
-0.0447511
-0.0412896
-0.0329185
-0.024638
-0.0262896
-0.0281674
-0.0201584
-0.00719455
0.00574663
0.0236199
0.0463801
0.0540498
0.0416516
0.0392308
0.04681
0.0592986
0.0766516
0.0739819
0.0513122
0.00868778
-0.0388688
-0.0564027
-0.0588688
-0.0611086
-0.0631222
-0.0699774
-0.081629
-0.107986
-0.134095
-0.149955
-0.165634
-0.161154
-0.151561
-0.141787
-0.131878
-0.126878
-0.12181
-0.111719
-0.101584
-0.101357
-0.101086
-0.100814
-0.090543
-0.0302715
0.05
0.175294
0.350588
0.605837
0.856131
1.10652
1.18692
1.06733
0.682715
0.0430543
-0.411561
-0.711086
-0.835634
-0.835249
-0.74491
-0.599593
-0.474231
-0.348824
-0.238462
-0.128145
-0.0828281
-0.0575113
-0.052172
-0.04681
-0.0414932
-0.0412217
-0.0408824
-0.0404751
-0.0400905
-0.0297285
-0.0294118
-0.0291403
-0.0188235
-0.00846154
-0.0081448
-0.0078733
-0.00262444
0.00264706
-0.00199095
-0.00658371
0.00877828
0.024095
0.0244344
0.0247964
0.0301131
0.0354525
0.0408145
0.0461765
0.0465385
0.0469005
0.0522398
0.0625566
0.0728959
0.0782806
0.0836878
0.0940498
0.104367
0.109729
0.115136
0.12552
0.135882
0.146244
0.156606
0.167014
0.177466
0.202873
0.228235
0.238597
0.248959
0.264367
0.254819
0.310272
0.335724
0.351222
0.366787
0.387443
0.408213
0.424072
0.439955
0.445814
0.451674
0.467534
0.483439
0.494457
0.505498
0.496448
0.482195
0.467715
0.443167
0.40362
0.364095
0.329593
0.285045
0.22543
0.175724
0.120928
0.0810181
0.0359955
0.00104073
-0.0288235
-0.0486425
-0.0684163
-0.0832127
-0.0930317
-0.107783
-0.122466
-0.127172
-0.1269
-0.126629
-0.131312
-0.135724
-0.139774
-0.138258
-0.13095
-0.137489
-0.142896
-0.137149
-0.131018
-0.120452
-0.111652
-0.115747
-0.1219
-0.119434
-0.117557
-0.115701
-0.113416
-0.125407
-0.1369
-0.127919
-0.118439
-0.118462
-0.118303
-0.118054
-0.117919
-0.112896
-0.107896
-0.112941
-0.117941
-0.117919
-0.118009
-0.113145
-0.108281
-0.113394
-0.118348
-0.113122
-0.107715
-0.102217
-0.101674
-0.111109
-0.115634
-0.110181
-0.10457
-0.108801
-0.112941
-0.102036
-0.106086
-0.110091
-0.10905
-0.107986
-0.106968
-0.105995
-0.105045
-0.104072
-0.108077
-0.112104
-0.101154
-0.090181
-0.0941403
-0.0982806
-0.0976697
-0.0974661
-0.0977376
-0.0990498
-0.106403
-0.114887
-0.119344
-0.123529
-0.121923
-0.117443
-0.115362
-0.111471
-0.10638
-0.10095
-0.095543
-0.090724
-0.091448
-0.0926471
-0.084276
-0.0763122
-0.0786199
-0.0761086
-0.0636878
-0.0562443
-0.0587556
-0.0612443
-0.0587104
-0.0512443
-0.0438687
-0.0415384
-0.0393212
-0.0423302
-0.0455655
-0.0390044
-0.0326696
-0.0365836
-0.0407239
-0.0301583
-0.0197963
-0.0296606
-0.0397058
-0.0398868
-0.0402036
-0.0306561
-0.0211538
-0.0266741
-0.0323076
-0.0280542
-0.0238235
-0.0245927
-0.0253845
-0.0262217
-0.0271266
-0.0280995
-0.029095
-0.0300904
-0.0311538
-0.0373076
-0.0435294
-0.0397963
-0.0360633
-0.0373302
-0.0386877
-0.0351131
-0.031561
-0.0280316
-0.0345248
-0.0510633
-0.0377375
-0.0195701
-0.0214706
-0.0234163
-0.0204299
-0.0175565
0.010181
0.0378281
0.0454299
0.0529864
0.0404525
0.0328507
0.0552036
0.0725113
0.0697964
0.0620588
0.034276
0.00147056
-0.0413122
-0.0640045
-0.0716064
-0.0740951
-0.0614932
-0.0636652
-0.0855882
-0.10724
-0.128665
-0.139887
-0.145815
-0.151516
-0.157036
-0.157443
-0.147738
-0.137941
-0.128077
-0.123167
-0.118213
-0.108258
-0.0983032
-0.0932806
-0.0981901
-0.0530996
0.00699093
0.107081
0.222172
0.462285
0.702421
0.962534
1.18762
1.15274
1.00287
0.378032
-0.186787
-0.571629
-0.846493
-0.866357
-0.836222
-0.691131
-0.556018
-0.430905
-0.315814
-0.210701
-0.135588
-0.0905204
-0.0654751
-0.0554072
-0.0502941
-0.045181
-0.0401131
-0.0350679
-0.03
-0.0349095
-0.034819
-0.0247285
-0.014638
-0.00454751
0.000542983
-0.00436651
-0.00429863
0.00574662
0.0108145
0.015905
0.0209729
0.0210181
0.0310407
0.0410407
0.0361086
0.0312444
0.0413801
0.0514932
0.0515837
0.0517195
0.0569231
0.0621267
0.0722851
0.0824208
0.0875566
0.0926923
0.0978281
0.107941
0.123009
0.133054
0.138122
0.143213
0.158303
0.168394
0.178507
0.188665
0.198869
0.214027
0.234095
0.259231
0.284457
0.304706
0.319977
0.345226
0.375453
0.395837
0.41138
0.426968
0.442602
0.45319
0.463756
0.474434
0.485204
0.495973
0.501719
0.502353
0.502851
0.488145
0.473326
0.448462
0.418575
0.363778
0.314005
0.259118
0.204118
0.15405
0.0989593
0.0438462
-0.00131221
-0.0265158
-0.0517195
-0.0718778
-0.0869683
-0.0969909
-0.107014
-0.112036
-0.117014
-0.121946
-0.126855
-0.131787
-0.136538
-0.136041
-0.135045
-0.138484
-0.14086
-0.137172
-0.13233
-0.131493
-0.130792
-0.125747
-0.123552
-0.118937
-0.116086
-0.119502
-0.122986
-0.116312
-0.123982
-0.131041
-0.132511
-0.133439
-0.128891
-0.124027
-0.119005
-0.113891
-0.11871
-0.123529
-0.118394
-0.113235
-0.113009
-0.112738
-0.112534
-0.112308
-0.117014
-0.121652
-0.116222
-0.110792
-0.110407
-0.110045
-0.104661
-0.0992987
-0.103959
-0.108643
-0.103371
-0.0980996
-0.102851
-0.107715
-0.11267
-0.112624
-0.102557
-0.107398
-0.122217
-0.122172
-0.112172
-0.107104
-0.106878
-0.106448
-0.105882
-0.100226
-0.0944797
-0.0936652
-0.0928055
-0.0919231
-0.0909503
-0.089819
-0.0885521
-0.0921493
-0.0956787
-0.0891856
-0.0826471
-0.0810181
-0.0792987
-0.0824435
-0.0856335
-0.0738009
-0.0618779
-0.0648417
-0.0676923
-0.0654752
-0.0634389
-0.0616516
-0.0603394
-0.0596607
-0.0600679
-0.0615611
-0.064095
-0.0673529
-0.0705656
-0.0677375
-0.0623303
-0.0545022
-0.0445248
-0.0434841
-0.0426923
-0.0325113
-0.023371
-0.025181
-0.0278507
-0.0263122
-0.0204978
-0.0151584
-0.0150905
-0.0152036
-0.0204072
-0.0257013
-0.021086
-0.0165384
-0.0169909
-0.0174434
-0.0179411
-0.0184841
-0.0140498
-0.00963797
-0.0202036
-0.0308145
-0.0265158
-0.0222624
-0.0180316
-0.0138009
-0.0195927
-0.0254525
-0.0213575
-0.0172624
-0.0131448
-0.00902717
-0.0149321
-0.0208371
-0.0216969
-0.0225566
-0.028439
-0.0343892
-0.0353847
-0.0313802
-0.0223756
-0.0183711
-0.0243892
-0.0204752
-0.00660641
-0.00773764
-0.0188915
-0.0251132
-0.0163802
-0.0226698
-0.0290046
-0.0354073
-0.0419232
-0.0385069
-0.0351811
-0.0319684
-0.028801
-0.0206562
-0.0126019
-0.00468332
0.00316735
0.0109954
0.023733
0.0413122
0.0538235
0.0612669
0.0636651
0.0410633
0.033371
0.065543
0.0776697
0.0697964
0.0419909
-0.000769254
-0.0285068
-0.0461765
-0.0586426
-0.0608824
-0.0629186
-0.0647511
-0.0813801
-0.102783
-0.123914
-0.144842
-0.150633
-0.14629
-0.141765
-0.142081
-0.137262
-0.142376
-0.112443
-0.102489
-0.0974661
-0.0923529
-0.0972172
-0.0970814
-0.0419457
0.0281901
0.143348
0.293529
0.54371
0.793891
1.0341
1.19932
1.18955
0.959751
0.375
-0.174751
-0.674502
-0.939231
-0.938982
-0.853756
-0.678507
-0.523235
-0.382986
-0.262783
-0.157602
-0.0973982
-0.062172
-0.0469683
-0.0467873
-0.041629
-0.0314932
-0.0263122
-0.031086
-0.0358597
-0.0306335
-0.0254073
-0.025181
-0.0249321
-0.0296606
-0.0194344
-0.00425341
0.000927579
0.00610858
0.00633483
0.00660631
0.0168326
0.0270362
0.0273077
0.0276244
0.0329412
0.0382579
0.0385747
0.0388914
0.0342082
0.0345023
0.0497511
0.0599774
0.0652036
0.0704751
0.0758145
0.0861312
0.0963801
0.101652
0.106991
0.117353
0.132692
0.142986
0.148303
0.15862
0.168937
0.189208
0.209434
0.234683
0.259955
0.270271
0.280633
0.306018
0.331425
0.341878
0.352376
0.377919
0.408529
0.419208
0.429932
0.440724
0.451561
0.467285
0.482964
0.493801
0.504706
0.495588
0.486357
0.481946
0.467421
0.427828
0.38319
0.338552
0.293914
0.249276
0.19957
0.139774
0.0948869
0.0599095
0.0248869
-0.0101357
-0.0401131
-0.0700679
-0.0850226
-0.100023
-0.109887
-0.114706
-0.124502
-0.134276
-0.139095
-0.138937
-0.138507
-0.142738
-0.146471
-0.144547
-0.141493
-0.142308
-0.142014
-0.13595
-0.124955
-0.125023
-0.117738
-0.112941
-0.115407
-0.119072
-0.12276
-0.126041
-0.128461
-0.130204
-0.12638
-0.122036
-0.122217
-0.122127
-0.116878
-0.111538
-0.111222
-0.110882
-0.115498
-0.120113
-0.119774
-0.119457
-0.119118
-0.11871
-0.118258
-0.117828
-0.117443
-0.117036
-0.111584
-0.106086
-0.110543
-0.115045
-0.109593
-0.109072
-0.118484
-0.122918
-0.117375
-0.111787
-0.116154
-0.12052
-0.119887
-0.114299
-0.108733
-0.108099
-0.107421
-0.111697
-0.115995
-0.105362
-0.0947058
-0.0940045
-0.0932805
-0.0975565
-0.101923
-0.0963574
-0.0907918
-0.0952488
-0.0996606
-0.0940044
-0.0883483
-0.0876922
-0.0869004
-0.0909728
-0.0948868
-0.0886198
-0.082104
-0.0803619
-0.0785519
-0.0766741
-0.0747284
-0.0676696
-0.060475
-0.0631674
-0.0657692
-0.0582805
-0.0506787
-0.0479638
-0.045181
-0.0423529
-0.0396154
-0.0369457
-0.0343213
-0.03181
-0.0295249
-0.0274661
-0.0256335
-0.0240271
-0.0226244
-0.0216516
-0.0212217
-0.0215837
-0.0177602
-0.0150679
-0.023552
-0.0333937
-0.0346154
-0.0353394
-0.0404073
-0.0423077
-0.0409729
-0.0383937
-0.0296833
-0.0214254
-0.0236425
-0.0266064
-0.0203168
-0.0147059
-0.0146607
-0.0149321
-0.0204751
-0.0261312
-0.0218552
-0.0175565
-0.0182805
-0.0189592
-0.0195927
-0.0202488
-0.0159275
-0.0216063
-0.037285
-0.0329863
-0.0187103
-0.0144343
-0.0151583
-0.0158822
-0.0166288
-0.0223981
-0.0181673
-0.0189365
-0.0197283
-0.0155881
-0.0114931
-0.0124207
-0.0133709
-0.0242985
-0.0352261
-0.031199
-0.0271944
-0.0232125
-0.0192533
-0.0252714
-0.0313573
-0.0225112
-0.0137103
-0.0199094
-0.0261311
-0.0224207
-0.0188008
-0.0252261
-0.0316515
-0.0331221
-0.0346832
-0.0313121
-0.0279863
-0.0297284
-0.0315384
-0.0384162
-0.0304524
-0.0125791
-0.00970582
-0.0118551
-0.0141176
-0.0114705
0.0160634
0.0435068
0.0509277
0.0583032
0.0555657
0.047715
0.0648191
0.0819231
0.0740272
0.0661087
0.0381223
0.00511321
-0.027828
-0.055656
-0.0633936
-0.0709728
-0.0633936
-0.0606334
-0.0826696
-0.0994343
-0.110995
-0.122376
-0.133529
-0.144457
-0.150181
-0.150792
-0.14129
-0.136652
-0.131923
-0.122149
-0.11233
-0.107511
-0.102692
-0.097828
-0.0979185
-0.053009
0.00690048
0.136855
0.281855
0.496878
0.721923
0.991946
1.26695
1.14197
0.982014
0.272059
-0.447896
-0.732851
-0.992806
-0.897738
-0.79267
-0.62767
-0.467715
-0.322738
-0.197738
-0.127738
-0.0727376
-0.0527602
-0.0378054
-0.0378281
-0.0378281
-0.0428733
-0.0478959
-0.0428959
-0.0378959
-0.0378733
-0.0378733
-0.0329412
-0.0280317
-0.0230996
-0.0180995
-0.0180543
-0.0130543
-0.00309955
0.00187782
0.00192307
0.0069457
0.0169457
0.0219909
0.0270814
0.0321719
0.0272624
0.0273077
0.0373077
0.0423077
0.0473077
0.0523529
0.0524434
0.0724887
0.0824887
0.0875566
0.0926923
0.0978054
0.102896
0.117986
0.133077
0.138167
0.143258
0.158326
0.173371
0.188439
0.208552
0.223643
0.238778
0.268846
0.283982
0.294231
0.309502
0.334774
0.355068
0.375407
0.390882
0.401493
0.417127
0.437783
0.458394
0.473937
0.479615
0.48043
0.486176
0.496855
0.497443
0.487919
0.468235
0.448416
0.413597
0.378778
0.339027
0.299321
0.244502
0.194593
0.149615
0.10457
0.0595023
0.0144118
-0.010724
-0.0358823
-0.0659955
-0.086086
-0.0961538
-0.106176
-0.106154
-0.106109
-0.116041
-0.125973
-0.125928
-0.125656
-0.13509
-0.143914
-0.142059
-0.139253
-0.135452
-0.130452
-0.124231
-0.118575
-0.113643
-0.111923
-0.113462
-0.116244
-0.120158
-0.118688
-0.111787
-0.109163
-0.110837
-0.111855
-0.112308
-0.112443
-0.11233
-0.112127
-0.111855
-0.111584
-0.101312
-0.106063
-0.110837
-0.110611
-0.11043
-0.110317
-0.110271
-0.100271
-0.0902941
-0.100339
-0.110452
-0.100656
-0.0908371
-0.100928
-0.111041
-0.106267
-0.101471
-0.106629
-0.111584
-0.111335
-0.110973
-0.110543
-0.110136
-0.104706
-0.0992307
-0.10371
-0.108122
-0.102466
-0.0966289
-0.100679
-0.104683
-0.103643
-0.102579
-0.0964932
-0.090362
-0.0942081
-0.0980995
-0.0920136
-0.0858823
-0.0847058
-0.0884389
-0.0821719
-0.0910181
-0.0800904
-0.0843665
-0.0893665
-0.0902714
-0.0921719
-0.100068
-0.108575
-0.112602
-0.114728
-0.10957
-0.101968
-0.0868778
-0.0712669
-0.0759049
-0.0803619
-0.0653619
-0.0509049
-0.0519909
-0.0535972
-0.0457466
-0.0382126
-0.0409728
-0.0439592
-0.0471719
-0.0505882
-0.0442081
-0.0380769
-0.0321719
-0.0264705
-0.0309728
-0.0357239
-0.0307239
-0.0258371
-0.0260633
-0.0264932
-0.0270362
-0.0276244
-0.0282579
-0.028914
-0.0295927
-0.0253167
-0.0211086
-0.0269457
-0.0327828
-0.0386199
-0.0445249
-0.0404977
-0.0364932
-0.0325113
-0.028552
-0.0296154
-0.0307013
-0.0318099
-0.0329411
-0.0440724
-0.0552715
-0.0465384
-0.0378054
-0.0340497
-0.0303167
-0.0316289
-0.0329864
-0.0343891
-0.0358371
-0.0373303
-0.0388914
-0.0405203
-0.0422172
-0.0439366
-0.0457692
-0.0426923
-0.0297285
-0.0168552
-0.00402712
0.00871043
0.0163801
0.0240045
0.0415159
0.0588914
0.0562217
0.0435521
0.0508145
0.0729865
0.0701358
0.0672851
0.0244344
-0.0184163
-0.0412896
-0.064095
-0.0617647
-0.0592534
-0.0665384
-0.0735973
-0.0854977
-0.102195
-0.123643
-0.139864
-0.145882
-0.151765
-0.152489
-0.153077
-0.148507
-0.138801
-0.124005
-0.114186
-0.109299
-0.104367
-0.109412
-0.0895023
-0.0495927
0.0153394
0.0903846
0.265407
0.475407
0.710407
0.955407
1.11038
1.24534
0.840272
0.345181
-0.179864
-0.709864
-0.804819
-0.734729
-0.769706
-0.649751
-0.524751
-0.394706
-0.279683
-0.169683
-0.119683
-0.0746833
-0.0597059
-0.0447511
-0.0398416
-0.0349774
-0.0350679
-0.0351131
-0.0351358
-0.035181
-0.0252941
-0.0154073
-0.0154751
-0.0155204
-0.00056563
0.00438913
0.00434387
0.00432126
0.00932126
0.0142986
0.0142534
0.0192308
0.0292308
0.0292534
0.0192986
0.024276
0.0391855
0.0441629
0.0492081
0.0542534
0.0592986
0.0643665
0.069457
0.0745701
0.0747059
0.0897738
0.104751
0.109729
0.114751
0.124842
0.134977
0.145091
0.155181
0.165271
0.175362
0.190453
0.205543
0.220634
0.235724
0.255837
0.27095
0.296063
0.316244
0.326493
0.34681
0.372195
0.392624
0.4081
0.428643
0.449253
0.459887
0.465498
0.476131
0.486855
0.492624
0.488439
0.48405
0.489457
0.474751
0.444932
0.405158
0.36543
0.320656
0.280837
0.230973
0.181041
0.135995
0.0858597
0.0507014
0.0155204
-0.014638
-0.0447737
-0.0699095
-0.0950226
-0.105068
-0.115068
-0.120068
-0.125068
-0.12009
-0.115023
-0.129796
-0.144299
-0.143507
-0.141968
-0.139525
-0.136109
-0.131674
-0.126584
-0.115928
-0.107104
-0.110543
-0.116471
-0.119887
-0.123733
-0.122217
-0.120656
-0.123371
-0.12543
-0.126833
-0.127692
-0.123032
-0.11819
-0.118145
-0.117919
-0.112534
-0.107081
-0.111584
-0.116063
-0.11552
-0.105
-0.0945023
-0.0989819
-0.103439
-0.102919
-0.102421
-0.101878
-0.101335
-0.105814
-0.110317
-0.104819
-0.0995249
-0.099457
-0.0998869
-0.109774
-0.12181
-0.115
-0.109299
-0.12457
-0.139593
-0.13905
-0.135882
-0.140204
-0.142647
-0.14362
-0.144412
-0.135226
-0.121584
-0.108439
-0.105814
-0.11371
-0.117149
-0.11095
-0.104887
-0.103914
-0.102964
-0.102014
-0.100973
-0.0998416
-0.0986425
-0.102398
-0.101109
-0.0947738
-0.0933484
-0.0918552
-0.0903167
-0.0887104
-0.0870362
-0.0852941
-0.0784842
-0.0715837
-0.0746154
-0.0776244
-0.0706108
-0.063552
-0.0714479
-0.0793891
-0.0724208
-0.0654977
-0.0585746
-0.0517194
-0.0549999
-0.0585294
-0.0523076
-0.0463122
-0.0455203
-0.0449547
-0.0396153
-0.0345248
-0.0347058
-0.0350452
-0.0405656
-0.0462895
-0.0422171
-0.0383257
-0.0396153
-0.041018
-0.0375339
-0.0341402
-0.0358597
-0.037647
-0.0344796
-0.0314253
-0.0235294
-0.0157465
-0.00805423
0.00957021
0.0271042
0.0345476
0.0419232
0.0392535
0.0415612
0.063801
0.0809503
0.0780317
0.0650906
0.0171494
-0.0257918
-0.0486877
-0.0664932
-0.0742081
-0.0817647
-0.0741176
-0.0762217
-0.1031
-0.124774
-0.136199
-0.142376
-0.148371
-0.154231
-0.149909
-0.145385
-0.140679
-0.135928
-0.131154
-0.126335
-0.121448
-0.116493
-0.111493
-0.106516
-0.101561
-0.0515611
-0.00151583
0.113552
0.00364255
0.478665
0.72362
0.973643
1.20373
1.15378
1.03378
0.458801
-0.0911538
-0.501109
-0.821063
-0.856063
-0.851109
-0.716131
-0.591109
-0.471041
-0.350995
-0.221018
-0.131063
-0.091086
-0.061086
-0.046086
-0.0361086
-0.0411538
-0.0461765
-0.0461765
-0.0411991
-0.031267
-0.0263575
-0.021448
-0.0165385
-0.016629
-0.0117195
-0.00180997
0.00312216
0.00307691
0.00303167
0.00798642
0.0129185
0.012828
0.0127828
0.0127828
0.0277602
0.0427149
0.0476697
0.0526244
0.0526244
0.0526471
0.0676018
0.0825113
0.0874661
0.0924661
0.0924661
0.0924661
0.102489
0.112534
0.112579
0.117602
0.132579
0.147534
0.162511
0.177534
0.192579
0.207602
0.222624
0.24267
0.262715
0.277783
0.287896
0.308009
0.333145
0.353371
0.368665
0.388982
0.409344
0.424774
0.440271
0.450769
0.46129
0.4769
0.492579
0.498281
0.503959
0.509412
0.499661
0.479819
0.45991
0.425
0.385091
0.335204
0.285294
0.240272
0.190158
0.14
0.094819
0.0595928
0.0193213
-0.015905
-0.046086
-0.0612896
-0.071448
-0.0815611
-0.0966516
-0.111719
-0.121787
-0.121855
-0.121923
-0.126991
-0.13181
-0.13638
-0.140452
-0.135045
-0.127489
-0.128824
-0.129027
-0.12319
-0.117579
-0.112511
-0.11
-0.114932
-0.121787
-0.120113
-0.118597
-0.122059
-0.12491
-0.127195
-0.123959
-0.120204
-0.12086
-0.121109
-0.121154
-0.121041
-0.115882
-0.110679
-0.115452
-0.120249
-0.11509
-0.109932
-0.104729
-0.0995023
-0.0992534
-0.0990498
-0.098914
-0.0987556
-0.103552
-0.108394
-0.103303
-0.0983032
-0.098371
-0.0984389
-0.103529
-0.10862
-0.113733
-0.118869
-0.113982
-0.109005
-0.113914
-0.113688
-0.103348
-0.0978507
-0.102217
-0.106561
-0.105882
-0.105226
-0.104548
-0.103733
-0.102805
-0.09681
-0.0907466
-0.0896154
-0.0884163
-0.0921267
-0.0957919
-0.089457
-0.0830769
-0.0816516
-0.080181
-0.0836652
-0.0871041
-0.0804751
-0.0738914
-0.0823756
-0.0861086
-0.0701131
-0.0600679
-0.0659728
-0.0727828
-0.0754751
-0.0790045
-0.0778733
-0.0745475
-0.0788462
-0.0801584
-0.0691629
-0.0578054
-0.0514706
-0.0459728
-0.0462896
-0.0474434
-0.0394118
-0.0321493
-0.0304751
-0.0291629
-0.0281901
-0.0274887
-0.0220136
-0.0166743
-0.0215159
-0.0265611
-0.0167647
-0.0220362
-0.027353
-0.027715
-0.0281674
-0.0237331
-0.0193665
-0.0150226
-0.0107014
-0.0164253
-0.0221946
-0.0179864
-0.0138009
-0.0146154
-0.0154299
-0.0163122
-0.0172172
-0.0181222
-0.0190498
-0.03
-0.0409728
-0.0269909
-0.0230769
-0.0241855
-0.0252489
-0.0262896
-0.0273982
-0.0235747
-0.0197285
-0.0208823
-0.0221041
-0.028371
-0.034638
-0.0309276
-0.0322851
-0.0436878
-0.045181
-0.0367421
-0.0333484
-0.035
-0.0366968
-0.0384615
-0.0253167
-0.0122624
-0.0142986
-0.0164253
-0.00364252
0.00902716
0.0265837
0.0441403
0.0466742
0.0491403
0.0465159
0.0488009
0.0659955
0.0731448
0.0553168
0.0324435
-0.000475106
-0.0283258
-0.0510633
-0.0686425
-0.071086
-0.0733937
-0.0705204
-0.0773982
-0.0990272
-0.11543
-0.131606
-0.142579
-0.143348
-0.143959
-0.149434
-0.144796
-0.130091
-0.125272
-0.120362
-0.11043
-0.100475
-0.0955204
-0.100566
-0.0705656
-0.0305204
0.0445023
0.119525
0.349615
0.579774
0.794955
1.00511
1.20023
1.28532
0.815453
0.305633
-0.349208
-0.854072
-0.928937
-0.933778
-0.768575
-0.608371
-0.458213
-0.3181
-0.197986
-0.117828
-0.0826471
-0.0574887
-0.0473529
-0.0422398
-0.0471267
-0.0469683
-0.03681
-0.0316968
-0.0315611
-0.0314027
-0.0312217
-0.0260633
-0.0159276
-0.0107692
-0.00558823
-0.000384614
0.00484163
0.0100453
0.0102262
0.0104299
0.0156561
0.0208824
0.0311086
0.0313348
0.0315837
0.0368778
0.0421946
0.0474434
0.0526244
0.0628507
0.0730769
0.0683258
0.0635973
0.0788461
0.0940724
0.0943439
0.0996606
0.114932
0.125226
0.12552
0.130792
0.151086
0.16638
0.181629
0.191855
0.207104
0.222421
0.237783
0.2581
0.278371
0.29871
0.319118
0.339525
0.354932
0.375407
0.40595
0.411629
0.417443
0.433213
0.448982
0.464751
0.480543
0.486448
0.487421
0.503303
0.509072
0.494706
0.480226
0.450656
0.416018
0.381357
0.341697
0.287104
0.232489
0.182738
0.132896
0.093009
0.0530995
0.01819
-0.0117421
-0.0417195
-0.0616742
-0.0815611
-0.0964253
-0.101267
-0.106086
-0.110882
-0.115611
-0.120317
-0.124932
-0.129412
-0.133529
-0.132285
-0.135
-0.141674
-0.137398
-0.122195
-0.111086
-0.10957
-0.110204
-0.108167
-0.109095
-0.107308
-0.110837
-0.124367
-0.127149
-0.124208
-0.120611
-0.116403
-0.121629
-0.126493
-0.121244
-0.115905
-0.110498
-0.105045
-0.109615
-0.114186
-0.10871
-0.103213
-0.112715
-0.122217
-0.116719
-0.111222
-0.110701
-0.110136
-0.109525
-0.108914
-0.108303
-0.10767
-0.107036
-0.106448
-0.105882
-0.105317
-0.104729
-0.10914
-0.118597
-0.123167
-0.117828
-0.112534
-0.10724
-0.101833
-0.10638
-0.111063
-0.105837
-0.100543
-0.10509
-0.10948
-0.0987104
-0.102715
-0.106629
-0.10552
-0.104412
-0.103281
-0.102059
-0.0957014
-0.0891855
-0.0974887
-0.105701
-0.0938461
-0.0819004
-0.0798416
-0.0776923
-0.0755204
-0.0732805
-0.0709955
-0.0686425
-0.0761764
-0.0837104
-0.0662443
-0.0588235
-0.0564932
-0.0543439
-0.0575565
-0.0616968
-0.0568099
-0.0528506
-0.0548868
-0.0580769
-0.0614027
-0.0632579
-0.058009
-0.0547963
-0.0597963
-0.0543212
-0.0390497
-0.0295475
-0.0308597
-0.0329864
-0.0309276
-0.0246832
-0.0189819
-0.0186878
-0.0185973
-0.0186425
-0.0188009
-0.0140271
-0.009276
-0.0195022
-0.0297511
-0.0200679
-0.0104298
-0.0158371
-0.0212896
-0.0217421
-0.022285
-0.0178959
-0.0135067
-0.0190724
-0.024638
-0.0202488
-0.0159049
-0.0165837
-0.0172398
-0.0228506
-0.0285067
-0.0292533
-0.0300226
-0.0257918
-0.0215384
-0.0272624
-0.0280542
-0.018914
-0.0147511
-0.0205656
-0.0264253
-0.027285
-0.02819
-0.0291402
-0.0300905
-0.0310633
-0.0321266
-0.0333031
-0.0295248
-0.0257466
-0.0319909
-0.0383257
-0.0347737
-0.0312896
-0.0328506
-0.0345249
-0.0263122
-0.0181674
-0.0150905
-0.0120814
-0.0141402
-0.00635745
0.021267
0.0438236
0.0563575
0.0588688
0.0413575
0.0387783
0.061086
0.0733258
0.070543
0.0477828
0.01
-0.0227828
-0.0604751
-0.0730317
-0.0804751
-0.0777828
-0.0649321
-0.0718778
-0.0885973
-0.115068
-0.14129
-0.147376
-0.148326
-0.14905
-0.15457
-0.154977
-0.140271
-0.135452
-0.130543
-0.125566
-0.120543
-0.11552
-0.11052
-0.0854525
-0.0503393
0.00481902
0.0999774
0.310068
0.525136
0.745272
0.970453
1.21063
1.22581
0.870996
0.371222
-0.318484
-0.753213
-0.913009
-0.922828
-0.802624
-0.672398
-0.532195
-0.392059
-0.246968
-0.156833
-0.0966516
-0.0714706
-0.0612896
-0.0511086
-0.0409276
-0.0407014
-0.0504299
-0.0502715
-0.040181
-0.0350679
-0.0299321
-0.0247964
-0.0246606
-0.00954751
-0.00445701
-0.00432127
-0.00414028
0.00101809
0.00615384
0.0113122
0.0165158
0.0117647
0.00703621
0.0172625
0.0274434
0.0326471
0.0378733
0.0381222
0.0383258
0.0484842
0.0586878
0.0589819
0.059276
0.0745249
0.0797285
0.0849095
0.0901131
0.0953394
0.105588
0.11586
0.131109
0.146335
0.151606
0.156923
0.177172
0.202353
0.217579
0.227851
0.2531
0.278326
0.29362
0.308982
0.324367
0.339774
0.370181
0.395633
0.406199
0.416855
0.427602
0.438371
0.459027
0.479661
0.49043
0.50129
0.502149
0.502919
0.498552
0.489072
0.454434
0.424729
0.394977
0.360249
0.315588
0.265928
0.216222
0.166357
0.126335
0.0862896
0.0462443
0.0111991
-0.0138688
-0.0389367
-0.0639367
-0.0838688
-0.098733
-0.10862
-0.118529
-0.123416
-0.123281
-0.128032
-0.137624
-0.136991
-0.12595
-0.123937
-0.130928
-0.1319
-0.126833
-0.120701
-0.114525
-0.119955
-0.12767
-0.123552
-0.121425
-0.12
-0.118597
-0.121629
-0.12405
-0.11586
-0.107059
-0.112602
-0.117738
-0.117647
-0.117443
-0.117195
-0.116878
-0.121493
-0.126131
-0.110837
-0.105543
-0.100204
-0.0948416
-0.099457
-0.104072
-0.0987104
-0.0932805
-0.097828
-0.102421
-0.102081
-0.101787
-0.101516
-0.106267
-0.116063
-0.12095
-0.115905
-0.110792
-0.115656
-0.120588
-0.120543
-0.105498
-0.100362
-0.110023
-0.119525
-0.113914
-0.108281
-0.102579
-0.0968552
-0.101086
-0.105249
-0.109344
-0.113303
-0.107127
-0.10086
-0.104525
-0.108145
-0.0967647
-0.0853394
-0.0888461
-0.0923077
-0.0857466
-0.079095
-0.0823529
-0.0855204
-0.0836199
-0.0817874
-0.0800453
-0.0783484
-0.0719457
-0.0663122
-0.0715611
-0.0728281
-0.0651358
-0.0634389
-0.071629
-0.0784163
-0.0780317
-0.0747737
-0.0747511
-0.0738461
-0.0677601
-0.0570588
-0.0470135
-0.0427827
-0.0392986
-0.041561
-0.0445022
-0.0330542
-0.0219682
-0.0211311
-0.0205203
-0.0201357
-0.019932
-0.0198189
-0.0197963
-0.0299094
-0.0401583
-0.0304977
-0.0208823
-0.0213121
-0.0217872
-0.022285
-0.022828
-0.0184389
-0.014095
-0.0197511
-0.0253846
-0.0310407
-0.036742
-0.032466
-0.02819
-0.0289366
-0.0247964
-0.0157466
-0.0116968
-0.017647
-0.0235747
-0.0295023
-0.0354977
-0.0315385
-0.027534
-0.0284842
-0.029457
-0.0204751
-0.0215385
-0.0226244
-0.028733
-0.0349095
-0.0311765
-0.0275339
-0.0288914
-0.0302715
-0.0316742
-0.0331448
-0.0297285
-0.0264027
-0.0281222
-0.0299095
-0.0218326
-0.00884615
0.00407241
0.0119457
0.0197738
0.0324661
0.045
0.0524435
0.0448416
0.0472398
0.0645702
0.0717873
0.0689367
0.0461539
0.00839368
-0.0193891
-0.0471719
-0.0548416
-0.0573303
-0.0595701
-0.0665837
-0.0784163
-0.0900905
-0.111606
-0.132918
-0.138959
-0.139796
-0.14552
-0.141131
-0.131584
-0.121878
-0.117081
-0.112217
-0.107262
-0.102217
-0.107127
-0.107036
-0.0769683
-0.0419231
-0.00185518
0.0882353
0.268348
0.473507
0.708665
0.948846
1.1891
1.18434
0.884548
0.414729
-0.220091
-0.609887
-0.809683
-0.859548
-0.809457
-0.694344
-0.544208
-0.414072
-0.293937
-0.193824
-0.108733
-0.0785747
-0.0633484
-0.0531901
-0.0430543
-0.0379186
-0.0427828
-0.0476471
-0.0425113
-0.0324208
-0.0273756
-0.0272624
-0.0270815
-0.0218778
-0.0166742
-0.0115158
-0.00638009
0.00377829
0.0139593
0.00911764
0.00425338
0.0093665
0.014457
0.0145927
0.0197511
0.0348869
0.0450678
0.0503167
0.0556108
0.055905
0.0611312
0.0762896
0.0864706
0.0867195
0.086991
0.0872624
0.0925113
0.102783
0.1081
0.113462
0.128756
0.143982
0.159253
0.17457
0.184887
0.195204
0.215498
0.235769
0.251063
0.26638
0.286697
0.312014
0.327376
0.342805
0.353326
0.363914
0.389525
0.415181
0.430882
0.446606
0.45233
0.4631
0.483937
0.499796
0.500679
0.501493
0.497104
0.487624
0.468054
0.433462
0.383869
0.339276
0.294661
0.255
0.215294
0.165498
0.110611
0.0706561
0.0406561
0.0106561
-0.0142987
-0.0392082
-0.0640724
-0.083914
-0.098733
-0.113507
-0.128235
-0.133054
-0.127896
-0.122602
-0.127149
-0.131516
-0.130475
-0.133643
-0.135905
-0.137081
-0.137149
-0.126131
-0.115136
-0.11052
-0.108054
-0.113439
-0.120611
-0.113756
-0.107149
-0.110339
-0.113077
-0.115091
-0.116742
-0.117941
-0.118688
-0.12405
-0.129344
-0.114638
-0.109932
-0.110226
-0.110407
-0.110498
-0.110452
-0.110249
-0.109977
-0.114661
-0.119344
-0.124027
-0.123688
-0.113281
-0.107715
-0.107036
-0.10629
-0.105475
-0.104683
-0.103914
-0.103122
-0.107308
-0.106516
-0.100747
-0.104955
-0.10914
-0.113281
-0.117398
-0.106561
-0.0958371
-0.105204
-0.114819
-0.114728
-0.115543
-0.11233
-0.110226
-0.124208
-0.138914
-0.134253
-0.126855
-0.131742
-0.134253
-0.129638
-0.124774
-0.114774
-0.105294
-0.101312
-0.0978054
-0.0947964
-0.0922851
-0.0901131
-0.0880543
-0.091086
-0.0941629
-0.0872625
-0.0802489
-0.0731222
-0.0659277
-0.0686653
-0.0714028
-0.0641178
-0.0567648
-0.0593666
-0.0619911
-0.0496607
-0.0523983
-0.0552037
-0.053077
-0.0510861
-0.049344
-0.0478281
-0.0465385
-0.0454526
-0.0445476
-0.0439141
-0.0335974
-0.0234842
-0.0284842
-0.0336426
-0.0340046
-0.0344797
-0.035068
-0.0357693
-0.0415612
-0.0474662
-0.0334843
-0.0295477
-0.030611
-0.0316743
-0.0328055
-0.0340499
-0.0303621
-0.0267196
-0.0331449
-0.0396607
-0.0412445
-0.0428508
-0.0394797
-0.036154
-0.0429187
-0.0398191
-0.0268327
-0.0238689
-0.0209503
-0.00812227
-0.0203847
0.0272624
0.0448189
0.042285
0.0396832
0.0520135
0.064276
0.071561
0.0788461
0.0561312
0.0283936
-0.00938919
-0.042172
-0.0499096
-0.057534
-0.0602715
-0.0626697
-0.0649548
-0.076991
-0.108733
-0.130204
-0.136448
-0.142466
-0.143258
-0.143891
-0.144389
-0.144774
-0.140113
-0.130385
-0.120543
-0.115633
-0.120679
-0.120747
-0.110837
-0.0808597
-0.0458145
0.0192082
0.0842082
0.284231
0.499276
0.749344
0.999434
1.1645
1.30955
0.719615
0.134706
-0.375226
-0.830181
-0.875113
-0.895045
-0.76
-0.629955
-0.509887
-0.384796
-0.254706
-0.154615
-0.114548
-0.0794796
-0.0594118
-0.0443891
-0.0443665
-0.0443439
-0.0443212
-0.0442534
-0.0391855
-0.0341629
-0.0291403
-0.024095
-0.0190724
-0.00907238
0.000972852
0.00599548
0.000995472
-0.00402715
0.000927601
0.00588235
0.0108371
0.0157919
0.0157466
0.0257014
0.0406561
0.0456787
0.0407692
0.0458145
0.0658145
0.0658371
0.0658823
0.0709502
0.0760407
0.086086
0.096086
0.101131
0.106176
0.111244
0.121312
0.141335
0.156357
0.161448
0.171584
0.186652
0.196697
0.206742
0.216833
0.226991
0.247149
0.272262
0.292353
0.307466
0.327602
0.34776
0.367964
0.3881
0.408484
0.428982
0.44448
0.454977
0.465543
0.476177
0.481878
0.482647
0.488258
0.498733
0.49905
0.489231
0.464412
0.48457
0.404683
0.374774
0.319864
0.26491
0.209842
0.159706
0.109525
0.0592986
0.024095
-0.00608598
-0.0312896
-0.0465158
-0.0617195
-0.0818778
-0.101991
-0.117081
-0.11724
-0.117398
-0.122511
-0.127466
-0.13224
-0.136742
-0.140973
-0.144276
-0.141584
-0.137783
-0.137873
-0.13724
-0.125973
-0.117375
-0.116425
-0.117783
-0.126199
-0.129796
-0.123462
-0.121538
-0.12905
-0.136018
-0.137421
-0.138235
-0.133597
-0.133778
-0.138801
-0.133756
-0.128665
-0.123552
-0.118439
-0.123371
-0.128326
-0.123235
-0.1181
-0.117941
-0.11776
-0.117579
-0.117376
-0.117104
-0.11681
-0.111561
-0.106335
-0.106086
-0.105792
-0.105452
-0.105136
-0.104864
-0.104593
-0.109299
-0.113959
-0.108643
-0.103394
-0.108122
-0.112941
-0.117828
-0.122783
-0.117783
-0.112715
-0.107602
-0.102534
-0.107489
-0.107398
-0.0971493
-0.0966289
-0.105928
-0.110136
-0.0992534
-0.0983031
-0.0973077
-0.106267
-0.115158
-0.108959
-0.102602
-0.0910634
-0.0793665
-0.077534
-0.0756335
-0.0687104
-0.0617195
-0.064638
-0.0674887
-0.0653168
-0.0630996
-0.0608597
-0.058552
-0.0611991
-0.0640271
-0.0470588
-0.0403619
-0.0390271
-0.0386425
-0.0442759
-0.0460406
-0.038733
-0.0377828
-0.0420135
-0.0446606
-0.0502036
-0.0528733
-0.0437556
-0.0342534
-0.0350452
-0.0368099
-0.029457
-0.0229185
-0.0220362
-0.0217647
-0.0219004
-0.0223303
-0.0129185
-0.0135294
-0.0141628
-0.0198189
-0.0254976
-0.0212216
-0.0169909
-0.0227601
-0.028552
-0.0243891
-0.0202488
-0.0161311
-0.0120361
-0.0129185
-0.0138461
-0.0147963
-0.0157692
-0.0217873
-0.027828
-0.0238461
-0.0198416
-0.0208597
-0.0219004
-0.0229411
-0.0240271
-0.0251357
-0.0262669
-0.0224434
-0.0185972
-0.0247511
-0.0259728
-0.0172398
-0.0135067
-0.0197737
-0.0260859
-0.0273982
-0.028733
-0.0250904
-0.0214705
-0.0278959
-0.0293891
-0.0259502
-0.0275339
-0.0291628
-0.0358597
-0.042647
-0.0345475
-0.0265158
-0.0185294
-0.0106334
-0.0178506
-0.020181
-0.00257915
0.00997742
0.0274435
0.0397738
0.056991
0.0691177
0.0611991
0.058258
0.0702942
0.0773078
0.0692535
0.0412218
-0.00174201
-0.0296606
-0.0475565
-0.0603846
-0.0630316
-0.0654298
-0.0676018
-0.0746154
-0.0864932
-0.103145
-0.11957
-0.135769
-0.151742
-0.147579
-0.133281
-0.128778
-0.129163
-0.124502
-0.109796
-0.105045
-0.100249
-0.105407
-0.105543
-0.0606787
-0.0158145
0.0491176
0.139095
0.349118
0.564163
0.789163
1.01414
1.23419
1.24428
0.839367
0.319457
-0.370475
-0.81543
-0.950362
-0.935272
-0.755204
-0.590181
-0.435158
-0.305113
-0.185068
-0.115045
-0.0700453
-0.0500227
-0.0449322
-0.0398869
-0.0398869
-0.0399095
-0.0349548
-0.0299548
-0.0349095
-0.0349095
-0.0249548
-0.0199774
-0.0199774
-0.0199321
-0.0198416
-0.00477376
0.000271489
0.00533936
0.0104299
0.0154977
0.020543
0.0206109
0.020724
0.0208824
0.0210407
0.0311539
0.0412444
0.0463575
0.0514932
0.0516516
0.0567647
0.0768326
0.0919231
0.0870815
0.0822625
0.0974208
0.102557
0.107692
0.112873
0.118122
0.128348
0.143507
0.158665
0.168846
0.18405
0.199253
0.219367
0.244412
0.259548
0.269774
0.290023
0.310294
0.330543
0.350792
0.366154
0.381606
0.407127
0.427692
0.443348
0.459072
0.469796
0.48052
0.491267
0.502036
0.497805
0.493484
0.483959
0.469299
0.449593
0.419864
0.365158
0.31543
0.270656
0.23086
0.186018
0.141131
0.101199
0.0611765
0.0310634
0.000950245
-0.0391176
-0.0591403
-0.0741403
-0.0891403
-0.099095
-0.108982
-0.118801
-0.123665
-0.128552
-0.133235
-0.132715
-0.136923
-0.145747
-0.14862
-0.14052
-0.131403
-0.131267
-0.130136
-0.123959
-0.119638
-0.11767
-0.118778
-0.121878
-0.125611
-0.129299
-0.127195
-0.124344
-0.125747
-0.126584
-0.121946
-0.117014
-0.121878
-0.126652
-0.116357
-0.106041
-0.105724
-0.105407
-0.110068
-0.114706
-0.109367
-0.10405
-0.10371
-0.103326
-0.107919
-0.112557
-0.10724
-0.101833
-0.10638
-0.110905
-0.110407
-0.10991
-0.109412
-0.113869
-0.123281
-0.122715
-0.112172
-0.106606
-0.111018
-0.115385
-0.114706
-0.0990498
-0.0933937
-0.0976471
-0.101833
-0.101018
-0.100249
-0.0994796
-0.0987104
-0.107896
-0.117127
-0.106448
-0.0958145
-0.0952036
-0.0945475
-0.0988462
-0.0981448
-0.0823982
-0.0716063
-0.0807466
-0.0897964
-0.0837557
-0.0774661
-0.0759276
-0.0741629
-0.0771946
-0.0802036
-0.07319
-0.066086
-0.0638914
-0.0615385
-0.0640272
-0.0614027
-0.0486878
-0.040905
-0.0430543
-0.0452262
-0.0374434
-0.0297511
-0.0321493
-0.0346606
-0.0373303
-0.0302715
-0.0184615
-0.0168552
-0.015543
-0.0195928
-0.0240951
-0.019095
-0.0151131
-0.0122398
-0.0105204
-0.0200226
-0.0304525
-0.0317647
-0.0309276
-0.0426697
-0.0518552
-0.0435294
-0.0350226
-0.0313801
-0.0284842
-0.0212896
-0.0147511
-0.0138688
-0.0135294
-0.0136425
-0.0139366
-0.0144117
-0.0149547
-0.010543
-0.0111086
-0.0216516
-0.0272172
-0.0228054
-0.0184162
-0.0140497
-0.0146832
-0.0253167
-0.0209728
-0.00665156
-0.00233029
-0.00300903
-0.00373301
-0.0145022
-0.0152262
-0.0159049
-0.0165837
-0.0172624
-0.0179864
-0.0188009
-0.0146606
-0.0105203
-0.0163575
-0.0222172
-0.0131674
-0.00416289
-0.0101131
-0.0160407
-0.0170588
-0.0180995
-0.0141403
-0.010181
-0.0212217
-0.0323529
-0.0285973
-0.0248869
-0.0211765
-0.0174887
-0.0238688
-0.0303394
-0.0268778
-0.0233711
-0.0248869
-0.0265159
-0.0332353
-0.03
-0.0168326
-0.013733
-0.020724
-0.00787332
0.014819
0.0324661
0.0500679
0.0525792
0.0500226
0.0623755
0.064638
0.0719004
0.0791855
0.0714027
0.0585294
0.0206335
-0.0172398
-0.0500679
-0.0778281
-0.070543
-0.0631674
-0.0606561
-0.0629186
-0.085362
-0.107195
-0.123846
-0.135272
-0.141425
-0.14733
-0.148054
-0.143643
-0.134072
-0.129344
-0.124548
-0.119729
-0.114887
-0.11
-0.110045
-0.0850453
-0.05
0.00499998
0.0749547
0.259955
0.475
0.700091
0.930226
1.11534
1.29545
0.805634
0.26086
-0.313982
-0.878891
-0.923778
-0.958643
-0.798529
-0.643439
-0.503348
-0.368258
-0.253167
-0.148077
-0.102986
-0.0678959
-0.0578054
-0.0476923
-0.0525113
-0.057353
-0.0522851
-0.0472625
-0.0422398
-0.0371946
-0.0321267
-0.0270588
-0.0220362
-0.016991
-0.0118778
-0.00674209
-0.00160634
0.00352941
0.00361991
0.00375565
0.00393665
0.00409502
0.00923076
0.0243439
0.0394344
0.0445701
0.0397511
0.0448869
0.0599774
0.0651131
0.0602941
0.0604751
0.0756561
0.0758371
0.0760407
0.0763122
0.0765837
0.0917421
0.106833
0.116968
0.127149
0.137376
0.147624
0.162805
0.177941
0.183122
0.193348
0.213575
0.228778
0.238937
0.25414
0.269434
0.289729
0.314977
0.340294
0.360724
0.381244
0.401855
0.417489
0.433122
0.453846
0.469615
0.475407
0.481222
0.491991
0.502692
0.503258
0.493688
0.478982
0.464163
0.439389
0.414661
0.369955
0.410249
0.27543
0.230498
0.180498
0.130452
0.0803846
0.0352941
0.000203635
-0.0298642
-0.0598642
-0.079819
-0.0897511
-0.0996606
-0.10457
-0.10948
-0.119389
-0.129208
-0.123891
-0.118326
-0.122443
-0.125701
-0.127964
-0.129231
-0.12448
-0.123869
-0.127421
-0.128213
-0.121493
-0.117376
-0.120814
-0.124434
-0.12319
-0.121244
-0.11862
-0.115362
-0.116493
-0.117127
-0.117308
-0.117285
-0.117104
-0.121878
-0.131606
-0.126357
-0.116131
-0.110905
-0.105679
-0.105407
-0.10509
-0.104774
-0.104457
-0.104118
-0.103756
-0.103371
-0.102964
-0.102534
-0.102081
-0.111629
-0.121222
-0.11586
-0.110543
-0.105249
-0.1
-0.104796
-0.109661
-0.104638
-0.0995475
-0.0993439
-0.0992081
-0.104186
-0.109163
-0.109005
-0.113597
-0.123009
-0.117398
-0.101765
-0.0960633
-0.100294
-0.10448
-0.10862
-0.107692
-0.0966516
-0.0904525
-0.0941403
-0.0977828
-0.0963575
-0.089819
-0.0831901
-0.0865159
-0.089819
-0.0831222
-0.0763801
-0.0745701
-0.0726697
-0.0706561
-0.0685973
-0.0665385
-0.0646154
-0.0678281
-0.071629
-0.0660634
-0.0614706
-0.0578733
-0.0553846
-0.0638236
-0.0715611
-0.0733258
-0.072353
-0.0689593
-0.0643891
-0.0589366
-0.0536651
-0.0433484
-0.0342534
-0.0309728
-0.0285067
-0.0268099
-0.0257918
-0.0252715
-0.0250226
-0.0299774
-0.0351357
-0.0354072
-0.0357466
-0.0311538
-0.0265837
-0.0270362
-0.0225565
-0.0181448
-0.018733
-0.0193212
-0.0249321
-0.0305882
-0.0263122
-0.0220814
-0.0278281
-0.0336199
-0.0295249
-0.0254751
-0.0264027
-0.0273077
-0.0332127
-0.0391855
-0.0351584
-0.0311312
-0.0321041
-0.0330543
-0.0290046
-0.025
-0.0260407
-0.0271041
-0.0281901
-0.0293665
-0.0306561
-0.0319457
-0.0282127
-0.024457
-0.0306787
-0.0369457
-0.0332806
-0.0296833
-0.0311539
-0.0327376
-0.0343892
-0.0361086
-0.0378959
-0.0397512
-0.0416742
-0.0337104
-0.0258824
-0.0181222
-0.0104299
0.0121946
0.0347285
0.0521267
0.069457
0.0567873
0.0440498
0.0612217
0.078371
0.0754977
0.0576018
-0.00029412
-0.0431901
-0.0511086
-0.058914
-0.0615611
-0.0639367
-0.0661086
-0.0680769
-0.0748416
-0.0913575
-0.112624
-0.123688
-0.129593
-0.135385
-0.141041
-0.146516
-0.146878
-0.137217
-0.122511
-0.112715
-0.102828
-0.0978733
-0.102873
-0.0928959
-0.0729412
-0.0279638
0.0170362
0.167036
0.322036
0.542036
0.767036
1.02208
1.23717
1.08224
0.857285
0.237308
-0.312692
-0.59767
-0.817647
-0.82267
-0.792715
-0.657715
-0.52267
-0.39267
-0.27267
-0.17267
-0.10767
-0.0826697
-0.0676471
-0.0526244
-0.0476471
-0.0426923
-0.0377149
-0.0376923
-0.0376923
-0.0327376
-0.0277602
-0.0227602
-0.0177828
-0.0178281
-0.0128959
-0.00298642
0.00199095
-0.0029638
0.0020362
0.016991
0.0219683
0.021991
0.0220588
0.0221267
0.0371267
0.0420815
0.0470815
0.0521267
0.052172
0.0522172
0.0622851
0.0723756
0.0774887
0.0826245
0.0977376
0.112828
0.117919
0.123009
0.123122
0.123258
0.133371
0.148462
0.163575
0.17871
0.203846
0.218959
0.23405
0.249186
0.264367
0.279502
0.294593
0.314729
0.33491
0.355158
0.375475
0.400882
0.42638
0.436968
0.442647
0.463281
0.483869
0.48957
0.490385
0.491199
0.491946
0.487443
0.482738
0.462964
0.443167
0.388416
0.338643
0.288801
0.238937
0.184072
0.139163
0.0991629
0.0591177
0.0290498
-0.0010407
-0.0361312
-0.0562443
-0.0663801
-0.0814706
-0.0964932
-0.111448
-0.126335
-0.136222
-0.131154
-0.126041
-0.130837
-0.13543
-0.139819
-0.143552
-0.136606
-0.12862
-0.12957
-0.129412
-0.123326
-0.117986
-0.10871
-0.10224
-0.108281
-0.110679
-0.10414
-0.102692
-0.111199
-0.119186
-0.111584
-0.113348
-0.114593
-0.115452
-0.116041
-0.121516
-0.12681
-0.121878
-0.116787
-0.121561
-0.126312
-0.116109
-0.105928
-0.105724
-0.10543
-0.1
-0.094457
-0.0938235
-0.0931448
-0.102398
-0.111652
-0.10595
-0.100271
-0.0995701
-0.103846
-0.113122
-0.112466
-0.101878
-0.0961991
-0.10052
-0.104955
-0.10457
-0.10448
-0.104955
-0.10629
-0.113597
-0.122014
-0.121448
-0.121765
-0.126312
-0.128914
-0.129005
-0.126267
-0.122217
-0.117557
-0.112964
-0.108778
-0.105113
-0.0969909
-0.0893665
-0.0971946
-0.105294
-0.0936199
-0.0819683
-0.0803167
-0.0785973
-0.0817873
-0.0849548
-0.0780543
-0.0710407
-0.068914
-0.0667647
-0.0646154
-0.0623982
-0.0651132
-0.0678055
-0.0654978
-0.0632353
-0.0610181
-0.0538236
-0.0416516
-0.0395702
-0.0475792
-0.0408824
-0.0244571
-0.018258
-0.0222851
-0.026629
-0.0261991
-0.0259729
-0.0259503
-0.0260634
-0.0313122
-0.0317195
-0.0272625
-0.0279186
-0.0286652
-0.0345023
-0.0404751
-0.0365838
-0.0327602
-0.0339141
-0.0350906
-0.0363575
-0.0376924
-0.0340951
-0.0305883
-0.0421267
-0.0537331
-0.0454299
-0.0372172
-0.0290724
-0.0210181
-0.0230317
-0.0201358
-0.00737562
0.00533932
0.0180543
0.0357239
0.0532805
0.0557239
0.0431447
0.0455429
0.0578959
0.0601809
0.0574208
0.029638
-0.00814484
-0.0408372
-0.0684163
-0.0709277
-0.0633485
-0.060543
-0.0624887
-0.0791856
-0.105634
-0.126833
-0.147783
-0.153529
-0.159095
-0.154548
-0.14991
-0.140136
-0.130226
-0.130204
-0.130181
-0.115204
-0.100181
-0.105045
-0.0998643
-0.0697059
-0.0245475
0.0406335
0.165837
0.366063
0.59129
0.841493
1.07167
1.28188
1.12713
0.702398
0.152624
-0.472195
-0.761991
-0.886765
-0.856538
-0.751312
-0.621086
-0.47586
-0.350611
-0.235339
-0.160113
-0.0949548
-0.0747964
-0.0595928
-0.0543439
-0.054095
-0.038914
-0.0337783
-0.0336199
-0.0334389
-0.0282579
-0.0230769
-0.0178959
-0.012715
-0.0125339
-0.0123756
-0.00226245
0.00782804
0.00791853
0.00803166
0.00819003
0.00837103
0.0184842
0.0286425
0.0288914
0.0291629
0.0444118
0.049638
0.0548642
0.0601131
0.0603846
0.0606335
0.0608371
0.0710407
0.086267
0.0914932
0.0967195
0.1119
0.127036
0.132195
0.132376
0.142579
0.157805
0.168032
0.178258
0.193484
0.20871
0.228891
0.244027
0.259208
0.274434
0.294706
0.315023
0.340317
0.365611
0.375996
0.386471
0.401991
0.422579
0.443281
0.459027
0.464729
0.475453
0.491244
0.502036
0.502805
0.498439
0.483891
0.464208
0.444412
0.419638
0.379932
0.335249
0.280566
0.225792
0.175882
0.125905
0.0808598
0.0407693
0.00563351
-0.0244796
-0.0495701
-0.0746154
-0.0996154
-0.104615
-0.104615
-0.114547
-0.129412
-0.134299
-0.134163
-0.138869
-0.143348
-0.147557
-0.151222
-0.149005
-0.145792
-0.141448
-0.136063
-0.134729
-0.134095
-0.120385
-0.109163
-0.115769
-0.123688
-0.127172
-0.13052
-0.133394
-0.135679
-0.137308
-0.138394
-0.138982
-0.134253
-0.124253
-0.12414
-0.133937
-0.13371
-0.123484
-0.118167
-0.117805
-0.117466
-0.117149
-0.11681
-0.116448
-0.116063
-0.120656
-0.120249
-0.109842
-0.104412
-0.103959
-0.103484
-0.103009
-0.107579
-0.102172
-0.106742
-0.11129
-0.110837
-0.110452
-0.11009
-0.109796
-0.11457
-0.119389
-0.114276
-0.109163
-0.109005
-0.108824
-0.108529
-0.108348
-0.103145
-0.0977149
-0.0970588
-0.096267
-0.100362
-0.104434
-0.103462
-0.102398
-0.0962444
-0.09
-0.0886652
-0.087172
-0.085543
-0.0838009
-0.0819457
-0.0800226
-0.0730317
-0.0659502
-0.0687783
-0.071629
-0.064457
-0.0572172
-0.0598869
-0.0624661
-0.0600453
-0.0577376
-0.0556335
-0.0487783
-0.0426018
-0.0373303
-0.0330769
-0.0349321
-0.0378959
-0.0469683
-0.0549321
-0.0564253
-0.055181
-0.0461086
-0.036448
-0.0363123
-0.0369457
-0.0283484
-0.0206335
-0.0187783
-0.0176245
-0.0171267
-0.0170362
-0.0173303
-0.0176923
-0.0180996
-0.018552
-0.0190724
-0.0196154
-0.0251584
-0.0307014
-0.0262444
-0.0218552
-0.0175339
-0.0132353
-0.0139593
-0.0146833
-0.0154072
-0.0161765
-0.016991
-0.0177828
-0.018552
-0.0193665
-0.0202262
-0.0211086
-0.0220136
-0.0229185
-0.0238461
-0.019819
-0.0158145
-0.0118326
-0.0078507
-0.0138462
-0.0198643
-0.0209503
-0.0220589
-0.0281448
-0.0342308
-0.030362
-0.0265159
-0.0276923
-0.0289141
-0.0301811
-0.0315159
-0.0329412
-0.0344344
-0.0309503
-0.0275114
-0.0341629
-0.035905
-0.027715
-0.0246154
-0.0215838
-0.0186652
-0.0208598
-0.00812222
0.00954748
0.0271267
0.0446154
0.0570135
0.0693212
0.0665837
0.0538009
0.0559728
0.0430995
0.070181
0.0672624
0.0294117
-0.0083937
-0.0361765
-0.0637783
-0.0611991
-0.0584616
-0.070543
-0.0823756
-0.0889367
-0.0952715
-0.111425
-0.127443
-0.138575
-0.149276
-0.144819
-0.140249
-0.135543
-0.130747
-0.115905
-0.111041
-0.111109
-0.111109
-0.111086
-0.0961086
-0.0661539
-0.0111765
0.0588235
0.218869
0.418959
0.639072
0.869208
1.09434
1.31948
1.04959
0.684683
0.0347737
-0.645136
-0.83
-0.984819
-0.864683
-0.739593
-0.58448
-0.429344
-0.304186
-0.184027
-0.118914
-0.0588235
-0.0487104
-0.0385747
-0.0384616
-0.038371
-0.0382806
-0.03819
-0.0430996
-0.0480317
-0.0379638
-0.0278733
-0.0227602
-0.0176018
-0.0174208
-0.0172851
-0.0121946
-0.00708145
-0.0019457
0.00319005
0.0083258
0.0134389
0.0185294
0.0236652
0.0238462
0.0290045
0.0391403
0.0443213
0.0495475
0.0547738
0.06
0.0652263
0.0704525
0.0756561
0.0808371
0.0860181
0.0961991
0.10138
0.106561
0.116765
0.126991
0.142195
0.157376
0.172557
0.187738
0.202941
0.223167
0.243371
0.258575
0.273824
0.294095
0.314344
0.334638
0.349955
0.365339
0.385814
0.406357
0.421968
0.437647
0.453394
0.46914
0.479842
0.490566
0.501244
0.502081
0.492941
0.48862
0.484118
0.444502
0.399774
0.360068
0.320385
0.265656
0.210882
0.166086
0.126267
0.0963575
0.121357
0.0263122
-0.00877829
-0.0338462
-0.0588914
-0.073914
-0.088914
-0.0988462
-0.108756
-0.118643
-0.128507
-0.123394
-0.118235
-0.122941
-0.127398
-0.131538
-0.134955
-0.132466
-0.129005
-0.124525
-0.119005
-0.112443
-0.107127
-0.103484
-0.10276
-0.11009
-0.118281
-0.117195
-0.115566
-0.118371
-0.120475
-0.126878
-0.127738
-0.118077
-0.1131
-0.117828
-0.122534
-0.117217
-0.111878
-0.111516
-0.111131
-0.115724
-0.115362
-0.110045
-0.109706
-0.109344
-0.113937
-0.118484
-0.108054
-0.0976471
-0.102217
-0.106765
-0.10629
-0.105792
-0.100272
-0.0947285
-0.104163
-0.113597
-0.108054
-0.102534
-0.107014
-0.111471
-0.105905
-0.100407
-0.104977
-0.109593
-0.104253
-0.0989367
-0.103643
-0.108303
-0.102919
-0.0976019
-0.10233
-0.106991
-0.101516
-0.0957693
-0.0947964
-0.0936878
-0.0924661
-0.0911765
-0.0897964
-0.0883258
-0.0867421
-0.085
-0.0730769
-0.0759729
-0.0787331
-0.0764254
-0.0740724
-0.0666742
-0.0592082
-0.0566968
-0.0541629
-0.0516064
-0.0490046
-0.0463801
-0.0437331
-0.0460181
-0.0484389
-0.0411086
-0.0340497
-0.0323076
-0.0316515
-0.032104
-0.0337556
-0.0366063
-0.0406334
-0.0452262
-0.0478733
-0.0433936
-0.0362669
-0.0319683
-0.0277149
-0.0236199
-0.0204072
-0.018009
-0.0162443
-0.0151131
-0.0145927
-0.0195022
-0.0246606
-0.02
-0.0153619
-0.0157239
-0.0160859
-0.0164479
-0.0168552
-0.0173076
-0.0127828
-0.0082805
-0.0138009
-0.0193439
-0.0149095
-0.0104977
-0.0160633
-0.0216289
-0.0172624
-0.0129411
-0.0136199
-0.0142986
-0.0149774
-0.0156787
-0.0114253
-0.00719457
-0.0129412
-0.0186651
-0.0144118
-0.0102263
-0.0160634
-0.0218778
-0.0276923
-0.0335521
-0.0294797
-0.0254299
-0.0213801
-0.017353
-0.0233485
-0.0294118
-0.025543
-0.0216516
-0.0227376
-0.0239141
-0.0251584
-0.0264706
-0.0278507
-0.0292534
-0.0307014
-0.0272851
-0.0240045
-0.0157919
-0.00762445
-0.0095249
-0.0115385
0.00635745
0.0241855
0.0369231
0.0495475
0.057104
0.0646154
0.0570362
0.0544117
0.0717873
0.084095
0.0763122
0.0535067
0.00572392
-0.0319684
-0.0495928
-0.0621494
-0.0646154
-0.0669005
-0.068982
-0.0808598
-0.102511
-0.123891
-0.144955
-0.155815
-0.156516
-0.152104
-0.142557
-0.137851
-0.133009
-0.123077
-0.113077
-0.108054
-0.102986
-0.0978734
-0.102738
-0.0726018
-0.0274661
0.0276923
0.0928959
0.293145
0.493416
0.718688
0.943959
1.14923
1.2195
0.744796
0.235113
-0.37957
-0.834253
-0.918937
-0.91862
-0.748348
-0.593077
-0.467805
-0.342557
-0.21733
-0.132081
-0.0868326
-0.056629
-0.0464254
-0.0411765
-0.045905
-0.0506787
-0.0454977
-0.0402715
-0.035
-0.0297285
-0.024457
-0.0191855
-0.013914
-0.00864254
-0.013371
-0.0131222
-0.00289592
0.00233032
0.00755657
0.0127828
0.0130091
0.0182579
0.0235294
0.0288462
0.0342081
0.0345475
0.0348643
0.0452036
0.0555656
0.055905
0.0562217
0.0665158
0.0767873
0.0820815
0.0873756
0.0927149
0.0980317
0.108371
0.11871
0.124095
0.12948
0.144842
0.155204
0.170566
0.18595
0.196357
0.211742
0.232104
0.252489
0.272896
0.288303
0.29871
0.319163
0.344661
0.365249
0.380928
0.401674
0.422489
0.438371
0.454321
0.460226
0.466109
0.487081
0.503122
0.504118
0.505
0.490679
0.476199
0.461629
0.441991
0.402376
0.357783
0.31319
0.263575
0.203914
0.144163
0.094276
0.0543213
0.0293665
-0.000565603
-0.0304525
-0.055362
-0.0752941
-0.0901358
-0.0948869
-0.104615
-0.114321
-0.119005
-0.12371
-0.128281
-0.127647
-0.131787
-0.140656
-0.14362
-0.140679
-0.136719
-0.131742
-0.12586
-0.124683
-0.125633
-0.118869
-0.114864
-0.117896
-0.121335
-0.114796
-0.117511
-0.11957
-0.116109
-0.112104
-0.117534
-0.122602
-0.117511
-0.112398
-0.117353
-0.122353
-0.112443
-0.102557
-0.112602
-0.122692
-0.117896
-0.113032
-0.1181
-0.123032
-0.117828
-0.112466
-0.111991
-0.111493
-0.105928
-0.100385
-0.0998643
-0.099276
-0.10362
-0.107805
-0.111855
-0.115905
-0.114955
-0.113982
-0.112986
-0.111946
-0.11086
-0.109842
-0.108869
-0.107896
-0.1069
-0.100905
-0.104909
-0.093914
-0.103054
-0.107353
-0.112081
-0.107376
-0.103529
-0.105611
-0.108824
-0.118167
-0.127308
-0.126041
-0.122172
-0.120452
-0.117014
-0.104977
-0.0897285
-0.0943891
-0.0996606
-0.0954977
-0.0917647
-0.0884842
-0.0855882
-0.0880091
-0.0905204
-0.0830995
-0.0757239
-0.0733937
-0.0709728
-0.0634842
-0.0560181
-0.0535747
-0.0511991
-0.0438914
-0.0366742
-0.0395701
-0.0426697
-0.0409955
-0.0445249
-0.0532805
-0.0523303
-0.0416742
-0.0362443
-0.0359955
-0.0358824
-0.0359502
-0.0261991
-0.0165837
-0.0270814
-0.0376697
-0.0382805
-0.0389366
-0.0396606
-0.0404298
-0.0411991
-0.0420362
-0.0379638
-0.0339366
-0.0349547
-0.0360181
-0.0371041
-0.0382805
-0.0345475
-0.0308371
-0.037172
-0.043552
-0.0499321
-0.0563801
-0.0529185
-0.0494796
-0.0460407
-0.0376923
-0.0294344
-0.026267
-0.02819
-0.0252262
-0.0173755
0.00542988
0.0281901
0.0408597
0.0534163
0.050905
0.038371
0.0507692
0.0780769
0.065362
0.0526471
0.0248869
-0.00291856
-0.0357014
-0.0684389
-0.0761312
-0.0836652
-0.0759955
-0.0680996
-0.0800226
-0.0966968
-0.128145
-0.154389
-0.150407
-0.146267
-0.151946
-0.157466
-0.157828
-0.158122
-0.143348
-0.133529
-0.123665
-0.118778
-0.113869
-0.108914
-0.103959
-0.068914
-0.0238688
0.0811312
0.211086
0.406086
0.626131
0.886199
1.15129
1.12133
1.04133
0.481335
-0.128643
-0.488575
-0.158484
-0.853371
-0.863235
-0.708145
-0.5581
-0.443077
-0.328077
-0.223054
-0.133009
-0.0979638
-0.0679638
-0.053009
-0.0380543
-0.0380995
-0.0381448
-0.0331674
-0.0281674
-0.0281674
-0.0281674
-0.0231448
-0.0181222
-0.0131448
-0.00816741
-0.0081674
-0.00814478
-0.00312216
0.00185521
0.00183259
0.00185522
0.00690047
0.0169005
0.0268552
0.0319005
0.0370362
0.0421267
0.042172
0.0422399
0.0473303
0.0524208
0.0475113
0.0575792
0.0776245
0.0826697
0.082715
0.0877602
0.0928055
0.112851
0.132896
0.137964
0.143054
0.148145
0.153235
0.173281
0.193303
0.198394
0.208529
0.228665
0.248824
0.274027
0.299231
0.319412
0.339615
0.354864
0.370226
0.385701
0.406244
0.431855
0.447466
0.453032
0.463688
0.474502
0.480249
0.485928
0.491471
0.491878
0.487149
0.477285
0.442376
0.402421
0.357534
0.317715
0.262828
0.207851
0.157738
0.102511
0.0622851
0.0220815
-0.0130995
-0.0482805
-0.0634842
-0.0787104
-0.0888914
-0.0990498
-0.104163
-0.109276
-0.114412
-0.119548
-0.129661
-0.139706
-0.134683
-0.129253
-0.133303
-0.136471
-0.138643
-0.139638
-0.129434
-0.119525
-0.11009
-0.108122
-0.118823
-0.126018
-0.121584
-0.120204
-0.123801
-0.126719
-0.123982
-0.120679
-0.126787
-0.13233
-0.137398
-0.13224
-0.116923
-0.111561
-0.111154
-0.110724
-0.110272
-0.109819
-0.109389
-0.109005
-0.108665
-0.103348
-0.0980317
-0.10267
-0.10733
-0.117081
-0.127081
-0.11733
-0.108484
-0.115633
-0.124005
-0.116199
-0.111493
-0.127398
-0.141063
-0.142443
-0.141267
-0.142873
-0.144005
-0.139796
-0.136041
-0.127805
-0.120113
-0.112941
-0.106312
-0.105181
-0.104321
-0.103665
-0.102986
-0.102262
-0.101493
-0.105679
-0.109864
-0.10405
-0.103145
-0.112172
-0.116222
-0.110249
-0.104208
-0.1031
-0.0969004
-0.0906335
-0.0893212
-0.0879412
-0.0864706
-0.0849095
-0.0832805
-0.0815837
-0.079819
-0.078009
-0.0811765
-0.0843212
-0.077466
-0.0706108
-0.063733
-0.0568778
-0.0550678
-0.0533484
-0.046742
-0.0402714
-0.0439592
-0.0478958
-0.0420588
-0.0365158
-0.0362669
-0.0362443
-0.0314931
-0.0320361
-0.0428506
-0.0488461
-0.0450452
-0.0414026
-0.0379185
-0.0345701
-0.0363574
-0.0332352
-0.0252262
-0.0223302
-0.0245474
-0.00690037
0.0206336
0.0331449
0.0456109
0.0429865
0.0402715
0.0374661
0.0345928
0.0666969
0.0887557
0.0707693
0.0477602
0.0147285
-0.0182579
-0.0411538
-0.0588914
-0.0564706
-0.0538009
-0.0658597
-0.0826923
-0.104321
-0.120747
-0.136968
-0.142986
-0.138778
-0.134457
-0.140023
-0.145452
-0.140769
-0.131018
-0.121199
-0.111357
-0.101493
-0.0965611
-0.101561
-0.0915611
-0.0715611
-0.0165837
0.0433711
0.248348
0.468348
0.738348
0.483348
1.17839
1.32348
0.833529
0.333529
-0.226471
-0.716471
-0.821493
-0.891539
-0.786561
-0.676561
-0.546561
-0.411561
-0.286561
-0.176561
-0.111561
-0.0615384
-0.0465385
-0.0365611
-0.0416063
-0.0466516
-0.0417194
-0.0368326
-0.0369457
-0.0320136
-0.0220814
-0.0171946
-0.0123077
-0.0074208
-0.00255655
0.00735296
0.0173077
0.0222398
0.0171493
0.0120815
0.0120362
0.0169683
0.0268778
0.0317873
0.0317195
0.0366742
0.046629
0.0515837
0.0515385
0.0614932
0.0714706
0.0864932
0.101516
0.0965158
0.0915158
0.101516
0.111516
0.121516
0.131516
0.131516
0.136538
0.161629
0.181697
0.186674
0.196629
0.216606
0.236629
0.256697
0.276765
0.29181
0.3119
0.332059
0.352195
0.372285
0.387511
0.397919
0.413371
0.428869
0.444344
0.459796
0.470249
0.480701
0.496312
0.512036
0.51767
0.51319
0.498597
0.483891
0.454095
0.419231
0.364389
0.309593
0.264796
0.214932
0.164932
0.114842
0.0746607
0.0394344
0.0192308
-0.00595022
-0.0361538
-0.0613801
-0.0765611
-0.0916742
-0.0967873
-0.101855
-0.111878
-0.121878
-0.1269
-0.131878
-0.136765
-0.141403
-0.135769
-0.129276
-0.131855
-0.133167
-0.130588
-0.124864
-0.118484
-0.114321
-0.112421
-0.113032
-0.115837
-0.11914
-0.127783
-0.13595
-0.13362
-0.130724
-0.12724
-0.123213
-0.12371
-0.128914
-0.123869
-0.11871
-0.113507
-0.113371
-0.113281
-0.108145
-0.102964
-0.112805
-0.122647
-0.117443
-0.11224
-0.107059
-0.1019
-0.106697
-0.111538
-0.106335
-0.101222
-0.106244
-0.111357
-0.106538
-0.101697
-0.10181
-0.106923
-0.117059
-0.122217
-0.117353
-0.11233
-0.107172
-0.106855
-0.116403
-0.115837
-0.105158
-0.0995475
-0.104005
-0.108348
-0.102579
-0.0966516
-0.0956109
-0.0995475
-0.108439
-0.10224
-0.0909728
-0.0897059
-0.0884163
-0.0920588
-0.0956561
-0.0892082
-0.0826923
-0.0861086
-0.0894344
-0.0776923
-0.066086
-0.0746154
-0.0836652
-0.0783031
-0.0739819
-0.0707013
-0.068552
-0.0724434
-0.0757466
-0.0781674
-0.0775791
-0.0691855
-0.0590271
-0.0575565
-0.0563122
-0.0504751
-0.0455882
-0.0416063
-0.0434615
-0.0511312
-0.049457
-0.0383484
-0.0325792
-0.027104
-0.0218099
-0.0216742
-0.0216516
-0.0217647
-0.0220136
-0.0273755
-0.032828
-0.023371
-0.0239592
-0.0245701
-0.025181
-0.0258823
-0.0266968
-0.0275565
-0.0284389
-0.0293439
-0.0152262
-0.00108592
-0.0119909
-0.0229411
-0.023914
-0.0249095
-0.0259502
-0.0270135
-0.0330995
-0.0391855
-0.0352715
-0.0314027
-0.0326018
-0.0338461
-0.0300904
-0.0263122
-0.0225113
-0.0187556
-0.0200678
-0.0264253
-0.0378054
-0.0392307
-0.0306787
-0.0271493
-0.0336425
-0.0401583
-0.0367194
-0.0334389
-0.0352941
-0.0322172
-0.0241855
-0.0161991
-0.0232805
-0.0054751
-0.0077828
0.0148643
0.0374661
0.0499321
0.0623077
0.059638
0.0569457
0.0592082
0.0613801
0.0684389
0.0704299
0.0373982
0.0043665
-0.0236425
-0.0465385
-0.0594118
-0.0721493
-0.0647059
-0.0570136
-0.0741403
-0.091086
-0.117783
-0.134186
-0.140339
-0.14638
-0.14233
-0.138122
-0.133733
-0.129231
-0.124615
-0.114955
-0.105272
-0.100543
-0.100769
-0.10095
-0.0961312
-0.046267
0.00364253
0.133529
0.273394
0.518281
0.76319
1.02814
1.27314
1.15314
0.968145
0.318122
-0.286923
-0.671923
-0.966878
-0.931878
-0.856923
-0.676968
-0.512014
-0.382059
-0.257127
-0.15724
-0.0823756
-0.0574887
-0.0425566
-0.0425792
-0.0426244
-0.0377149
-0.0327828
-0.0328281
-0.0328733
-0.0279412
-0.0230317
-0.0180769
-0.0180996
-0.0280996
-0.0181448
0.00176471
0.00669684
0.00665158
0.00658371
0.00649322
0.00649322
0.0115837
0.016629
0.021629
0.026629
0.036629
0.0416516
0.0466968
0.0467195
0.0467195
0.0567195
0.0667195
0.0717195
0.0767195
0.0767421
0.0767873
0.0918326
0.106878
0.111946
0.122014
0.137036
0.147081
0.152195
0.157308
0.167376
0.182398
0.207421
0.227466
0.247511
0.262579
0.277692
0.297828
0.317919
0.338122
0.353348
0.368665
0.394072
0.409548
0.425091
0.435656
0.446244
0.461833
0.477421
0.488054
0.49871
0.504231
0.504615
0.479864
0.465
0.435091
0.405136
0.355226
0.310362
0.26543
0.21543
0.155339
0.100204
0.0700227
0.0397964
0.00957016
-0.0206561
-0.0458597
-0.0710633
-0.0862669
-0.0964027
-0.101471
-0.106516
-0.121561
-0.126606
-0.126629
-0.126403
-0.130928
-0.134887
-0.133235
-0.130498
-0.131674
-0.131629
-0.125452
-0.119864
-0.110158
-0.103348
-0.109231
-0.116878
-0.115882
-0.114706
-0.118167
-0.120814
-0.122715
-0.124027
-0.124774
-0.12009
-0.11509
-0.119977
-0.124819
-0.114706
-0.104593
-0.109412
-0.114185
-0.113982
-0.113801
-0.113597
-0.113371
-0.1181
-0.122828
-0.112624
-0.102398
-0.107104
-0.111765
-0.106403
-0.101063
-0.105747
-0.110407
-0.110023
-0.109638
-0.109253
-0.108869
-0.113462
-0.117986
-0.117443
-0.116923
-0.111425
-0.105882
-0.105294
-0.104706
-0.10414
-0.103643
-0.09819
-0.0926697
-0.0971493
-0.101719
-0.101312
-0.105928
-0.11052
-0.105068
-0.0996154
-0.0941855
-0.0887104
-0.0881448
-0.0873982
-0.0864253
-0.0852715
-0.0789367
-0.0724661
-0.0758597
-0.0791629
-0.072466
-0.0656335
-0.0636199
-0.0614253
-0.0640498
-0.066629
-0.0591629
-0.0516516
-0.049095
-0.0464932
-0.0438462
-0.0412443
-0.0337104
-0.0262896
-0.0239367
-0.0217421
-0.0197285
-0.0180317
-0.0166969
-0.0157919
-0.0206788
-0.0267648
-0.0240498
-0.0224435
-0.0220589
-0.0229412
-0.0284616
-0.0275792
-0.0241403
-0.027534
-0.0295928
-0.0260181
-0.0227376
-0.0201132
-0.0181675
-0.0219231
-0.0262896
-0.0212896
-0.0165838
-0.0121041
-0.00769234
-0.0132579
-0.0189819
-0.00970589
-0.000429854
-0.0111312
-0.02181
-0.0175113
-0.0132579
-0.0190045
-0.0247285
-0.0254525
-0.0262217
-0.0270362
-0.0278507
-0.0236878
-0.0195701
-0.0204751
-0.0163801
-0.00728505
-0.00819003
-0.019095
-0.0250226
-0.0209728
-0.0169231
-0.0178733
-0.0188462
-0.0248642
-0.0259502
-0.0220815
-0.01819
-0.014276
-0.0203846
-0.0265611
-0.0227828
-0.0190045
-0.0252489
-0.0315611
-0.0279412
-0.0243439
-0.0207692
-0.0172624
-0.0288462
-0.0405204
-0.0372398
-0.0340498
-0.0359276
-0.0378507
-0.0348416
-0.0269231
-0.014095
-0.00633483
-0.0086199
0.00402717
0.0265611
0.0390045
0.0563801
0.0586426
0.0508145
0.0529412
0.0650453
0.0671267
0.0691855
0.0462443
0.0133032
-0.014638
-0.0425566
-0.0553846
-0.0680543
-0.0705882
-0.0579638
-0.0750905
-0.0919683
-0.118575
-0.144977
-0.146222
-0.147308
-0.14319
-0.138891
-0.139412
-0.139864
-0.125249
-0.110543
-0.110724
-0.110837
-0.105882
-0.095905
-0.075905
-0.040905
0.00909504
0.134118
0.33914
0.549118
0.764095
1.00414
1.25425
1.14437
0.809457
0.219615
-0.495158
-0.799977
-0.944842
-0.884729
-0.754638
-0.609525
-0.454389
-0.319276
-0.184186
-0.124095
-0.0740045
-0.0588914
-0.0687557
-0.0386652
-0.0386199
-0.0385294
-0.0383937
-0.0383032
-0.0382579
-0.03319
-0.0280769
-0.0279412
-0.0278281
-0.0177602
-0.00771493
-0.00766968
-0.00262444
0.0124434
0.0225566
0.0176471
0.0127602
0.0229186
0.0330995
0.0332579
0.0333936
0.033552
0.0337556
0.0389819
0.0491855
0.0593439
0.0645249
0.0697511
0.075
0.0752715
0.0854977
0.100679
0.105882
0.106109
0.116335
0.131561
0.13681
0.142081
0.157376
0.172692
0.187964
0.19819
0.218416
0.238643
0.253891
0.269163
0.289434
0.309728
0.32509
0.340498
0.360905
0.38138
0.396968
0.412624
0.433394
0.449208
0.465
0.475814
0.486697
0.497602
0.498529
0.499344
0.5
0.495543
0.480973
0.451357
0.416697
0.377059
0.327511
0.277873
0.218145
0.17328
0.13328
0.0933031
0.0533483
0.0184162
-0.0214933
-0.0364254
-0.0513802
-0.0712444
-0.0910182
-0.100792
-0.115566
-0.120317
-0.125023
-0.124638
-0.124095
-0.128326
-0.131991
-0.124729
-0.116516
-0.122353
-0.127127
-0.115769
-0.10491
-0.110566
-0.118891
-0.115452
-0.113394
-0.111991
-0.110294
-0.117986
-0.125045
-0.126425
-0.127217
-0.122421
-0.11733
-0.116991
-0.116629
-0.111358
-0.105928
-0.105475
-0.105068
-0.104706
-0.104344
-0.103982
-0.108643
-0.118371
-0.118213
-0.108145
-0.1031
-0.103032
-0.102919
-0.102806
-0.107715
-0.102624
-0.102579
-0.102489
-0.107217
-0.111765
-0.111177
-0.11052
-0.114819
-0.119118
-0.113439
-0.107692
-0.111833
-0.115882
-0.114955
-0.113824
-0.107647
-0.101471
-0.100272
-0.0990498
-0.102828
-0.106584
-0.105294
-0.103982
-0.102647
-0.10129
-0.0999095
-0.0985294
-0.0922172
-0.0859955
-0.0900453
-0.0946833
-0.09
-0.0861312
-0.0881675
-0.0912217
-0.0944797
-0.0971267
-0.0979865
-0.0961765
-0.0973982
-0.0970815
-0.0911765
-0.0852037
-0.0796154
-0.0746154
-0.0701584
-0.0613122
-0.0529186
-0.0499548
-0.047172
-0.0445702
-0.0421267
-0.0448643
-0.0478055
-0.0409503
-0.0343666
-0.0281222
-0.0221041
-0.0262897
-0.0306562
-0.0302037
-0.0299322
-0.0248644
-0.0198644
-0.0249322
-0.0301132
-0.0304073
-0.0307693
-0.0312218
-0.0316743
-0.0321494
-0.0326924
-0.0332806
-0.0339141
-0.0345928
-0.0352489
-0.0308824
-0.0265838
-0.027353
-0.0281222
-0.0288915
-0.0297286
-0.0306562
-0.0316064
-0.0325566
-0.0384842
-0.0444344
-0.0404751
-0.0365837
-0.0327376
-0.0289141
-0.0350905
-0.0413349
-0.0326697
-0.0240724
-0.0305204
-0.0370362
-0.0286652
-0.0203846
-0.0221946
-0.0240724
-0.0160181
0.00192306
0.0247285
0.042466
0.055181
0.0578733
0.0454977
0.0480317
0.0654977
0.0728959
0.0752715
0.0576471
0.0250226
-0.0075792
-0.0401131
-0.057534
-0.069819
-0.0719231
-0.0638688
-0.0705656
-0.0870136
-0.103235
-0.0942534
-0.135091
-0.145747
-0.136199
-0.126493
-0.126674
-0.126742
-0.121742
-0.116719
-0.116652
-0.116561
-0.106471
-0.0963575
-0.0811991
-0.0560181
-0.0158145
0.0643891
0.209593
0.374774
0.574977
0.795249
1.03557
1.09586
0.981131
0.606425
0.0317421
-0.387941
-0.707647
-0.822398
-0.822172
-0.726946
-0.58672
-0.456516
-0.321335
-0.221131
-0.125905
-0.0906787
-0.0654525
-0.0602489
-0.0550679
-0.0499095
-0.0547738
-0.0445928
-0.0293665
-0.0241403
-0.0188914
-0.0186199
-0.0183937
-0.0132353
-0.00807692
-0.00785068
-0.00757918
-0.00233031
0.00289593
0.00812218
0.0133484
0.00857467
0.00880092
0.0240272
0.034276
0.0395475
0.044819
0.0450905
0.0453168
0.0505204
0.0557919
0.0611086
0.0664027
0.0716742
0.0819457
0.0922172
0.097534
0.097896
0.10819
0.123416
0.133688
0.144005
0.149344
0.154706
0.175023
0.195294
0.210611
0.225973
0.246312
0.271629
0.291968
0.31233
0.327715
0.343122
0.363575
0.384118
0.399796
0.415588
0.426448
0.44233
0.463145
0.478959
0.489864
0.500814
0.501787
0.502692
0.493462
0.474072
0.449525
0.41991
0.375249
0.335566
0.285905
0.236267
0.181606
0.131855
0.0921267
0.0522172
0.0122625
-0.0176923
-0.042647
-0.0675792
-0.0874887
-0.0973529
-0.107172
-0.112014
-0.1119
-0.116787
-0.126652
-0.131448
-0.131176
-0.125814
-0.130158
-0.128891
-0.126946
-0.134208
-0.140498
-0.130679
-0.120588
-0.121063
-0.123303
-0.123213
-0.124932
-0.122964
-0.121357
-0.124887
-0.12767
-0.124819
-0.12138
-0.12233
-0.12276
-0.122692
-0.122398
-0.116923
-0.11138
-0.110769
-0.110181
-0.114661
-0.119095
-0.113462
-0.112828
-0.122195
-0.116606
-0.101063
-0.10052
-0.11
-0.114547
-0.114253
-0.114208
-0.114706
-0.116018
-0.118348
-0.121855
-0.126493
-0.137172
-0.146991
-0.150113
-0.150724
-0.138575
-0.125249
-0.131109
-0.136946
-0.127919
-0.119434
-0.116561
-0.114163
-0.122217
-0.130747
-0.119751
-0.108824
-0.112941
-0.117036
-0.116109
-0.115181
-0.109253
-0.103235
-0.102127
-0.100973
-0.0997737
-0.0985068
-0.0921493
-0.0856787
-0.089095
-0.0924887
-0.0908597
-0.0891855
-0.092466
-0.0956561
-0.0937556
-0.0918326
-0.0848869
-0.0778959
-0.0758597
-0.0738009
-0.0717194
-0.0696606
-0.0676244
-0.0606335
-0.053733
-0.0519683
-0.050362
-0.0439819
-0.0378054
-0.0468778
-0.0562443
-0.0509276
-0.0458597
-0.0459955
-0.0463575
-0.0369683
-0.0277828
-0.0337783
-0.0399095
-0.0461539
-0.0525339
-0.0490498
-0.0406787
-0.0323982
-0.0292082
-0.0311539
-0.0232579
-0.0054751
0.00728508
0.0149548
0.0275113
0.0499774
0.052353
0.044638
0.0419231
0.0491855
0.0613575
0.0734616
0.050543
0.0176244
-0.0202263
0.00699095
-0.0657466
-0.0683484
-0.0707466
-0.0729185
-0.0898869
-0.106606
-0.123077
-0.139299
-0.150271
-0.161063
-0.151719
-0.14224
-0.142647
-0.142986
-0.138371
-0.133529
-0.123688
-0.113778
-0.108756
-0.0986878
-0.0836199
-0.0485973
0.0114027
0.136471
0.321606
0.551719
0.80681
1.0569
1.30199
1.12208
0.752172
0.202217
-0.407783
-0.667715
-0.842579
-0.842489
-0.807443
-0.682398
-0.542353
-0.427285
-0.317195
-0.207172
-0.102217
-0.0772398
-0.0522398
-0.0472398
-0.0422625
-0.0373303
-0.0324208
-0.0324661
-0.0324661
-0.0274887
-0.0225339
-0.0175566
-0.0125566
-0.0175339
-0.0225113
-0.0125339
-0.00257918
0.00737557
0.0173756
0.0123982
0.00735295
0.0122624
0.0221946
0.032172
0.037172
0.042172
0.047172
0.052172
0.057172
0.057172
0.057172
0.062172
0.0672172
0.0723077
0.0774208
0.0825566
0.0976244
0.112624
0.117647
0.122692
0.132738
0.147783
0.162851
0.177986
0.183167
0.188326
0.208416
0.228462
0.248529
0.268643
0.283801
0.303982
0.334163
0.359389
0.369729
0.385158
0.410588
0.431063
0.441629
0.45224
0.457851
0.468439
0.48405
0.494729
0.500475
0.501154
0.491719
0.482104
0.472602
0.442783
0.402964
0.358145
0.313326
0.258394
0.203348
0.148235
0.0980317
0.0626697
0.032172
0.00160634
-0.0289819
-0.0495928
-0.0352262
-0.0858371
-0.0964706
-0.107127
-0.11776
-0.128348
-0.138756
-0.133937
-0.128824
-0.143281
-0.157149
-0.150204
-0.142262
-0.138213
-0.132964
-0.131697
-0.130973
-0.116878
-0.105249
-0.111357
-0.118643
-0.121719
-0.124842
-0.122851
-0.120317
-0.127172
-0.133552
-0.12948
-0.124887
-0.119819
-0.114728
-0.119683
-0.119932
-0.110747
-0.107534
-0.115339
-0.124231
-0.124186
-0.125158
-0.135498
-0.143824
-0.144547
-0.137308
-0.128688
-0.124434
-0.120271
-0.126516
-0.133371
-0.120928
-0.10914
-0.112919
-0.117036
-0.116471
-0.11595
-0.115452
-0.114955
-0.114457
-0.113937
-0.108394
-0.102896
-0.112421
-0.1219
-0.121335
-0.120814
-0.115339
-0.109796
-0.109185
-0.108575
-0.107964
-0.107308
-0.101584
-0.105792
-0.119932
-0.119095
-0.108281
-0.102376
-0.10138
-0.100317
-0.0991855
-0.098009
-0.0967873
-0.0954751
-0.0990724
-0.102647
-0.0911991
-0.0846832
-0.0780995
-0.0814479
-0.0847737
-0.0781448
-0.0715384
-0.0699321
-0.0683032
-0.0716742
-0.0751131
-0.0686652
-0.0623304
-0.0611086
-0.0600905
-0.0593439
-0.0588915
-0.0487331
-0.0388688
-0.0392987
-0.0350905
-0.0112218
0.00739814
0.0307918
0.0440045
0.0470135
0.049819
0.0476018
0.0551357
0.0675791
0.0699095
0.0621493
0.0293439
-0.00848419
-0.0412217
-0.0788462
-0.0864254
-0.0839141
-0.0761539
-0.0681222
-0.0847738
-0.0661991
-0.127466
-0.138552
-0.144344
-0.149932
-0.150407
-0.150792
-0.141086
-0.131267
-0.126312
-0.121312
-0.111312
-0.101312
-0.106267
-0.106154
-0.0860407
-0.0508145
0.0193892
0.149593
0.369842
0.600136
0.84043
1.0757
1.306
1.17133
0.731674
0.161968
-0.49776
-0.807466
-0.937149
-0.906833
-0.806516
-0.661267
-0.511086
-0.37086
-0.240588
-0.155362
-0.075181
-0.06
-0.049819
-0.0446154
-0.0394118
-0.0392534
-0.0441176
-0.0339593
-0.0237783
-0.0286199
-0.0334842
-0.018371
-0.00328054
-0.00316742
-0.00303167
0.00210407
0.00723983
0.00737558
0.00751133
0.00769231
0.00787331
0.0179864
0.0280995
0.0282579
0.0284389
0.0336199
0.0387783
0.043914
0.0540724
0.0642534
0.0694344
0.0745927
0.0847059
0.0948416
0.10009
0.0954072
0.100656
0.115837
0.131041
0.146267
0.151493
0.156719
0.171923
0.187104
0.202308
0.217534
0.23276
0.252986
0.273213
0.293439
0.303733
0.314095
0.339434
0.364774
0.385204
0.405724
0.416403
0.432127
0.457805
0.478507
0.484253
0.495068
0.510905
0.521787
0.52267
0.518439
0.504072
0.484547
0.459842
0.42509
0.375339
0.320656
0.251041
0.20129
0.161561
0.116606
0.0616516
0.0266516
-0.00339367
-0.0284163
-0.0484163
-0.0733484
-0.0982127
-0.103077
-0.107941
-0.112783
-0.117602
-0.127421
-0.122217
-0.141946
-0.141538
-0.140814
-0.139502
-0.142217
-0.143914
-0.139525
-0.13405
-0.132489
-0.131516
-0.122557
-0.116199
-0.117828
-0.12086
-0.12448
-0.128009
-0.126131
-0.123575
-0.125317
-0.126448
-0.122014
-0.117172
-0.116946
-0.116652
-0.121312
-0.121018
-0.110769
-0.105543
-0.105385
-0.105249
-0.110136
-0.115181
-0.110317
-0.105385
-0.105385
-0.105452
-0.105566
-0.105701
-0.105769
-0.105701
-0.110498
-0.115158
-0.114728
-0.114208
-0.11362
-0.113032
-0.112443
-0.106855
-0.101176
-0.105317
-0.109366
-0.108326
-0.10724
-0.101131
-0.0949773
-0.113801
-0.12267
-0.111606
-0.100543
-0.0994344
-0.0982805
-0.0970814
-0.0958597
-0.094638
-0.0935973
-0.0927601
-0.0923077
-0.0924434
-0.0936199
-0.0958371
-0.0991176
-0.108009
-0.116697
-0.11405
-0.108371
-0.100136
-0.0949321
-0.0987556
-0.0876697
-0.0670136
-0.0620588
-0.0676923
-0.0688688
-0.0555204
-0.0576018
-0.0598416
-0.0621493
-0.0645475
-0.0570815
-0.0497285
-0.0424887
-0.0354072
-0.0385294
-0.0419004
-0.0256335
-0.00961538
-0.0188009
-0.0282127
-0.0228733
-0.0177149
-0.0227149
-0.0278507
-0.0330995
-0.0385068
-0.0340724
-0.0296832
-0.0253394
-0.0209728
-0.0265837
-0.0323077
-0.028077
-0.0239367
-0.0247964
-0.0257014
-0.0216516
-0.0176471
-0.0186878
-0.0247512
-0.0358371
-0.0419683
-0.0381674
-0.0344118
-0.0356788
-0.0369684
-0.0383032
-0.0297059
-0.0211539
-0.0276018
-0.034095
-0.0306561
-0.0273077
-0.0340272
-0.0407692
-0.0425566
-0.044457
-0.0314932
-0.0186199
-0.0157919
-0.00803166
0.0047964
0.017353
0.0447964
0.057172
0.0545249
0.0518326
0.0640724
0.071267
0.0784163
0.0655657
0.032715
-0.000135697
-0.0329864
-0.0557692
-0.0684389
-0.0759502
-0.0782805
-0.0804298
-0.0773755
-0.0940724
-0.13052
-0.141742
-0.152783
-0.158643
-0.159344
-0.159887
-0.155294
-0.140701
-0.131086
-0.12638
-0.121561
-0.116674
-0.111765
-0.111878
-0.106991
-0.0520588
0.00789594
0.107851
0.252805
0.49776
0.747715
1.00269
1.15767
1.1226
0.837511
0.192443
-0.347579
-0.762557
-0.957557
-0.927624
-0.81767
-0.637647
-0.487624
-0.362647
-0.247715
-0.13776
-0.0928054
-0.0778507
-0.0629638
-0.0481448
-0.0432805
-0.043371
-0.0434389
-0.0485068
-0.0486425
-0.0388235
-0.033914
-0.028914
-0.0239592
-0.0240498
-0.0191403
-0.0142081
-0.00925338
-0.00429864
0.00561086
0.0154751
0.020362
0.0252715
0.0152036
0.00515838
0.0200905
0.035
0.0349321
0.0348869
0.0448416
0.0547964
0.0597738
0.0647964
0.0698416
0.0748416
0.0797738
0.0896833
0.104615
0.114593
0.119593
0.129548
0.144457
0.154434
0.15948
0.17448
0.189434
0.209412
0.229412
0.239412
0.249412
0.274412
0.299412
0.319457
0.339548
0.359661
0.344819
0.405023
0.425272
0.435679
0.446176
0.461674
0.477172
0.487715
0.498281
0.498914
0.499525
0.499977
0.495272
0.475407
0.45043
0.415407
0.375385
0.335339
0.290317
0.240339
0.190271
0.135023
0.0897285
0.0493891
0.0140498
-0.016267
-0.0416063
-0.0619457
-0.0772172
-0.0874434
-0.102647
-0.117828
-0.123032
-0.118258
-0.118439
-0.128552
-0.133439
-0.133077
-0.132262
-0.130792
-0.12819
-0.129434
-0.124548
-0.113982
-0.108597
-0.104525
-0.108348
-0.114615
-0.112805
-0.1119
-0.115837
-0.119253
-0.121878
-0.123846
-0.120226
-0.116063
-0.12138
-0.126493
-0.116561
-0.106561
-0.111493
-0.116403
-0.116312
-0.111244
-0.101222
-0.0961991
-0.101131
-0.106041
-0.105928
-0.105792
-0.100656
-0.100475
-0.110249
-0.115045
-0.109864
-0.104615
-0.104299
-0.103959
-0.10362
-0.103371
-0.10319
-0.102964
-0.102692
-0.102443
-0.102262
-0.102127
-0.102014
-0.106923
-0.111833
-0.106742
-0.101697
-0.101697
-0.101674
-0.106584
-0.11138
-0.101063
-0.0905204
-0.0947285
-0.0988688
-0.0929864
-0.0870815
-0.0861539
-0.0850453
-0.0887557
-0.092353
-0.0908371
-0.0891855
-0.0823982
-0.0754978
-0.0734842
-0.0714253
-0.0644796
-0.0572851
-0.0600226
-0.0627602
-0.0604978
-0.0581448
-0.0507692
-0.0435068
-0.0463801
-0.049457
-0.0430769
-0.0374887
-0.0328507
-0.0292986
-0.031991
-0.0410407
-0.0397059
-0.0471041
-0.051991
-0.043914
-0.0347285
-0.0300226
-0.0258597
-0.0275113
-0.03
-0.0233258
-0.0173303
-0.0169683
-0.0169457
-0.0167421
-0.0171493
-0.00766966
0.00178734
-0.00873301
-0.0192534
-0.014819
-0.0104525
-0.0111312
-0.0117873
-0.0174208
-0.0230995
-0.0188461
-0.0146153
-0.0103846
-0.00615381
-0.011923
-0.0127602
-0.00366513
0.000452526
-0.00540719
-0.0112895
-0.00719453
-0.00312214
-0.00907236
-0.015
-0.0209276
-0.0219231
-0.0179638
-0.0189819
-0.0199774
-0.0209728
-0.0220136
-0.0181222
-0.0142534
-0.0153846
-0.0165158
-0.0176923
-0.0189366
-0.0202263
-0.0215385
-0.0278507
-0.0342308
-0.0257014
-0.0172625
-0.0238688
-0.0305204
-0.0322398
-0.0290724
-0.0210181
-0.0180091
-0.0150453
-0.012172
-0.00941177
0.00323527
0.0207918
0.0333031
0.0407466
0.0430543
0.0452488
0.0574208
0.0695701
0.0716742
0.068733
0.0507692
0.0278054
-0.0150679
-0.0578055
-0.0654525
-0.0679638
-0.0602715
-0.0523304
-0.0741629
-0.0957919
-0.11224
-0.128462
-0.134457
-0.140294
-0.145973
-0.151493
-0.141878
-0.132195
-0.127421
-0.122534
-0.112557
-0.102579
-0.107579
-0.0976018
-0.0626245
-0.0226244
0.0223529
0.14233
0.317353
0.522398
0.742466
0.992579
1.25771
1.13283
0.812964
0.213077
-0.491833
-0.786697
-0.956516
-0.881335
-0.741154
-0.591018
-0.43595
-0.310905
-0.19086
-0.130792
-0.180701
-0.0606335
-0.0505882
-0.0504751
-0.0502941
-0.050181
-0.0501358
-0.0400679
-0.0299774
-0.0348869
-0.0397964
-0.0297285
-0.0196833
-0.0145928
-0.00945702
-0.00929865
-0.0091629
0.000904973
0.0109955
0.0111538
0.0113348
0.0164932
0.021629
0.0267873
0.0320136
0.0322624
0.0374661
0.0476244
0.0527602
0.0578959
0.0630543
0.0582353
0.063371
0.0784615
0.0885973
0.0987783
0.103959
0.10914
0.119344
0.12957
0.134796
0.140023
0.155204
0.165339
0.180498
0.195701
0.210928
0.226154
0.251357
0.276561
0.286833
0.297127
0.317398
0.34267
0.367986
0.388394
0.398914
0.414502
0.440113
0.460747
0.471403
0.482149
0.492986
0.503801
0.50457
0.500271
0.490882
0.471312
0.446561
0.411787
0.372014
0.322308
0.27267
0.227919
0.183054
0.1281
0.0780543
0.0430091
0.0129638
-0.0171267
-0.0472624
-0.0623303
-0.0773303
-0.0972851
-0.122217
-0.127149
-0.132059
-0.126968
-0.12181
-0.121516
-0.121063
-0.125407
-0.129208
-0.127217
-0.124299
-0.125407
-0.125407
-0.119186
-0.113507
-0.109321
-0.107851
-0.11457
-0.122557
-0.126244
-0.129661
-0.127511
-0.119706
-0.111222
-0.107149
-0.112511
-0.117647
-0.113054
-0.107873
-0.112602
-0.117353
-0.112127
-0.106878
-0.106606
-0.10629
-0.105928
-0.105588
-0.105272
-0.104932
-0.10957
-0.114186
-0.113801
-0.103462
-0.0931448
-0.0978054
-0.102443
-0.102081
-0.101787
-0.101561
-0.101335
-0.111109
-0.120928
-0.115815
-0.110701
-0.10552
-0.100385
-0.105136
-0.110068
-0.1
-0.0897059
-0.0941403
-0.0984616
-0.0976697
-0.0969005
-0.101154
-0.105294
-0.104321
-0.103258
-0.0971041
-0.0908371
-0.0844797
-0.0830317
-0.0914932
-0.0949322
-0.0883484
-0.0816742
-0.0849095
-0.0831674
-0.0714027
-0.0645475
-0.0675792
-0.0704751
-0.0733484
-0.0713801
-0.0646607
-0.0632127
-0.0624887
-0.0676923
-0.0739819
-0.0664027
-0.0592308
-0.0623529
-0.0634841
-0.0621945
-0.0588688
-0.0535746
-0.0480769
-0.0475113
-0.0477375
-0.0387783
-0.0305882
-0.0231448
-0.0165158
-0.0206335
-0.0251131
-0.0199095
-0.0148643
-0.0199774
-0.025181
-0.0304751
-0.0308371
-0.0212896
-0.0167873
-0.0223303
-0.0278959
-0.0234841
-0.0191176
-0.0197963
-0.0204977
-0.0212217
-0.0219457
-0.0176696
-0.0134163
-0.0192081
-0.0250452
-0.0159049
-0.0167873
-0.0176923
-0.0336425
-0.049638
-0.0356335
-0.0216516
-0.0176923
-0.0137556
-0.0198416
-0.0259276
-0.0170136
-0.00812217
-0.0192534
-0.0303846
-0.0265384
-0.0227828
-0.0290724
-0.035362
-0.0366742
-0.0380317
-0.0394344
-0.0409276
-0.0375113
-0.0341176
-0.0357919
-0.0325792
-0.0244344
-0.0213122
-0.0182353
-0.0152941
-0.0175113
-0.00484164
0.0127375
0.0152262
0.0176471
0.0299548
0.042172
0.0443439
0.0364932
0.0486651
0.0258371
0.0679185
0.0599321
0.0120135
-0.0358145
-0.0536199
-0.0713122
-0.0638462
-0.0561539
-0.073258
-0.0901358
-0.106765
-0.123167
-0.134344
-0.145317
-0.151425
-0.157059
-0.147624
-0.138145
-0.133575
-0.128869
-0.114072
-0.109231
-0.109299
-0.109299
-0.114276
-0.0992987
-0.0543665
0.0155656
0.10052
0.28052
0.495566
0.745566
1.00552
1.10554
1.17063
0.725724
0.180814
-0.289095
-0.749005
-0.828914
-0.883824
-0.758756
-0.628733
-0.503733
-0.383733
-0.258688
-0.14362
-0.0986199
-0.0586652
-0.0536652
-0.0486199
-0.0436199
-0.0386652
-0.043733
-0.0488009
-0.0438235
-0.0388235
-0.0288462
-0.018914
-0.0089819
0.0010181
0.00106335
0.00106335
0.0010181
0.000972857
0.00095023
0.00595023
0.0159276
0.0208824
0.0258824
0.0309276
0.0360181
0.0410181
0.0409276
0.045905
0.0559502
0.0710407
0.0861765
0.091267
0.0863122
0.0864027
0.0965385
0.101629
0.101674
0.116742
0.131833
0.136923
0.142014
0.152081
0.162127
0.182149
0.202149
0.207195
0.217285
0.237353
0.252421
0.267557
0.287738
0.312941
0.343122
0.368258
0.388507
0.408891
0.424276
0.439661
0.450113
0.465634
0.476177
0.476697
0.482262
0.497715
0.508394
0.504072
0.494502
0.484683
0.454819
0.41991
0.370068
0.320294
0.265453
0.210543
0.160543
0.115452
0.0753394
0.110181
0.00493214
-0.020362
-0.0355656
-0.0507013
-0.0758371
-0.100973
-0.111041
-0.121086
-0.131109
-0.141109
-0.136154
-0.131154
-0.13095
-0.13043
-0.139525
-0.147828
-0.140181
-0.131403
-0.131448
-0.131041
-0.125339
-0.121674
-0.120498
-0.121403
-0.124344
-0.12767
-0.131267
-0.129321
-0.12181
-0.118733
-0.125113
-0.125973
-0.116357
-0.111538
-0.116538
-0.121584
-0.116674
-0.111833
-0.112036
-0.112308
-0.112624
-0.112919
-0.113235
-0.108597
-0.103959
-0.114276
-0.12448
-0.114593
-0.10457
-0.104389
-0.104163
-0.103914
-0.103665
-0.103439
-0.103145
-0.112738
-0.122195
-0.116538
-0.110837
-0.110113
-0.109344
-0.113507
-0.117647
-0.111765
-0.105882
-0.105045
-0.104276
-0.103529
-0.10276
-0.101991
-0.101131
-0.105271
-0.109638
-0.104276
-0.0992534
-0.0948643
-0.0914706
-0.099095
-0.107805
-0.107195
-0.106878
-0.115045
-0.120385
-0.118235
-0.103733
-0.0883032
-0.0925792
-0.0972624
-0.0875792
-0.0784616
-0.0748416
-0.0717195
-0.0690724
-0.0666063
-0.0593213
-0.0520362
-0.0547059
-0.0573756
-0.0451358
-0.0329186
-0.035724
-0.0386426
-0.0416969
-0.0450226
-0.0436199
-0.0425113
-0.0366968
-0.031086
-0.0356561
-0.0354751
-0.0202036
-0.0154072
-0.025724
-0.0311312
-0.026629
-0.0222625
-0.0230317
-0.0238235
-0.029638
-0.0355204
-0.0314932
-0.0274887
-0.0284842
-0.0295023
-0.030543
-0.0266516
-0.0228507
-0.0240724
-0.0253168
-0.026629
-0.0279865
-0.0243666
-0.0207693
-0.032172
-0.0436426
-0.0402036
-0.0368326
-0.0335294
-0.0302489
-0.0319005
-0.0337104
-0.0256335
-0.0176245
-0.019638
-0.0217195
-0.00891405
0.00371039
0.0212443
0.0337556
0.0412217
0.0435746
0.0408597
0.0480995
0.0652715
0.0723982
0.0695023
0.0515158
0.0284389
-0.00454753
-0.0424208
-0.055181
-0.0628055
-0.0602489
-0.0474887
-0.0595249
-0.0813349
-0.107919
-0.129321
-0.135475
-0.141403
-0.147149
-0.152738
-0.143213
-0.133575
-0.128801
-0.123959
-0.109072
-0.0941403
-0.0941629
-0.0941629
-0.0991629
-0.0841403
-0.0291177
0.0358597
0.120837
0.270882
0.510995
0.756109
1.00118
1.16127
1.24643
0.926584
0.316697
-0.213213
-0.708122
-0.882964
-0.922738
-0.812579
-0.652489
-0.512376
-0.38724
-0.267104
-0.146991
-0.0969231
-0.0568778
-0.0517873
-0.0466516
-0.0365385
-0.021448
-0.0263348
-0.0311765
-0.0359955
-0.0408371
-0.0307466
-0.0207014
-0.0106561
-0.000610851
-0.00552035
-0.0104072
0.00463802
0.0196607
0.0197738
0.0199321
0.0250453
0.0301584
0.0353168
0.0405204
0.0357466
0.0309502
0.0361086
0.0462217
0.0563349
0.0614932
0.0666742
0.0718326
0.0769683
0.0871494
0.0973756
0.107602
0.117828
0.123054
0.128281
0.133552
0.133869
0.14914
0.169367
0.184593
0.199819
0.210091
0.205385
0.245634
0.26586
0.281154
0.296516
0.316855
0.337172
0.372579
0.398077
0.408688
0.419367
0.445045
0.460724
0.471425
0.487195
0.503054
0.513937
0.524796
0.535588
0.52629
0.511855
0.487263
0.457624
0.417964
0.373348
0.328824
0.279231
0.219525
0.169706
0.119796
0.0748643
0.0349095
-9.04589e-05
-0.0301357
-0.0601357
-0.0850905
-0.0950226
-0.104932
-0.114774
-0.124547
-0.129321
-0.129095
-0.133891
-0.13862
-0.133122
-0.127353
-0.136176
-0.144321
-0.136425
-0.127421
-0.132262
-0.136357
-0.12509
-0.115294
-0.113258
-0.11362
-0.121222
-0.129593
-0.128122
-0.126176
-0.128529
-0.130226
-0.131335
-0.126923
-0.116991
-0.111833
-0.116493
-0.121131
-0.120747
-0.120317
-0.114819
-0.114344
-0.123891
-0.123484
-0.113122
-0.107692
-0.107195
-0.106652
-0.111063
-0.110498
-0.0999547
-0.0943665
-0.098733
-0.103077
-0.102421
-0.106787
-0.111131
-0.115407
-0.119638
-0.113914
-0.108235
-0.102534
-0.0967873
-0.100995
-0.105181
-0.0993665
-0.093552
-0.0976923
-0.101765
-0.100792
-0.0997737
-0.0987104
-0.0976244
-0.101516
-0.105385
-0.104253
-0.103054
-0.0967647
-0.0904072
-0.0939819
-0.0925339
-0.0811312
-0.0745475
-0.0778733
-0.0811312
-0.0743212
-0.0673982
-0.070362
-0.0732127
-0.0759955
-0.0737557
-0.0615159
-0.0542082
-0.0569005
-0.059638
-0.0573982
-0.0501811
-0.0429639
-0.0406789
-0.0383259
-0.0360408
-0.0338915
-0.0319232
-0.0300227
-0.0331902
-0.0364028
-0.0296607
-0.0230996
-0.0217648
-0.0206336
-0.0197286
-0.0190499
-0.0135747
-0.00816751
-0.00780552
-0.0075114
-0.00726253
-0.00703629
-0.00683267
-0.00669692
-0.00662906
-0.00662906
-0.0066743
-0.00676481
-0.00190056
0.00298631
-0.00210419
-0.00226257
0.00744332
0.00694557
-0.00382366
-0.0100228
-0.00703634
-0.00513589
-0.00934403
-0.0146834
-0.0204979
-0.0314029
-0.0404752
-0.0366065
-0.03043
-0.03224
-0.03362
-0.0251359
-0.0172852
-0.0151811
-0.0136653
-0.0127603
-0.0123757
-0.0124662
-0.0126698
-0.0129413
-0.0132807
-0.00871052
-0.004163
-0.00959285
-0.0149549
-0.0152716
-0.0156562
-0.0161313
-0.0166064
-0.0120363
-0.00746613
-0.0129412
-0.0134616
-0.00400459
-0.0045702
-0.0151584
-0.0207919
-0.0164706
-0.0121493
-0.0128281
-0.0134842
-0.0141403
-0.0148643
-0.0106335
-0.00640275
-0.012172
-0.0179638
-0.0188009
-0.0196833
-0.0205882
-0.0214706
-0.0223756
-0.023371
-0.0244118
-0.0254751
-0.0265611
-0.0276471
-0.0287783
-0.025
-0.021267
-0.0225339
-0.0238461
-0.0252715
-0.0267647
-0.0332805
-0.039819
-0.0314253
-0.0231674
-0.0200452
-0.0120362
-0.00409499
0.00882356
0.0266516
0.0443213
0.0618778
0.0694118
0.0619005
0.0543213
0.0566968
0.0690272
0.0813122
0.0635747
0.0358145
-0.00196833
-0.0397738
-0.052534
-0.0651584
-0.0726244
-0.0749321
-0.0720815
-0.0689819
-0.0905883
-0.111923
-0.128032
-0.143914
-0.149593
-0.155113
-0.150475
-0.145747
-0.13595
-0.126063
-0.121086
-0.116063
-0.116041
-0.115905
-0.110792
-0.0906561
-0.0404525
0.0247963
0.110045
0.280271
0.52552
0.775814
1.02613
1.13145
1.14676
0.737059
0.0923303
-0.412398
-0.857127
-0.951878
-0.921652
-0.776403
-0.601131
-0.465882
-0.335656
-0.22543
-0.120204
-0.0949548
-0.0746833
-0.0594344
-0.0492081
-0.0439593
-0.0386878
-0.0484163
-0.0581448
-0.0428959
-0.0276697
-0.0274434
-0.0272172
-0.0219909
-0.0167647
-0.0115385
-0.00628959
-0.00599547
-0.00570135
-0.000452486
0.00475113
0.00995475
0.0152262
0.015543
0.0208371
0.0311086
0.0364027
0.0417421
0.0471041
0.0474434
0.0527376
0.0630091
0.0683258
0.0636878
0.0690272
0.0843439
0.0896606
0.0949774
0.100294
0.105611
0.120905
0.136176
0.146493
0.156855
0.172217
0.192579
0.202919
0.213258
0.22362
0.233959
0.259299
0.284661
0.310045
0.335475
0.345973
0.361561
0.392217
0.417941
0.428733
0.444548
0.460339
0.471109
0.4819
0.492783
0.498756
0.504638
0.505385
0.505973
0.501403
0.47681
0.442195
0.407511
0.372783
0.3181
0.258462
0.20371
0.153846
0.103914
0.058914
0.023914
-0.011086
-0.0310633
-0.0460181
-0.0659502
-0.0858597
-0.0957466
-0.0906108
-0.110498
-0.110407
-0.115271
-0.120023
-0.129547
-0.138778
-0.137647
-0.135747
-0.137692
-0.138484
-0.133167
-0.127398
-0.121584
-0.117647
-0.111629
-0.107919
-0.111244
-0.114977
-0.118552
-0.121448
-0.118529
-0.115023
-0.11595
-0.116357
-0.121267
-0.126109
-0.120905
-0.115611
-0.115249
-0.114864
-0.119457
-0.124118
-0.118846
-0.113507
-0.1131
-0.112692
-0.107285
-0.101833
-0.106335
-0.110814
-0.110271
-0.109728
-0.109186
-0.103643
-0.0980995
-0.107511
-0.1169
-0.111335
-0.105769
-0.110136
-0.114457
-0.113778
-0.1131
-0.107398
-0.101652
-0.11086
-0.120045
-0.114253
-0.108462
-0.107624
-0.106719
-0.105747
-0.104796
-0.0988688
-0.0928507
-0.0967421
-0.100611
-0.099457
-0.0982579
-0.091991
-0.0906335
-0.0992082
-0.0978054
-0.0864028
-0.0798869
-0.0782579
-0.0765611
-0.0798643
-0.0832579
-0.0766516
-0.0699321
-0.0631222
-0.0562443
-0.0543439
-0.0524887
-0.0505882
-0.0535746
-0.0564027
-0.0490724
-0.0416063
-0.0390498
-0.0364706
-0.038914
-0.0414706
-0.0292082
-0.0170588
-0.0199774
-0.0230769
-0.0163575
-0.00986427
-0.00857468
-0.00753397
-0.0117195
-0.016086
-0.0156335
-0.0153168
-0.0101131
-0.00502264
-0.00504528
-0.00511315
-0.000203654
0.004457
-0.00108601
-0.00692309
-0.00832582
-0.0107466
-0.00916293
-0.0135068
-0.0288009
-0.0400905
-0.0408371
-0.0395928
-0.0358597
-0.0292986
-0.0264027
-0.0180543
-0.00988686
-0.0122851
-0.0152715
-0.0188461
-0.023009
-0.0177376
-0.0127149
-0.0178959
-0.0231674
-0.0135294
-0.00395926
-0.00941175
-0.0148642
-0.0153167
-0.0157692
-0.0112443
-0.0067647
-0.00728506
-0.00780541
-0.00834841
-0.00891401
-0.0144796
-0.02
-0.0205204
-0.0211086
-0.0217421
-0.0223982
-0.0180769
-0.013733
-0.0193892
-0.0201584
-0.0110181
-0.00685523
-0.0126697
-0.0185747
-0.0145249
-0.0104525
-0.0163575
-0.0222399
-0.0231222
-0.0240951
-0.0251584
-0.0212444
-0.0173304
-0.0284164
-0.0395476
-0.0307467
-0.0220136
-0.0283258
-0.0346607
-0.0310634
-0.027534
-0.0240498
-0.0206109
-0.0321946
-0.0388914
-0.025724
-0.0176923
-0.0197512
-0.0218552
-0.0140272
0.00871036
0.0363348
0.0488461
0.0512896
0.0536878
0.0460407
0.053371
0.0756561
0.0729412
0.0552262
0.0274434
-0.00540726
-0.0332127
-0.0559503
-0.0636199
-0.0661765
-0.0685973
-0.0658371
-0.0778055
-0.0994797
-0.115928
-0.137149
-0.143122
-0.148846
-0.144367
-0.139751
-0.135068
-0.130294
-0.120407
-0.110453
-0.105407
-0.100317
-0.100226
-0.0901358
-0.055
-0.00981901
0.0503846
0.170566
0.385747
0.595973
0.801267
1.01156
1.22681
1.10201
0.662217
0.112443
-0.512308
-0.807014
-0.901697
-0.856358
-0.730995
-0.600679
-0.470407
-0.340113
-0.209796
-0.149502
-0.104231
-0.0840045
-0.0688235
-0.0585973
-0.0483258
-0.0430543
-0.0427828
-0.0425339
-0.0423077
-0.0370588
-0.0317873
-0.0265158
-0.0212443
-0.0159729
-0.0107014
-0.0154299
-0.0201584
-0.00988688
0.000384617
0.00563348
0.0108597
0.0111086
0.0163801
0.031629
0.0418778
0.0421719
0.0424887
0.0577828
0.0630543
0.0583484
0.0537104
0.054095
0.0594344
0.0697511
0.0800679
0.0903846
0.095724
0.096086
0.106425
0.121742
0.137081
0.152443
0.162783
0.1731
0.183416
0.193756
0.204163
0.214593
0.239932
0.260226
0.290611
0.321063
0.336538
0.352036
0.372557
0.393167
0.413937
0.434774
0.450588
0.466403
0.477217
0.4881
0.489072
0.490045
0.500973
0.511787
0.507466
0.498077
0.483643
0.45914
0.424593
0.380023
0.330453
0.275837
0.221131
0.16638
0.116561
0.0667195
0.0218552
-0.00800904
-0.0278733
-0.0527149
-0.0775339
-0.0923077
-0.107036
-0.111765
-0.111493
-0.111222
-0.115882
-0.120339
-0.12957
-0.128552
-0.127014
-0.13448
-0.140973
-0.136561
-0.131222
-0.119909
-0.109163
-0.10543
-0.104208
-0.110837
-0.118823
-0.122217
-0.125385
-0.122986
-0.120023
-0.131493
-0.14233
-0.132534
-0.122489
-0.117262
-0.111968
-0.111629
-0.111199
-0.115679
-0.120204
-0.114796
-0.109367
-0.108914
-0.108439
-0.107941
-0.107421
-0.106878
-0.106312
-0.110724
-0.115226
-0.114774
-0.114299
-0.108801
-0.103303
-0.102873
-0.102579
-0.10233
-0.102036
-0.101719
-0.10138
-0.101063
-0.100747
-0.10043
-0.110158
-0.119842
-0.114412
-0.108846
-0.108122
-0.107308
-0.106471
-0.105588
-0.109774
-0.113801
-0.107647
-0.101335
-0.0998642
-0.0983484
-0.0917873
-0.0901357
-0.0983936
-0.0967194
-0.0850678
-0.0783258
-0.0815158
-0.0845927
-0.0875791
-0.0905656
-0.0835294
-0.0763574
-0.0791402
-0.0770814
-0.0653619
-0.0592307
-0.0639592
-0.0697737
-0.0666515
-0.0696153
-0.0776017
-0.08
-0.0801809
-0.0875339
-0.0931674
-0.0774434
-0.0614706
-0.0505656
-0.0404299
-0.0362443
-0.0328507
-0.0352489
-0.038371
-0.0371719
-0.0364027
-0.0310181
-0.0258371
-0.0258145
-0.0258597
-0.0259728
-0.0261991
-0.0215385
-0.0169004
-0.0172624
-0.022647
-0.0330769
-0.038552
-0.034095
-0.0296154
-0.0351131
-0.0407013
-0.0363801
-0.0320588
-0.0327375
-0.0334162
-0.029095
-0.0247963
-0.0205203
-0.0162895
-0.022104
-0.0279411
-0.0288008
-0.0246606
-0.0205203
-0.0314253
-0.0424207
-0.0384388
-0.0344343
-0.0304298
-0.0264253
-0.0374434
-0.0485294
-0.0347058
-0.0209275
-0.0271493
-0.0334162
-0.0347737
-0.0361538
-0.0375565
-0.0390271
-0.0405655
-0.0421945
-0.0289366
-0.0258144
-0.0228054
-0.0198642
-0.0169909
0.000791915
0.0284842
0.0411086
0.0436426
0.046086
0.0384616
0.0407919
0.053077
0.0553394
0.0575792
0.0397059
0.0117647
-0.0161765
-0.0440724
-0.0568326
-0.0544796
-0.0619909
-0.049276
-0.0763348
-0.103145
-0.124683
-0.145973
-0.147059
-0.147941
-0.158597
-0.16914
-0.144638
-0.130023
-0.125249
-0.120385
-0.115588
-0.105633
-0.0906561
-0.0806787
-0.0906561
-0.0806108
-0.0255882
0.0694344
0.214502
0.419638
0.669796
0.91491
1.15502
1.16016
1.04029
0.56043
-0.0694344
-0.459367
-0.774367
-0.854321
-0.874231
-0.74914
-0.58905
-0.468959
-0.348869
-0.243778
-0.143688
-0.0986199
-0.0585747
-0.0435294
-0.0284842
-0.0384163
-0.0483258
-0.0382579
-0.0282127
-0.0281448
-0.0280543
-0.0229864
-0.0179638
-0.0129864
-0.00803166
-0.0130543
-0.0180543
-0.0080769
0.00187786
0.00185524
0.00187786
0.00692311
0.0119457
0.0169683
0.0220362
0.0271493
0.0322625
0.0373303
0.042353
0.047353
0.0524208
0.0525566
0.0626245
0.0776245
0.0826471
0.0876923
0.0927602
0.0978507
0.112873
0.127828
0.132873
0.138009
0.153122
0.173213
0.178281
0.183326
0.198394
0.213484
0.233552
0.253597
0.27871
0.303846
0.319027
0.339231
0.364412
0.384661
0.400068
0.420566
0.441086
0.456606
0.467081
0.477602
0.483213
0.488824
0.504434
0.509977
0.515407
0.510724
0.480928
0.456063
0.426199
0.376335
0.321561
0.261652
0.206606
0.156493
0.111312
0.0661086
0.0208824
-0.00441176
-0.0247738
-0.0500226
-0.0752036
-0.0903394
-0.0804525
-0.120588
-0.130701
-0.135724
-0.140679
-0.140679
-0.140633
-0.140362
-0.139683
-0.148326
-0.156018
-0.147602
-0.1381
-0.137511
-0.1369
-0.131833
-0.128937
-0.123937
-0.120679
-0.123824
-0.12733
-0.125928
-0.123982
-0.126335
-0.1281
-0.134276
-0.140023
-0.135362
-0.130498
-0.125452
-0.120317
-0.12509
-0.129955
-0.12491
-0.119796
-0.119615
-0.119434
-0.114253
-0.109072
-0.108891
-0.108688
-0.108462
-0.108258
-0.108077
-0.107873
-0.107647
-0.112398
-0.117149
-0.111923
-0.106697
-0.111425
-0.116109
-0.110792
-0.105475
-0.100158
-0.0948416
-0.104502
-0.114231
-0.10905
-0.103937
-0.103869
-0.103801
-0.103733
-0.103643
-0.0985294
-0.0934163
-0.0983032
-0.103122
-0.102828
-0.102285
-0.0965158
-0.0906335
-0.0946833
-0.0986878
-0.0926471
-0.0865158
-0.0852715
-0.0838235
-0.0871719
-0.0854072
-0.0735294
-0.0665158
-0.0693891
-0.0721946
-0.0699321
-0.0626244
-0.0552715
-0.0578733
-0.0604751
-0.0531222
-0.0457692
-0.0433258
-0.0409729
-0.0387783
-0.0369457
-0.0305882
-0.025362
-0.0313348
-0.0385746
-0.037104
-0.0366063
-0.0468778
-0.0550452
-0.0510181
-0.044457
-0.0357692
-0.0269004
-0.0230316
-0.02
-0.0227828
-0.0212669
-0.0103167
-0.00509047
-0.0103394
-0.0158145
-0.016448
-0.0171267
-0.0128507
-0.00857466
-0.0142987
-0.0200905
-0.0159502
-0.01181
-0.0126697
-0.0135294
-0.0144118
-0.015362
-0.00635748
-0.0123303
-0.0182806
-0.0192534
-0.0202489
-0.0162443
-0.0122398
-0.0232127
-0.0342081
-0.0252941
-0.0164253
-0.0175339
-0.0186199
-0.0246833
-0.0307692
-0.0218778
-0.0130543
-0.0192534
-0.0254525
-0.0266742
-0.0279412
-0.0242308
-0.0204751
-0.0216968
-0.0229864
-0.0243439
-0.0257466
-0.0221946
-0.0186878
-0.0252489
-0.0269005
-0.0186425
-0.0154299
-0.0222624
-0.0291855
-0.0261991
-0.0232579
-0.020362
-0.0175113
-0.0197512
-0.00217196
0.0152263
0.037534
0.059819
0.0620814
0.0642534
0.0613122
0.0583258
0.0703394
0.0823303
0.0692534
0.0461312
0.00298641
-0.0301358
-0.0531674
-0.0660634
-0.0638914
-0.0615837
-0.064095
-0.0713122
-0.0932806
-0.115045
-0.126629
-0.132964
-0.13905
-0.144932
-0.145656
-0.14129
-0.13181
-0.127195
-0.127466
-0.117715
-0.102941
-0.0981222
-0.103258
-0.0783484
-0.0383937
0.0365384
0.111448
0.336403
0.571403
0.801403
1.0314
1.18643
1.30149
0.786584
0.256652
-0.348303
-0.863258
-0.928213
-0.948145
-0.788032
-0.632919
-0.492873
-0.357851
-0.237783
-0.142692
-0.0976244
-0.0675566
-0.0574661
-0.0473756
-0.0472624
-0.0471267
-0.0420136
-0.0369683
-0.0319457
-0.0268778
-0.0317873
-0.0317421
-0.0167421
-0.00669684
-0.00656109
-0.00649322
-0.00149321
0.00352942
0.00857467
0.0136652
0.00880091
0.0138688
0.0288688
0.033914
0.0340045
0.0341176
0.0342534
0.0443439
0.0443892
0.0544797
0.0646154
0.0697511
0.0748869
0.0850226
0.0951584
0.0903167
0.0854977
0.100656
0.115792
0.125928
0.136063
0.146222
0.161425
0.176584
0.191742
0.206946
0.222172
0.237376
0.252557
0.26776
0.282986
0.298235
0.323484
0.35371
0.38405
0.409502
0.420023
0.425611
0.446244
0.471923
0.482602
0.488281
0.499027
0.509842
0.515634
0.521357
0.516878
0.50224
0.477489
0.45767
0.422896
0.388167
0.328416
0.27362
0.228733
0.183756
0.128733
0.0836878
0.0436199
0.00352941
-0.0215385
-0.0465611
-0.0715611
-0.0915385
-0.101493
-0.111448
-0.11638
-0.121267
-0.131154
-0.14095
-0.135588
-0.129864
-0.133778
-0.136697
-0.138575
-0.139412
-0.134208
-0.133303
-0.136878
-0.132783
-0.121086
-0.117149
-0.115566
-0.119253
-0.133009
-0.136063
-0.128439
-0.125158
-0.126244
-0.12681
-0.126968
-0.131923
-0.136719
-0.136425
-0.136086
-0.135792
-0.13552
-0.125226
-0.11491
-0.11957
-0.124208
-0.113891
-0.103597
-0.113213
-0.12276
-0.112353
-0.101946
-0.106516
-0.111041
-0.11552
-0.12
-0.114525
-0.10905
-0.108529
-0.107964
-0.112376
-0.116855
-0.111403
-0.105928
-0.105498
-0.105136
-0.109842
-0.114593
-0.114344
-0.113982
-0.113575
-0.113348
-0.108213
-0.102986
-0.102579
-0.101968
-0.101199
-0.105294
-0.0992534
-0.0980996
-0.0969005
-0.0957014
-0.0944118
-0.0929864
-0.0913801
-0.0895475
-0.0876244
-0.0806335
-0.0735294
-0.0762896
-0.0789366
-0.066448
-0.0540724
-0.0567421
-0.0593213
-0.0567873
-0.0541855
-0.0515611
-0.0490498
-0.0516516
-0.0544344
-0.0475792
-0.041629
-0.0366516
-0.0327602
-0.0400001
-0.0485747
-0.0475114
-0.0452263
-0.0459503
-0.0435521
-0.0392987
-0.034638
-0.0302263
-0.0267421
-0.0291177
-0.0322398
-0.026086
-0.0256335
-0.0306335
-0.0208824
-0.0112444
-0.016629
-0.0220589
-0.0175793
-0.0131675
-0.0187105
-0.0242308
-0.0198191
-0.0154526
-0.0161087
-0.0167874
-0.0174661
-0.0182127
-0.0190498
-0.0199096
-0.0157467
-0.0115385
-0.0172851
-0.0230996
-0.0190272
-0.0149548
-0.0208371
-0.0267195
-0.0226245
-0.018552
-0.0195023
-0.0254751
-0.0364706
-0.0375113
-0.0285973
-0.0246833
-0.0257692
-0.0268552
-0.0279412
-0.0290724
-0.0252715
-0.0214706
-0.0276697
-0.0339593
-0.0253394
-0.0267194
-0.0281222
-0.0346154
-0.0412217
-0.0379412
-0.0347285
-0.0315385
-0.0284163
-0.0353846
-0.0424434
-0.0296154
-0.0169004
-0.0142534
-0.00667419
0.0157919
0.0381901
0.0504978
0.0527376
0.0349322
0.0320362
0.0640498
0.0760408
0.0680317
0.0400679
0.00212671
-0.0257692
-0.0485746
-0.0662443
-0.078733
-0.0760181
-0.0630995
-0.0699547
-0.0865837
-0.112986
-0.149186
-0.155181
-0.156018
-0.156674
-0.157149
-0.152511
-0.157805
-0.123009
-0.1081
-0.108145
-0.10819
-0.113213
-0.113213
-0.07819
-0.0431448
0.00190045
0.0869457
0.281991
0.482036
0.697127
0.927262
1.18738
1.23251
0.90267
0.407851
-0.326968
-0.78181
-0.926674
-0.916538
-0.751403
-0.601222
-0.461018
-0.325905
-0.195837
-0.115769
-0.070724
-0.0556109
-0.0554299
-0.0503167
-0.0402715
-0.035181
-0.0400452
-0.0399547
-0.0299095
-0.024819
-0.0246832
-0.0245249
-0.0243439
-0.0141855
-0.00407238
0.000995498
0.00606337
0.00119911
-0.00361989
0.0115159
0.0266064
0.0267195
0.0268552
0.0319683
0.0370588
0.0421946
0.0473756
0.0475792
0.0477828
0.0579412
0.0680769
0.0682353
0.0684163
0.0785973
0.0887783
0.0939593
0.104163
0.114412
0.124661
0.134864
0.145045
0.155272
0.17052
0.185792
0.206018
0.226199
0.236403
0.246629
0.2669
0.287195
0.307421
0.327602
0.347873
0.368235
0.388597
0.413982
0.429502
0.445158
0.455905
0.466674
0.48733
0.507964
0.513756
0.519615
0.515453
0.511177
0.501719
0.482149
0.447534
0.412873
0.368122
0.323371
0.273665
0.223959
0.174208
0.129344
0.0843213
0.0492534
0.0141629
-0.020905
-0.0509502
-0.0710407
-0.0812217
-0.0962217
-0.111131
-0.116018
-0.120882
-0.125747
-0.130588
-0.135271
-0.139796
-0.14414
-0.138122
-0.131244
-0.133484
-0.134728
-0.129932
-0.134005
-0.127896
-0.123258
-0.120837
-0.116765
-0.114774
-0.118439
-0.122059
-0.134909
-0.147059
-0.133597
-0.119547
-0.119932
-0.119977
-0.124819
-0.12957
-0.119344
-0.109118
-0.113869
-0.118597
-0.113348
-0.108145
-0.112941
-0.117692
-0.122443
-0.127308
-0.122285
-0.112308
-0.102353
-0.102376
-0.112398
-0.117511
-0.112692
-0.107851
-0.107964
-0.107964
-0.107851
-0.107557
-0.112104
-0.116493
-0.120837
-0.125249
-0.124661
-0.118959
-0.113145
-0.11224
-0.11129
-0.110271
-0.109186
-0.113077
-0.116946
-0.110814
-0.104661
-0.103462
-0.10224
-0.106018
-0.109774
-0.103484
-0.0971267
-0.0957014
-0.0945023
-0.098552
-0.0980543
-0.0880996
-0.0840724
-0.0910181
-0.0990498
-0.0977376
-0.0958145
-0.102466
-0.106063
-0.107217
-0.101991
-0.0859729
-0.0749774
-0.0692534
-0.0642081
-0.0597511
-0.0558597
-0.0474887
-0.0446154
-0.0521041
-0.0548642
-0.0428281
-0.0360181
-0.0294344
-0.0330769
-0.0369457
-0.0360634
-0.0354072
-0.0299548
-0.0246833
-0.0296154
-0.0347285
-0.02
-0.00538462
-0.0108145
-0.0163122
-0.0218778
-0.0275113
-0.0332127
-0.038914
-0.0396154
-0.0403846
-0.0362217
-0.0321041
-0.0279864
-0.0238461
-0.0297285
-0.0306787
-0.0216742
-0.0177375
-0.0238235
-0.0299321
-0.0260633
-0.0221719
-0.0232805
-0.024457
-0.0306787
-0.0369683
-0.0333484
-0.0297285
-0.026086
-0.0224208
-0.0238009
-0.0303167
-0.0269231
-0.0235294
-0.0201584
-0.0218778
-0.0237104
-0.0156109
-0.00755657
-0.0145928
-0.0167873
0.00585972
0.0284163
0.0459276
0.0584163
0.0559955
0.0583937
0.0707014
0.0779185
0.0850905
0.0872398
0.0593439
0.0314253
-0.00651584
-0.0393891
-0.0721946
-0.0799095
-0.0675113
-0.0699321
-0.0871267
-0.10405
-0.125701
-0.137172
-0.143439
-0.14948
-0.150317
-0.146018
-0.136606
-0.132059
-0.132376
-0.127602
-0.11776
-0.107896
-0.103032
-0.0981222
-0.0931675
-0.0331901
0.0318099
0.151765
0.291742
0.516833
0.751968
1.01206
1.1771
1.06219
0.77233
0.112443
-0.412466
-0.707398
-0.872376
-0.847353
-0.767285
-0.612195
-0.477104
-0.357014
-0.2469
-0.146742
-0.0866063
-0.0615385
-0.0515158
-0.0464706
-0.0414027
-0.0413122
-0.0412217
-0.0361312
-0.0310634
-0.0310181
-0.0259502
-0.0158597
-0.0107918
-0.0057466
-0.000633473
-0.000452475
-0.000316728
-0.000226234
0.00984163
0.0199321
0.0150679
0.010181
0.0202489
0.0302941
0.0353394
0.0404072
0.040543
0.0407014
0.0507919
0.0608824
0.0660634
0.0712896
0.076448
0.0816064
0.08181
0.0870362
0.102262
0.112489
0.117692
0.127873
0.143077
0.153303
0.148552
0.158778
0.183959
0.19914
0.209367
0.224638
0.239955
0.260272
0.280588
0.29595
0.311357
0.341742
0.372127
0.387624
0.403235
0.418937
0.409683
0.450385
0.461086
0.476878
0.492738
0.503643
0.51457
0.520385
0.526086
0.511629
0.492036
0.467308
0.437557
0.392873
0.34319
0.288439
0.233597
0.193643
0.148665
0.0986878
0.0536878
0.0186878
-0.0112896
-0.0362217
-0.0611086
-0.0809728
-0.0958597
-0.105747
-0.110588
-0.115407
-0.120204
-0.124977
-0.129502
-0.123756
-0.127466
-0.140543
-0.142602
-0.133597
-0.123416
-0.122489
-0.122104
-0.118054
-0.117014
-0.118462
-0.111403
-0.105158
-0.113824
-0.122149
-0.124774
-0.126787
-0.133258
-0.139344
-0.135113
-0.130566
-0.125814
-0.120837
-0.120656
-0.120385
-0.125068
-0.129796
-0.124547
-0.119208
-0.118801
-0.118303
-0.117692
-0.116991
-0.116199
-0.115407
-0.109638
-0.103869
-0.1031
-0.112285
-0.126448
-0.125701
-0.115023
-0.109321
-0.103597
-0.102828
-0.112104
-0.111584
-0.101335
-0.101335
-0.112014
-0.118688
-0.111493
-0.120475
-0.130068
-0.135023
-0.138235
-0.138846
-0.137195
-0.133394
-0.128959
-0.124208
-0.119864
-0.106131
-0.0928959
-0.0951131
-0.0978054
-0.101018
-0.104367
-0.102851
-0.10129
-0.0996833
-0.0980317
-0.0963349
-0.0945249
-0.0926018
-0.0906108
-0.088552
-0.0814706
-0.0694796
-0.0623077
-0.0650905
-0.067828
-0.0655203
-0.0631674
-0.0607692
-0.0583711
-0.0559729
-0.0536652
-0.0514706
-0.0494117
-0.0475113
-0.0458144
-0.0443665
-0.0382353
-0.0323981
-0.0367194
-0.0412443
-0.0410407
-0.0410633
-0.0412443
-0.0415836
-0.0470814
-0.0527375
-0.0435294
-0.0344343
-0.0354298
-0.0364705
-0.0375339
-0.0387104
-0.0349547
-0.0312895
-0.0326696
-0.0341176
-0.0356787
-0.0373529
-0.039095
-0.0408597
-0.0377149
-0.0347285
-0.0318552
-0.00904974
0.0236652
0.0363575
0.0390272
0.0415837
0.0390271
0.0364027
0.033733
0.0560181
0.0832353
0.0704072
0.0475566
0.00475113
-0.0379864
-0.0556787
-0.0682579
-0.060724
-0.0530317
-0.0701131
-0.0869683
-0.103597
-0.119977
-0.136063
-0.151968
-0.14767
-0.143235
-0.143643
-0.143914
-0.144072
-0.139186
-0.124299
-0.114367
-0.109344
-0.104253
-0.109095
-0.0939593
-0.0488914
0.0111991
0.0763575
0.236538
0.461697
0.716833
0.982014
1.12219
1.20238
0.822534
0.26267
-0.227195
-0.697059
-0.826968
-0.881923
-0.781855
-0.651765
-0.531629
-0.406448
-0.28629
-0.161154
-0.116063
-0.0709955
-0.0608824
-0.0507919
-0.0457693
-0.0407693
-0.0357466
-0.0307014
-0.0306561
-0.0306109
-0.0205656
-0.0104978
-0.0104072
-0.0103168
-0.00520363
-0.000135758
-9.0505e-05
-2.26311e-05
0.00506787
0.0101584
0.0152489
0.0203167
0.025362
0.0304525
0.0305882
0.0356787
0.050724
0.0608145
0.0559502
0.0560407
0.066086
0.0711539
0.0712444
0.0763575
0.0864932
0.0965837
0.106629
0.116697
0.126787
0.1319
0.132036
0.152149
0.16224
0.177376
0.192557
0.202738
0.212919
0.2331
0.253281
0.263484
0.278688
0.308869
0.33405
0.349276
0.369638
0.385158
0.400724
0.42129
0.441878
0.457466
0.468054
0.473643
0.484321
0.500113
0.510928
0.506719
0.497285
0.487624
0.462896
0.433122
0.393371
0.348643
0.303824
0.253914
0.198959
0.133959
0.0938688
0.0486878
0.018552
-0.0115385
-0.0366063
-0.0616742
-0.0817873
-0.0969004
-0.106968
-0.116991
-0.126946
-0.136878
-0.131878
-0.126833
-0.131561
-0.135995
-0.140158
-0.14362
-0.141086
-0.137421
-0.137579
-0.137149
-0.12638
-0.117489
-0.11629
-0.117353
-0.110588
-0.104389
-0.113416
-0.122059
-0.125181
-0.127805
-0.129887
-0.131244
-0.1269
-0.127195
-0.137195
-0.132127
-0.116991
-0.111878
-0.116765
-0.121561
