ekg
0
0.00333333
-0.004
-0.0178571
-0.035
-0.0231818
-0.00692308
-0.00366667
0.00941176
0.0497368
0.0911905
0.0993478
0.1066
0.102593
0.0968966
0.0964516
0.0860606
0.0592857
0.0248649
-0.00820513
-0.035122
-0.0673256
-0.107222
-0.130957
-0.137449
-0.133039
-0.120377
-0.103273
-0.096579
-0.100085
-0.0990164
-0.0984127
-0.0983846
-0.0890299
-0.0600725
-0.0209155
-0.0271233
-0.0433333
-0.0448052
-0.0366456
0.11179
0.270301
0.483471
0.691839
0.715
0.722967
0.526129
0.334105
0.176443
0.0281818
-0.0406931
-0.0997087
-0.0987619
-0.0981776
-0.0977982
-0.0974775
-0.102035
-0.106739
-0.106752
-0.106681
-0.106446
-0.106301
-0.1012
-0.0961417
-0.0962403
-0.0914504
-0.0766165
-0.0717037
-0.0868978
-0.0970504
-0.0921277
-0.0871329
-0.0922414
-0.0979932
-0.099396
-0.101589
-0.0989216
-0.0960645
-0.097707
-0.108365
-0.12323
-0.127914
-0.122727
-0.117515
-0.117278
-0.127164
-0.136821
-0.131657
-0.127006
-0.126955
-0.128039
-0.14276
-0.160811
-0.162406
-0.159841
-0.144503
-0.128109
-0.116846
-0.100584
-0.0842714
-0.0731095
-0.0719951
-0.0709756
-0.07
-0.0689952
-0.0531754
-0.0473474
-0.0413023
-0.0354147
-0.0344977
-0.0334842
-0.0381222
-0.0427602
-0.0374434
-0.0270814
-0.0166742
-0.0111086
-0.0153846
-0.0195701
-0.0236425
-0.0275566
-0.0213348
-0.0150905
-0.0138235
-0.0126018
-0.0114253
-0.00527149
0.000769231
0.00658371
0.0121493
0.0124887
0.0126923
0.00782805
0.00291855
0.00800905
0.0130543
0.0130317
0.013009
0.00805429
0.00312216
0.00814479
0.00803167
-0.00717195
-0.00730769
0.0226697
0.0477149
0.0628733
0.0879864
0.123009
0.153032
0.1831
0.18871
0.179977
0.177285
0.180588
0.163982
0.137398
0.0999095
0.0615385
0.0324208
0.00760182
0.00244344
0.00699095
0.0115385
0.016086
0.0156335
0.0052036
0.00479636
0.00938913
0.0139593
0.0185068
0.00303165
-0.0124435
0.0021493
0.0167194
0.0461991
0.0605656
0.0248642
0.00909499
0.0681674
0.167127
0.356041
0.544955
0.728846
0.802805
0.716855
0.571018
0.350339
0.174887
0.0446154
-0.0406335
-0.090905
-0.111335
-0.0968552
-0.0872851
-0.0926471
-0.098009
-0.103371
-0.10371
-0.0940271
-0.0893665
-0.0897285
-0.0901584
-0.085724
-0.0814027
-0.0820362
-0.0824208
-0.0877828
-0.0883484
-0.0744118
-0.0711538
-0.0685747
-0.0916742
-0.114909
-0.108032
-0.100204
-0.101109
-0.10129
-0.11086
-0.12009
-0.114027
-0.1081
-0.107376
-0.1069
-0.116652
-0.126244
-0.125679
-0.125113
-0.129593
-0.13414
-0.128756
-0.123371
-0.127941
-0.132511
-0.132104
-0.131697
-0.13129
-0.12086
-0.10043
-0.0800452
-0.0646606
-0.0592081
-0.0587104
-0.0582353
-0.0577828
-0.0473077
-0.0318099
-0.0262896
-0.0307466
-0.0352262
-0.0347285
-0.00923076
0.00626698
-0.0132579
-0.0327602
-0.0221493
-0.011448
-0.0106561
-0.0097285
-0.0136425
-0.0174208
0.00893667
0.0203168
0.0016516
-0.0120362
-0.010724
-0.00959275
-0.00864252
-0.00794116
-0.00248868
0.00276019
0.00782807
0.0129186
0.0130769
0.0132579
0.0134615
0.00866516
-0.00117647
-0.00604072
-0.000904977
0.00425339
0.00943439
0.00950227
-0.000542983
0.00952489
0.0297059
0.06
0.0903394
0.11052
0.130634
0.146041
0.1619
0.168575
0.171109
0.154525
0.138303
0.116719
0.0895023
0.046267
0.00721722
-0.00744341
-0.0175339
0.0121041
0.0366516
0.0213122
0.00606338
-0.00416287
-0.0144344
-0.0147737
-0.0150679
-0.0102715
-0.00545247
-0.000633463
0.0191177
0.0488236
0.0434616
0.00296381
0.0122625
0.0663801
0.190475
0.354615
0.513778
0.662964
0.692082
0.666199
0.455543
0.190091
0.0347738
-0.0953846
-0.165452
-0.230498
-0.200543
-0.160611
-0.110724
-0.0558597
-0.0810181
-0.106199
-0.101357
-0.0964932
-0.0866516
-0.0768326
-0.081991
-0.0871719
-0.0824434
-0.0777602
-0.0780769
-0.0783484
-0.0785521
-0.0741403
-0.0601358
-0.05681
-0.0741629
-0.0870588
-0.0904072
-0.0931448
-0.0952262
-0.0963575
-0.101629
-0.106425
-0.105882
-0.105204
-0.0994118
-0.0986199
-0.107851
-0.112195
-0.106652
-0.101041
-0.105362
-0.109683
-0.109005
-0.108348
-0.107715
-0.106991
-0.106222
-0.105498
-0.104842
-0.0842308
-0.0736425
-0.0580317
-0.0423982
-0.0267421
-0.0110633
-0.020362
-0.029638
-0.028914
-0.02819
-0.0274434
-0.0266968
-0.0209729
-0.0152489
-0.0145023
-0.0136878
-0.00280543
0.00809954
-0.00101811
-0.0101358
-0.00420815
0.00192307
0.00325791
0.00468325
0.00119909
0.00276017
0.0143665
0.0159955
0.00762443
0.00414027
0.000520363
-0.00328054
0.00273755
0.00850678
0.0140498
0.024457
0.0347964
0.0352941
0.0259276
0.0164932
0.00696833
0.0123529
0.0226697
0.013009
0.00334841
0.00366515
0.00400452
0.0194118
0.0349321
0.0555656
0.0861312
0.131471
0.166833
0.172466
0.178688
0.180679
0.183416
0.181833
0.165407
0.128891
0.0963801
0.0676245
0.0331448
0.00305432
-0.0123529
-0.0080543
0.00135747
0.0109276
0.0157466
0.0108371
0.00581446
0.000678726
-0.004457
-0.00457013
-0.00457013
-0.00447964
0.00556561
0.0205204
0.0253846
0.0251358
0.0147059
-0.000904977
0.0932805
0.202421
0.371719
0.536063
0.660362
0.759661
0.624005
0.478529
0.278258
0.103145
0.00314478
-0.07681
-0.111697
-0.136584
-0.111493
-0.0914254
-0.086448
-0.081448
-0.0863801
-0.091267
-0.0911538
-0.091086
-0.0910407
-0.0909954
-0.0859728
-0.086086
-0.0962896
-0.0963801
-0.086448
-0.0816968
-0.0873529
-0.093733
-0.0958371
-0.0986199
-0.101674
-0.104457
-0.106697
-0.108032
-0.11362
-0.118575
-0.123145
-0.127489
-0.126742
-0.136041
-0.145362
-0.149661
-0.153937
-0.143235
-0.132557
-0.146833
-0.161063
-0.160317
-0.159593
-0.153914
-0.148258
-0.147534
-0.146833
-0.141131
-0.130543
-0.114932
-0.104321
-0.0936652
-0.0830317
-0.0674208
-0.0617647
-0.0660634
-0.0703394
-0.069638
-0.0639819
-0.0533711
-0.0476697
-0.0518552
-0.0511086
-0.0404299
-0.0397511
-0.0490724
-0.0533258
-0.0475113
-0.0366063
-0.0255656
-0.0192986
-0.0228507
-0.0263801
-0.0299095
-0.0334842
-0.0320815
-0.0357014
-0.0394118
-0.0283032
-0.0173756
-0.011629
-0.0061086
-0.00579185
-0.00558824
-0.000407249
0.00479639
4.52548e-05
-0.00468324
-0.00441175
-0.00418551
0.000972852
0.00113122
-0.0136878
-0.0235294
-0.0183937
-0.0032353
0.0219683
0.0521946
0.0924208
0.132602
0.177715
0.193281
0.174367
0.171176
0.168688
0.161765
0.155294
0.118235
0.075543
0.0419457
0.0125565
-0.00228509
-0.0174887
-0.0178507
-0.00834842
-0.00380091
0.00579184
-0.00457016
-0.0148869
-0.0202263
-0.0255882
-0.0209276
-0.0162217
-0.0164706
-0.01181
0.0176923
0.0371267
0.011448
0.00554298
0.064457
0.163371
0.337217
0.511131
0.675136
0.749118
0.678077
0.54724
0.346584
0.181086
0.040724
-0.0445475
-0.0897511
-0.104977
-0.0952036
-0.0905203
-0.0859276
-0.0813801
-0.0868778
-0.0923077
-0.0976697
-0.1031
-0.0985973
-0.094095
-0.0896606
-0.0853394
-0.0910181
-0.0866063
-0.0971719
-0.0777602
-0.0887557
-0.095362
-0.102738
-0.0959276
-0.0895023
-0.0933032
-0.0964932
-0.103869
-0.110407
-0.111086
-0.111312
-0.126086
-0.140792
-0.135543
-0.130271
-0.130023
-0.129751
-0.129502
-0.129321
-0.129163
-0.128914
-0.133575
-0.138213
-0.137873
-0.132624
-0.122466
-0.117308
-0.117127
-0.116946
-0.116765
-0.111561
-0.101335
-0.0861086
-0.0708823
-0.0606561
-0.0504072
-0.0450905
-0.0447285
-0.0443891
-0.0490724
-0.0437556
-0.0334389
-0.0380995
-0.0427375
-0.0373982
-0.0320814
-0.0267647
-0.0213801
-0.0208371
-0.0201358
-0.019276
-0.0182579
-0.0220136
-0.0257014
-0.0145249
-0.00339367
-0.00228509
-0.00124435
-0.0052715
-0.00954752
-0.00909503
-0.00882354
-0.00871042
-0.00873306
-0.00889142
-0.00407242
0.0107692
0.0206108
0.0154751
0.0103393
0.0102036
0.00999998
0.00472847
-0.00552039
-0.0157466
0.00400449
0.0437556
0.0586651
0.0736877
0.123597
0.173461
0.178529
0.189004
0.170271
0.15233
0.160158
0.168348
0.126199
0.0884615
0.0548642
0.020543
-0.00443441
-0.024819
-0.0253846
-0.0260407
-0.0167195
-0.00739825
-0.00305437
0.00135742
-0.00420819
-0.00979643
-0.0104073
-0.0110181
-0.0115838
0.00280537
0.0321493
0.0364253
0.0155656
0.00957008
0.018371
0.117127
0.265724
0.444321
0.632919
0.726606
0.79043
0.659366
0.473462
0.282738
0.0921493
-0.00332583
-0.0937331
-0.104231
-0.099819
-0.105385
-0.0909276
-0.096448
-0.101946
-0.0924661
-0.0830091
-0.093552
-0.104095
-0.104638
-0.105249
-0.0909502
-0.0766516
-0.0823077
-0.0878733
-0.0935068
-0.0994344
-0.0958597
-0.0931222
-0.0911765
-0.0898643
-0.0940271
-0.102557
-0.115385
-0.122195
-0.123122
-0.123552
-0.123575
-0.123371
-0.122986
-0.127692
-0.137466
-0.142217
-0.136946
-0.136652
-0.146357
-0.151131
-0.145928
-0.140679
-0.145407
-0.145158
-0.134932
-0.129683
-0.129367
-0.123982
-0.118597
-0.103281
-0.0880091
-0.0827376
-0.0774661
-0.0622172
-0.046991
-0.0417874
-0.0365385
-0.0311539
-0.0257014
-0.0352942
-0.0449548
-0.034638
-0.0242534
-0.0238236
-0.0234163
-0.0180317
-0.0125566
-0.0169005
-0.0212217
-0.0205204
-0.0146154
0.00149318
0.0126923
0.0140045
0.0152036
0.0112896
0.0073529
0.0133936
0.0141855
0.00475109
0.000113077
0.00527146
0.0102941
0.00520359
0.0101131
0.025
0.0298642
0.0297285
0.0196153
0.00952484
0.00941171
0.00927597
0.00414021
-0.000995539
0.0138687
0.0288008
0.0488913
0.0740045
0.108982
0.143914
0.173891
0.199321
0.195385
0.192285
0.185068
0.168235
0.146652
0.11448
0.0714705
0.037647
0.013009
-0.00210416
0.00233024
0.00674201
0.00619902
0.00563341
0.000113048
-0.00549781
-0.00117654
0.00323522
0.00273748
0.0021945
-0.00339373
0.00604066
0.0254524
0.0298416
0.0292081
0.0134615
0.0275565
0.0914705
0.200249
0.388982
0.572715
0.726448
0.845226
0.714072
0.568009
0.347014
0.151154
0.0404525
-0.0550679
-0.100407
-0.130724
-0.116041
-0.106448
-0.106923
-0.107489
-0.1081
-0.10371
-0.0893665
-0.0850226
-0.0956335
-0.101199
-0.101787
-0.102511
-0.0983032
-0.104027
-0.119683
-0.120249
-0.11095
-0.107195
-0.109118
-0.111968
-0.11052
-0.109434
-0.108054
-0.115747
-0.132511
-0.138348
-0.133597
-0.123507
-0.118281
-0.132941
-0.147579
-0.152285
-0.157014
-0.156742
-0.156471
-0.146222
-0.135996
-0.130792
-0.125588
-0.140294
-0.154932
-0.14957
-0.144231
-0.133937
-0.123643
-0.113303
-0.102964
-0.0926697
-0.0823982
-0.0771041
-0.0717874
-0.0714933
-0.0661991
-0.0508598
-0.0404978
-0.0401358
-0.0397964
-0.0394797
-0.0391403
-0.0387783
-0.0384163
-0.0380543
-0.0376019
-0.0420589
-0.0414254
-0.0306788
-0.0247964
-0.0237783
-0.0226471
-0.0114254
-0.0152036
-0.0189819
-0.00782809
0.00319001
0.00404973
0.00472847
-0.00481904
-0.0145702
-0.00447967
0.00552033
0.000520326
-0.00447967
-0.0045023
0.000407197
0.0152036
0.0249773
0.0147737
0.00463799
0.00454748
0.00443436
-0.00072401
0.00414025
0.0240724
0.0440498
0.0640498
0.0939593
0.128914
0.15414
0.169842
0.176357
0.183665
0.181697
0.170294
0.148326
0.125724
0.0921267
0.0576697
0.0177601
-0.0225792
-0.0281675
-0.0289141
-0.0145928
-0.0102263
0.00411761
0.0184389
0.0177375
0.0170362
0.0114253
0.00590496
0.000407211
-0.000181019
0.0291176
0.053371
0.0426018
0.0265837
0.0107014
0.0442534
0.177738
0.341267
0.549819
0.708394
0.802014
0.750769
0.549683
0.348756
0.147941
0.0222172
-0.0633937
-0.103914
-0.119367
-0.11491
-0.100543
-0.0961991
-0.0918778
-0.0875566
-0.0882353
-0.0888914
-0.0845023
-0.0800453
-0.0855656
-0.0912217
-0.0920588
-0.0880091
-0.0838914
-0.0895475
-0.0953394
-0.096448
-0.0982579
-0.100882
-0.104253
-0.108394
-0.11233
-0.11086
-0.108416
-0.109887
-0.110679
-0.115837
-0.120747
-0.12543
-0.130181
-0.135
-0.139842
-0.144706
-0.149548
-0.149389
-0.149231
-0.144027
-0.138824
-0.133643
-0.128439
-0.133167
-0.137919
-0.132692
-0.122443
-0.112172
-0.1069
-0.101629
-0.0914027
-0.0812217
-0.0760181
-0.0707919
-0.0655656
-0.0603394
-0.0451357
-0.0249095
-0.0245701
-0.0241403
-0.0337104
-0.0433258
-0.0379864
-0.0326244
-0.0272172
-0.0217647
-0.0262217
-0.0305882
-0.0248642
-0.0190045
-0.013009
-0.0069457
0.00411765
0.0152262
0.0113801
0.00748868
0.00350679
-0.000633478
6.78822e-05
-0.00445701
-0.0142081
-0.0141629
-0.00432127
0.00049774
0.000316747
0.000180997
0.00504525
0.00995476
0.0149095
0.0198643
0.014819
-0.000271499
-0.0154072
-0.000565607
0.024276
0.034276
0.0444118
0.0945023
0.0495023
0.174367
0.199344
0.194932
0.191267
0.188575
0.186629
0.165113
0.138371
0.100747
0.0622398
0.0378054
0.0177828
0.00735296
-0.00328054
0.00101811
0.00533937
0.00472851
0.00414027
0.00357466
0.00300904
0.00742082
0.0068552
-0.00366516
-0.00411765
0.0104299
0.0347964
0.0640272
0.0532579
0.0124208
0.0513575
0.130113
0.293801
0.482443
0.656109
0.829796
0.788507
0.69733
0.486358
0.260588
0.119977
-0.020543
-0.0760181
-0.126448
-0.111855
-0.0972851
-0.0927828
-0.0883258
-0.0938914
-0.0994796
-0.10009
-0.100747
-0.0964253
-0.0920588
-0.0976018
-0.10319
-0.103914
-0.104593
-0.100158
-0.0959276
-0.0969457
-0.0987557
-0.101357
-0.104751
-0.103778
-0.102647
-0.111131
-0.118439
-0.114683
-0.115181
-0.125023
-0.134638
-0.144118
-0.14371
-0.133394
-0.1381
-0.152828
-0.157511
-0.157149
-0.156833
-0.156561
-0.15629
-0.151018
-0.140747
-0.125475
-0.130181
-0.134864
-0.129548
-0.124231
-0.113937
-0.103665
-0.0883937
-0.0731448
-0.0679638
-0.0628054
-0.0626018
-0.0623529
-0.0570588
-0.0517421
-0.046448
-0.0411086
-0.040724
-0.0402941
-0.0348643
-0.0295023
-0.0292081
-0.0288009
-0.0332353
-0.0376471
-0.0370362
-0.0311765
-0.0154977
-0.00425339
-0.00291855
-0.00167421
-0.00549773
-0.00934389
-0.00821266
-0.00719456
-0.0113348
-0.015724
-0.010362
-0.00515837
-6.78711e-05
0.00497738
0.00497737
0.00497738
0.00497737
0.00495475
0.0049095
0.00984163
0.0147511
0.00968326
0.00463802
-0.00540723
-0.0104299
0.0245928
0.0547059
0.0599321
0.0800905
0.125068
0.160158
0.175588
0.186787
0.183869
0.181742
0.180407
0.158891
0.121968
0.0840724
0.0501357
0.0305882
0.0154298
4.52325e-05
-0.010543
-0.011086
-0.00158372
0.00294117
0.00248867
0.00196831
0.00638007
0.0157918
0.0252262
0.0197511
0.00432126
0.0188235
0.0432127
0.0274887
0.00662895
0.0606335
0.124525
0.303303
0.482036
0.665769
0.814525
0.783348
0.702285
0.44629
0.21543
0.0647511
-0.0607919
-0.111244
-0.141719
-0.12724
-0.117738
-0.108167
-0.0986199
-0.10414
-0.109729
-0.105362
-0.100973
-0.0965611
-0.0921719
-0.0877828
-0.0833937
-0.0789819
-0.0746154
-0.0802941
-0.085905
-0.0866063
-0.0877149
-0.0894118
-0.0919231
-0.0900679
-0.0886878
-0.0920815
-0.0996154
-0.111267
-0.117014
-0.107172
-0.111923
-0.116448
-0.12086
-0.125339
-0.124955
-0.124593
-0.134231
-0.143869
-0.138552
-0.133281
-0.138032
-0.142783
-0.142489
-0.137172
-0.1219
-0.111629
-0.11138
-0.111154
-0.110928
-0.105679
-0.0904299
-0.0752036
-0.0649548
-0.0596833
-0.0593891
-0.059095
-0.0538235
-0.0485747
-0.0433484
-0.0381222
-0.0328959
-0.0276018
-0.0272398
-0.0318778
-0.0415158
-0.0461765
-0.0408145
-0.0352489
-0.0295249
-0.0238009
-0.023009
-0.00703619
-0.000927597
-0.00472851
-0.00850679
-0.00737557
-0.00628959
-0.00524887
-0.00436652
0.00128959
0.00674208
0.00201357
-0.00282806
-0.00776019
-0.0127828
-0.00785068
-0.0029638
-0.00303168
-0.00309955
0.00680995
0.0166742
0.0165158
0.0114932
-0.00339367
-0.00828055
0.00178733
0.0218552
0.0469683
0.0770362
0.112036
0.142262
0.16776
0.179095
0.181267
0.179253
0.172873
0.156244
0.139231
0.106109
0.0719683
0.0421493
0.0117647
0.00617648
0.00547513
-0.00015837
-0.00574661
-0.00631222
-0.0068552
0.00260182
0.0120588
0.00653846
0.00104072
0.00558823
0.0101584
0.0197059
0.0291855
0.0335973
0.0378054
0.0267873
0.0506561
0.149434
0.288235
0.482059
0.635928
0.744864
0.698891
0.508009
0.31224
0.116561
-0.00900454
-0.0944118
-0.139751
-0.165068
-0.15043
-0.115837
-0.106244
-0.106652
-0.107104
-0.102602
-0.0980543
-0.0934615
-0.088914
-0.0844344
-0.08
-0.0706335
-0.0713122
-0.0719005
-0.0723077
-0.0729864
-0.079095
-0.0859729
-0.0886652
-0.0919683
-0.0958824
-0.0993891
-0.0973303
-0.0943665
-0.0904299
-0.0859729
-0.0859955
-0.0857918
-0.095362
-0.104955
-0.109593
-0.114253
-0.118959
-0.128665
-0.138326
-0.142941
-0.137511
-0.132081
-0.126674
-0.121244
-0.125837
-0.120498
-0.105204
-0.0998416
-0.0944344
-0.0840045
-0.073552
-0.0680995
-0.062647
-0.0572172
-0.0518099
-0.0464253
-0.0460633
-0.0356787
-0.0352715
-0.0298642
-0.0244344
-0.013914
-0.00332578
-0.0227375
-0.0421719
-0.0466516
-0.0511312
-0.0355882
-0.0199547
-0.0241629
-0.0282127
-0.0221041
-0.0158597
-0.0195023
-0.0231448
-0.0168326
-0.0055656
0.0206335
0.0266968
0.0176244
0.0133711
0.0139367
0.0143213
0.00952489
0.00470589
0.00488689
0.00500001
0.0100453
0.0150905
0.0101358
0.00522625
0.005362
0.00540725
0.000407251
0.000407252
0.0104073
0.0304751
0.0506109
0.100792
0.146018
0.166222
0.186538
0.182262
0.178597
0.170792
0.163665
0.152036
0.135181
0.107421
0.0787557
0.0492308
0.0242082
0.00386878
-0.00669682
-0.0024208
0.00192308
0.00142534
0.000972856
0.000520363
6.78785e-05
-0.00536199
-0.0107466
-0.00608597
0.00355203
0.0131448
0.0326697
0.057172
0.046629
0.00595024
0.0650226
0.158937
0.332828
0.526697
0.675588
0.819525
0.733507
0.607579
0.406855
0.19629
0.0858597
-0.0244344
-0.0695701
-0.114661
-0.104796
-0.095
-0.0952715
-0.0955882
-0.100905
-0.106244
-0.111629
-0.117036
-0.112398
-0.107715
-0.0980317
-0.0884389
-0.0790045
-0.0745023
-0.0898869
-0.100249
-0.105656
-0.111674
-0.108371
-0.105995
-0.109412
-0.113077
-0.116719
-0.119389
-0.121154
-0.122036
-0.12224
-0.127081
-0.136652
-0.141086
-0.14043
-0.139932
-0.14457
-0.149231
-0.143914
-0.143507
-0.153009
-0.157511
-0.157036
-0.156606
-0.156199
-0.145814
-0.135452
-0.130068
-0.124638
-0.114072
-0.103462
-0.0978733
-0.0923303
-0.0818552
-0.0713575
-0.0708145
-0.0702715
-0.0597285
-0.0491176
-0.0484615
-0.047828
-0.0472624
-0.0467194
-0.0311765
-0.0255656
-0.0199095
-0.0142308
-0.0184842
-0.0226471
-0.0267194
-0.0305656
-0.0342081
-0.0327602
-0.0212217
-0.0147285
-0.00828055
-0.00187783
-0.000520363
0.0057466
0.0168552
0.0227376
0.0184389
0.00400452
-0.0105656
-0.0052715
0.00495474
0.00518099
0.00538461
0.00554298
0.00567873
0.0058371
0.00601809
0.00115384
-0.00373304
0.00644796
0.0216968
0.0419683
0.0573077
0.0677375
0.0980995
0.153281
0.188733
0.189615
0.191312
0.188914
0.182172
0.176063
0.159548
0.122443
0.094457
0.070543
0.0461086
0.0111539
0.00101811
0.000701368
0.00542987
0.0152036
0.0199774
0.0147511
0.00950227
0.00923077
0.00891402
0.00357465
-0.00167422
0.00307691
0.0277375
0.0573756
0.0470362
0.0365384
0.0357013
0.0496832
0.193552
0.352421
0.56138
0.740407
0.79948
0.798665
0.587964
0.387398
0.201968
0.0516515
-0.0235294
-0.0787104
-0.0989141
-0.109118
-0.0942987
-0.0845249
-0.084819
-0.0851358
-0.0904299
-0.095724
-0.101063
-0.101425
-0.0867873
-0.0772172
-0.0777376
-0.0782806
-0.0787783
-0.0791403
-0.0845928
-0.0904751
-0.0969683
-0.0943213
-0.0824208
-0.0911539
-0.109796
-0.117805
-0.119932
-0.135973
-0.141312
-0.131222
-0.12086
-0.120294
-0.119729
-0.134186
-0.148643
-0.1531
-0.157534
-0.156946
-0.156357
-0.155814
-0.155317
-0.154842
-0.154367
-0.148891
-0.143394
-0.142873
-0.142353
-0.136855
-0.121335
-0.100769
-0.0901584
-0.0895475
-0.0840272
-0.0735973
-0.0680996
-0.0625113
-0.0519231
-0.0413349
-0.0357466
-0.0401584
-0.0445701
-0.0389819
-0.0384163
-0.0478507
-0.0521946
-0.046448
-0.0406109
-0.0347059
-0.0287556
-0.0276697
-0.0263122
-0.0247964
-0.0283258
-0.0318778
-0.0254751
-0.0191629
-0.0129412
-0.00687783
-0.0110633
-0.0154072
-0.00986426
-0.0044344
-0.00918552
-0.0140272
-0.0138914
-0.0137557
-0.0135973
-0.0134389
-0.0133258
-0.0132353
-0.0081448
-0.00807692
-0.0230543
-0.0180769
0.0119005
0.0270362
0.0323529
0.0726244
0.132851
0.163077
0.183371
0.179299
0.165928
0.158484
0.151833
0.130452
0.109072
0.0817195
0.0534389
0.0293213
-0.000475094
-0.00558823
-0.010905
-0.016267
-0.0216742
-0.0120588
-0.00242082
-0.0027828
-0.00314479
-0.00355203
-0.0039819
-0.00438915
-0.00477377
0.00988685
0.0294117
0.043733
0.0429412
0.0170362
0.0409955
0.144796
0.288597
0.482398
0.651267
0.800249
0.789231
0.648213
0.452376
0.221719
0.0761086
-0.0194344
-0.0798869
-0.125249
-0.125588
-0.105905
-0.101267
-0.0966742
-0.0971719
-0.107715
-0.113258
-0.108801
-0.104321
-0.104842
-0.105407
-0.096086
-0.0969005
-0.0976923
-0.093371
-0.0891855
-0.0902263
-0.0919005
-0.099276
-0.107443
-0.106471
-0.105385
-0.11905
-0.131697
-0.135294
-0.136131
-0.136244
-0.135973
-0.135407
-0.134932
-0.134502
-0.13914
-0.148891
-0.153665
-0.153416
-0.1531
-0.152715
-0.152308
-0.156923
-0.156606
-0.146335
-0.141086
-0.13586
-0.125611
-0.115339
-0.100045
-0.0847285
-0.0794344
-0.0791629
-0.0788462
-0.0734842
-0.0631674
-0.0578959
-0.0526244
-0.0473303
-0.041991
-0.036629
-0.0362896
-0.0359729
-0.0306335
-0.0252941
-0.0200226
-0.0146833
-0.0241403
-0.0335068
-0.032828
-0.0319683
-0.0308597
-0.0296154
-0.0232805
-0.0169909
-0.0107918
-0.00470588
-0.00373303
-0.00289592
0.00280544
0.00834842
0.00873304
0.00893666
0.00393666
-0.00608597
-0.0161312
-0.0162443
-0.00642532
-0.00153846
-0.0015837
-0.00160632
0.00339368
0.00337105
-0.00669682
-0.01181
-0.00696832
0.0328959
0.0778507
0.102919
0.128009
0.158009
0.188145
0.183756
0.18
0.172081
0.16491
0.163394
0.15181
0.109615
0.0715611
0.0474435
0.0276471
0.0174208
0.00692309
0.00122175
-0.00450225
-0.0101584
-0.0157466
-0.00126696
0.0032353
0.00271495
0.00212671
-0.00348414
-0.00402714
0.00545251
0.0298416
0.0641855
0.0634615
0.0376018
0.0665385
0.120362
0.27414
0.447873
0.631584
0.820272
0.799005
0.752873
0.531855
0.745928
0.145136
-0.00549773
-0.0859955
-0.156448
-0.141878
-0.127308
-0.112783
-0.0983032
-0.0988462
-0.0994118
-0.110023
-0.120656
-0.121267
-0.116855
-0.102466
-0.0931674
-0.093914
-0.0946606
-0.0954072
-0.0960407
-0.0966289
-0.0977376
-0.0994118
-0.101968
-0.110362
-0.119389
-0.118643
-0.117059
-0.11957
-0.125995
-0.136584
-0.141719
-0.136516
-0.131154
-0.130724
-0.130339
-0.129977
-0.139593
-0.154186
-0.158801
-0.163462
-0.163167
-0.157896
-0.157624
-0.157353
-0.152081
-0.14681
-0.131493
-0.116131
-0.110769
-0.105407
-0.100045
-0.0946833
-0.0792986
-0.0638914
-0.0635294
-0.0632127
-0.0529186
-0.0426244
-0.0472851
-0.0519005
-0.0564932
-0.061086
-0.0556561
-0.0452489
-0.0349095
-0.0245701
-0.0141855
-0.0135747
-0.0227149
-0.0267195
-0.0305882
-0.0343213
-0.0329412
-0.0266516
-0.0154299
-0.00925339
-0.00312217
0.00296381
-0.00106334
-0.00536198
9.05134e-05
0.00536201
0.00549776
0.00556562
0.00556562
0.010543
0.0154977
0.00540724
-0.0047285
-0.00979637
-0.0148416
-0.00486424
0.00511313
-0.00497736
-0.0100679
0.00993214
0.0300226
0.045181
0.075362
0.125453
0.155724
0.16629
0.177489
0.179412
0.182195
0.18086
0.159434
0.127805
0.100158
0.0734616
0.0390725
0.00900458
-0.00149316
-0.00735287
-0.00812211
0.00122178
0.00570142
0.000294179
-0.000135683
0.00941183
0.0139367
0.00843897
0.00294122
0.00244347
0.0219684
0.0414706
0.045905
0.050181
0.0342534
0.0331675
0.161946
0.300679
0.499412
0.68319
0.822014
0.87595
0.700045
0.504276
0.268416
0.0878733
-0.00760179
-0.0780769
-0.113507
-0.128914
-0.114321
-0.104728
-0.105136
-0.105566
-0.111041
-0.111538
-0.102059
-0.0976244
-0.0982127
-0.0988009
-0.0944118
-0.0901357
-0.0958597
-0.10138
-0.101968
-0.103054
-0.0997964
-0.0973303
-0.105701
-0.114864
-0.114005
-0.117624
-0.125294
-0.126742
-0.12733
-0.132308
-0.136968
-0.136425
-0.135928
-0.13052
-0.125181
-0.12991
-0.134525
-0.143982
-0.153439
-0.157986
-0.162624
-0.16233
-0.156991
-0.141584
-0.131199
-0.130814
-0.130385
-0.12491
-0.114412
-0.0989367
-0.0835747
-0.0682805
-0.0578959
-0.0524434
-0.046991
-0.0465385
-0.0460407
-0.0404977
-0.035
-0.0345475
-0.0341403
-0.0387557
-0.0382579
-0.0276697
-0.0271267
-0.0366063
-0.0309955
-0.0102941
-0.0145249
-0.0186199
-0.0275113
-0.036267
-0.0199321
-0.00355204
-0.00721721
-0.0109276
-0.00970588
-0.00861992
-0.00271494
0.0029638
-0.00158371
-0.00131222
0.0138235
0.0238914
0.018914
0.00893665
-0.00599548
-0.0159276
-0.010905
-0.00595024
-0.0110181
-0.0159729
-0.0158597
-0.0107692
-0.00067874
0.014457
0.029638
0.0648416
0.110068
0.145226
0.175385
0.186154
0.187557
0.179796
0.167851
0.141606
0.115656
0.0938914
0.116199
0.0423982
0.0177602
0.012715
0.00737559
0.00685523
0.00626699
0.00579187
0.00538463
-2.26051e-05
-0.00542985
-0.00585973
-0.00628959
0.00334843
0.0130317
0.0127149
0.0173077
0.0468326
0.0513122
0.0206787
0.0497285
0.163507
0.312308
0.491154
0.680091
0.869072
0.878054
0.762104
0.55129
0.290611
0.110091
-0.0302941
-0.105611
-0.155882
-0.151154
-0.126425
-0.101697
-0.0769457
-0.0921493
-0.117353
-0.117647
-0.108009
-0.0933937
-0.0838009
-0.0992081
-0.114683
-0.105226
-0.0957014
-0.101086
-0.106538
-0.107081
-0.108167
-0.0898869
-0.0724208
-0.0907919
-0.109367
-0.113122
-0.115611
-0.12181
-0.127217
-0.12681
-0.126063
-0.120023
-0.119005
-0.133054
-0.142308
-0.141697
-0.141109
-0.140588
-0.140023
-0.139344
-0.13871
-0.133122
-0.132579
-0.142081
-0.141493
-0.130814
-0.120158
-0.109525
-0.103914
-0.0983484
-0.0778054
-0.0572625
-0.0517421
-0.0511991
-0.045543
-0.039819
-0.0391177
-0.0384616
-0.0328959
-0.0273756
-0.0117873
0.00384616
-0.0155204
-0.0348869
-0.0342534
-0.0335973
-0.0228733
-0.0120588
-0.0112217
-0.0102036
-0.00895929
-0.00753395
-0.0109502
-0.00934391
0.0072398
0.0137783
0.000248853
-0.0085068
-0.0024887
0.00837103
0.019276
0.024819
0.0202262
0.0155882
0.020905
0.0212443
0.0116063
0.0069457
0.00726243
0.00748868
0.0076923
0.00794117
0.00321266
-0.00144798
-0.00104073
0.0193439
0.0397059
0.0551584
0.0756109
0.140905
0.201335
0.19733
0.194027
0.181516
0.169842
0.169027
0.163258
0.136968
0.104729
0.0713122
0.0420815
0.0222172
0.0070136
0.00658373
0.00615387
0.0108145
0.0105882
-0.0045249
-0.00966064
0.000135727
0.00493212
0.00477375
0.00472849
0.0047511
0.0246153
0.0543212
0.0489366
0.0284615
0.0427375
0.0668325
0.195814
0.349751
0.543846
0.7431
0.797353
0.841629
0.565995
0.280498
0.105136
-0.0701132
-0.140249
-0.205339
-0.200385
-0.190407
-0.145498
-0.105634
-0.100792
-0.0959729
-0.101177
-0.10638
-0.101538
-0.0966742
-0.0967873
-0.096991
-0.10233
-0.107715
-0.1081
-0.108416
-0.103756
-0.0947059
-0.0863349
-0.0838235
-0.0870136
-0.0955883
-0.10914
-0.116697
-0.118281
-0.118959
-0.113937
-0.113484
-0.122738
-0.126833
-0.130837
-0.135023
-0.134344
-0.133688
-0.138054
-0.142398
-0.131719
-0.136041
-0.140362
-0.144683
-0.149005
-0.143371
-0.13776
-0.137081
-0.13638
-0.115724
-0.0950905
-0.0844344
-0.0737331
-0.0679864
-0.0622172
-0.0565159
-0.0508371
-0.0551358
-0.0594344
-0.0537783
-0.0480996
-0.0323756
-0.031629
-0.0408598
-0.0450905
-0.0493439
-0.0535973
-0.0478281
-0.0369683
-0.0260181
-0.0200226
-0.0139593
-0.0125792
-0.0208824
-0.0241403
-0.0173982
-0.0108371
-0.00941179
-0.00807695
-0.00683261
-0.00574663
-0.00486428
-0.00418554
-0.00366517
-0.00323531
-0.00291856
0.0023303
0.00755654
0.00782803
0.00812215
-0.0016516
-0.0114706
-0.0112896
-0.011086
-0.0208371
-0.0255883
-0.00531677
0.0149773
0.0454298
0.0758823
0.126267
0.161652
0.187081
0.198122
0.184887
0.172511
0.161018
0.144774
0.128733
0.101471
0.0679412
0.0385973
0.0134389
0.00298642
-0.00273757
-0.00848417
-0.00923078
-0.0097964
-0.00518101
-0.000497743
0.00423075
0.00393663
-0.00638011
-0.0116516
-0.0118552
0.0079864
0.0277149
0.0372172
0.0466289
0.0410181
0.0552036
0.19414
0.348077
0.557059
0.731086
0.820158
0.814231
0.598281
0.387466
0.186787
0.031267
-0.0590724
-0.119299
-0.139457
-0.144706
-0.125045
-0.115362
-0.110634
-0.105928
-0.101267
-0.0966064
-0.0968779
-0.097172
-0.0974887
-0.0978507
-0.0933032
-0.0889141
-0.0895702
-0.0901358
-0.0956788
-0.101222
-0.102059
-0.103462
-0.105679
-0.108869
-0.102647
-0.106787
-0.110362
-0.112964
-0.114638
-0.125339
-0.135475
-0.140136
-0.144683
-0.144231
-0.143801
-0.148439
-0.153122
-0.152783
-0.152398
-0.147014
-0.141606
-0.146177
-0.155769
-0.17043
-0.175091
-0.149706
-0.134276
-0.118824
-0.108394
-0.102986
-0.0925566
-0.0821041
-0.0766969
-0.0763349
-0.0659955
-0.0506788
-0.0452941
-0.0498417
-0.0544118
-0.0540045
-0.0486199
-0.0382579
-0.0378733
-0.0474434
-0.0470136
-0.0515837
-0.0360634
-0.0404751
-0.0447964
-0.0489819
-0.0328959
-0.016629
-0.0202715
-0.0238914
-0.0175792
-0.0113348
-0.010181
-0.0091629
-0.0132805
-0.0176018
-0.0120362
-0.00678735
-0.0116969
-0.016629
-0.0065611
0.00346153
0.00846153
0.00841628
-0.00165161
-0.00674209
-0.00685522
-0.00694572
-0.0120588
-0.0221946
-0.0323303
-0.00737558
0.037647
0.052647
0.057647
0.10267
0.162805
0.173552
0.174977
0.172376
0.165588
0.164208
0.162805
0.130452
0.102172
0.0679637
0.0329864
0.00753386
-0.0181901
-0.00395936
0.0102714
-0.000407286
-0.0110634
-0.00674215
-0.00242086
-0.00805435
-0.0136426
-0.0142308
-0.0147286
-0.0101358
0.00443434
0.0440045
0.0584389
0.0377149
0.0319457
0.0510859
0.135
0.268733
0.457443
0.676131
0.809819
0.893552
0.77233
0.551199
0.340204
0.129344
0.00855199
-0.082172
-0.107783
-0.118326
-0.118846
-0.109367
-0.104977
-0.105611
-0.106154
-0.0966743
-0.0972625
-0.0978507
-0.0934616
-0.0890725
-0.0946833
-0.100407
-0.106177
-0.111923
-0.107602
-0.103235
-0.108846
-0.114955
-0.106629
-0.0991629
-0.0976018
-0.0966516
-0.111199
-0.124774
-0.122398
-0.118937
-0.124457
-0.129525
-0.134185
-0.143778
-0.153348
-0.157986
-0.157715
-0.152376
-0.142059
-0.141787
-0.151561
-0.156244
-0.150837
-0.14543
-0.145045
-0.144751
-0.13948
-0.129208
-0.118914
-0.103597
-0.113281
-0.0729412
-0.0625792
-0.0672172
-0.0718778
-0.0665385
-0.0611765
-0.0507919
-0.0404073
-0.0300679
-0.0197285
-0.0243439
-0.028914
-0.0284615
-0.0280317
-0.0276471
-0.022172
-0.00651584
0.00418551
-0.00511312
-0.0141855
-0.00796381
-0.00165159
-0.00529412
-0.00898191
-0.00773756
-0.00658372
-0.0105204
-0.0146606
-0.00900453
0.00642534
0.0216516
0.0217421
0.0116968
0.00669683
0.00674208
0.0116742
0.0215385
0.0264253
0.0213348
0.0161991
0.0160181
-0.00418554
-0.0243665
-0.0194344
-0.0144118
0.0207466
0.0559276
0.0659729
0.0809729
0.126086
0.166584
0.172647
0.179548
0.182466
0.186018
0.179977
0.163394
0.135792
0.107217
0.0826697
0.0575113
0.0268778
0.0062217
0.000610828
-3.72529e-08
0.0144344
0.0138009
-0.0069231
-0.0126471
0.00667418
0.0110407
0.0104751
-3.72529e-08
-0.0154299
0.00402711
0.038371
0.0476244
0.0466516
0.0453846
0.0439819
0.162534
0.296063
0.489706
0.688462
0.832285
0.956199
0.745136
0.52914
0.283303
0.0576697
-0.0378055
-0.118258
-0.13371
-0.149186
-0.134729
-0.120339
-0.120996
-0.121674
-0.117376
-0.113009
-0.11862
-0.124208
-0.129729
-0.130339
-0.106086
-0.096991
-0.0979865
-0.103778
-0.114457
-0.120339
-0.121719
-0.123778
-0.131674
-0.135566
-0.130045
-0.129389
-0.133145
-0.135656
-0.137127
-0.142715
-0.152692
-0.162398
-0.171991
-0.176584
-0.176199
-0.170882
-0.165588
-0.160226
-0.154774
-0.159299
-0.163891
-0.173529
-0.183213
-0.177986
-0.17276
-0.157466
-0.142149
-0.131833
-0.116516
-0.101176
-0.0907919
-0.085362
-0.0799547
-0.0746154
-0.0692986
-0.0539819
-0.0486199
-0.04819
-0.0477376
-0.0423077
-0.0368552
-0.0313575
-0.0359502
-0.0556335
-0.0603167
-0.05
-0.0395022
-0.0288235
-0.0230769
-0.0272398
-0.0261991
-0.0149774
-0.0087104
-0.0124208
-0.0161991
-0.0200226
-0.018914
-0.0129185
-0.00705881
-0.00135746
0.0141855
0.0295249
0.00963801
-0.0104072
-0.010543
-0.0107013
0.00920816
0.0291177
0.0289367
0.0287331
0.0186199
0.0035068
-0.0116289
-0.0168326
0.0028733
0.0226923
0.0376923
0.0827149
0.152715
0.187715
0.192715
0.193281
0.17948
0.166538
0.15948
0.148077
0.13724
0.115407
0.0875566
0.0486199
0.00868782
-0.00165156
-0.00735291
-0.0131674
-0.00907236
9.0532e-05
0.00932129
0.0185294
0.032715
0.0169457
0.00122175
-0.00950223
-0.0202488
0.00393669
0.0330996
0.067353
0.0916064
0.0558145
0.0397738
0.0984163
0.196991
0.38552
0.579005
0.792398
0.91586
0.889434
0.763145
0.496968
0.27595
0.0900905
-0.0356335
-0.10129
-0.132014
-0.132805
-0.128643
-0.114502
-0.105271
-0.105973
-0.116719
-0.132466
-0.128167
-0.113846
-0.0995928
-0.0854751
-0.0914932
-0.107579
-0.11362
-0.119615
-0.125543
-0.12681
-0.123733
-0.121493
-0.120204
-0.11948
-0.124186
-0.128032
-0.135566
-0.142059
-0.142602
-0.142692
-0.152398
-0.161923
-0.16129
-0.160792
-0.155249
-0.150068
-0.154864
-0.159683
-0.164525
-0.169299
-0.16905
-0.168869
-0.17371
-0.173507
-0.158281
-0.147964
-0.142579
-0.137262
-0.136991
-0.131742
-0.121516
-0.101199
-0.0808371
-0.0656788
-0.0506561
-0.0455656
-0.0454073
-0.0451131
-0.0446606
-0.0440724
-0.0434842
-0.0380317
-0.0326471
-0.0272625
-0.0219005
-0.0264932
-0.0309729
-0.0253167
-0.0194344
-0.0182353
-0.0169457
-0.020724
-0.0245249
-0.0183937
-0.0123529
-0.0114027
-0.010543
0.000248872
0.0109955
0.00667421
0.00205883
-0.00285068
-0.00289592
0.0069457
0.0116968
0.0114027
0.0111312
0.015905
0.0208371
0.0159276
0.010905
0.00576922
0.00554298
0.0152262
0.0200679
0.0250905
0.0353167
0.0457014
0.0959276
0.156063
0.166403
0.177127
0.188665
0.206131
0.194728
0.183891
0.162851
0.141199
0.108326
0.0744344
0.0397059
0.014457
0.0189819
0.023371
0.0277149
0.0320588
0.0164706
0.00588237
0.0202036
0.0245249
0.00882354
-0.00185519
0.00253394
0.0221041
0.0568552
0.0764253
0.0808145
0.0850905
0.0791855
0.167986
0.326584
0.520272
0.73405
0.862828
0.961606
0.775385
0.499208
0.273145
0.0622172
-0.038552
-0.119163
-0.154683
-0.185181
-0.160679
-0.191176
-0.116652
-0.112149
-0.0977376
-0.0833937
-0.0941176
-0.104796
-0.0903394
-0.0758371
-0.0813575
-0.0920362
-0.117828
-0.138575
-0.124253
-0.109932
-0.100566
-0.0917421
-0.0983258
-0.0956335
-0.0736425
-0.0671946
-0.086086
-0.104027
-0.116018
-0.131968
-0.162014
-0.161652
-0.14095
-0.14009
-0.154163
-0.153439
-0.142873
-0.147398
-0.161991
-0.166538
-0.166041
-0.150611
-0.130204
-0.124796
-0.124367
-0.118869
-0.108371
-0.102964
-0.102602
-0.117195
-0.131719
-0.106222
-0.080724
-0.0602715
-0.0398416
-0.0243439
-0.00886877
-0.00348415
-0.00305429
-0.0275113
-0.0469231
-0.0363348
-0.0257692
-0.0152489
-0.00468325
-0.0140271
-0.023371
-0.0327149
-0.0419909
-0.0411991
-0.0352036
-0.0189593
-0.00264705
0.00873305
9.05097e-05
-0.033552
-0.0321719
-0.0108145
0.000384618
0.00642534
0.0122625
0.0128733
0.00325793
-0.0115385
-0.0113575
-0.00117646
0.00404979
0.00429866
0.0144344
0.0345023
0.0246606
0.0148643
0.0150226
0.0151584
-0.00970586
-0.0345022
0.000859752
0.0263122
0.04681
0.082353
0.142851
0.188733
0.175317
0.16276
0.171176
0.180181
0.184638
0.178213
0.150498
0.11681
0.0822172
0.0471494
0.0166969
0.0010634
0.000271529
-0.000384599
-0.00115383
0.0084163
0.0230091
0.0326244
0.0422624
0.0268778
-0.00350678
-0.0137556
-0.0139366
0.0207014
0.0602263
0.0596154
0.0488009
0.0528733
0.0418552
0.165769
0.264683
0.443552
0.617443
0.751493
0.840679
0.634932
0.424231
0.193643
-0.00694569
-0.0976018
-0.173122
-0.203416
-0.21371
-0.16405
-0.124525
-0.11
-0.100452
-0.105928
-0.111493
-0.0971267
-0.0926923
-0.0981674
-0.108575
-0.118959
-0.114525
-0.095181
-0.0857466
-0.0863801
-0.0924887
-0.104231
-0.111674
-0.109819
-0.10871
-0.117715
-0.111131
-0.0936878
-0.105181
-0.125882
-0.131086
-0.13595
-0.135475
-0.129864
-0.139253
-0.148665
-0.143213
-0.137783
-0.142285
-0.146787
-0.141312
-0.135905
-0.14052
-0.145045
-0.129457
-0.113914
-0.133575
-0.143258
-0.132851
-0.122376
-0.111855
-0.0963348
-0.0808371
-0.065362
-0.0549321
-0.0495023
-0.0540271
-0.0535068
-0.0429638
-0.0374208
-0.0418326
-0.046267
-0.050724
-0.0551584
-0.0495701
-0.0440724
-0.0436652
-0.0430543
-0.0472851
-0.051448
-0.0454525
-0.0391403
-0.0326244
-0.0262217
-0.0249095
-0.0235747
-0.0222172
-0.0108597
0.000384621
-0.00861991
-0.0178733
-0.0123529
-0.00701357
-0.00180995
0.00332579
-0.00156108
-0.00649322
-0.00647059
-0.00647059
0.00350679
0.0135973
0.00880091
-0.00110859
-0.0161991
-0.0163122
0.0185973
0.0336425
0.0388462
0.0640272
0.10414
0.139276
0.164367
0.175023
0.181131
0.183077
0.175837
0.159186
0.132919
0.110701
0.0775113
0.0633032
0.0482127
0.017715
-0.0131222
-0.0141176
-0.020181
0.00895931
0.0182579
0.00762444
-0.00300904
0.011267
0.0255656
0.0250226
0.0245475
0.014095
0.00859729
0.0530091
0.082353
0.0666968
0.080905
0.170272
0.29414
0.472851
0.651493
0.835113
0.878778
0.762443
0.586199
0.355113
0.179231
0.0434615
-0.0521946
-0.11776
-0.138303
-0.128801
-0.114321
-0.0948642
-0.100362
-0.125814
-0.136312
-0.131855
-0.112443
-0.0930317
-0.0986425
-0.114253
-0.114751
-0.105271
-0.101086
-0.101946
-0.107624
-0.113326
-0.10914
-0.105475
-0.112489
-0.120294
-0.123959
-0.128009
-0.137376
-0.14595
-0.138529
-0.130181
-0.13595
-0.141312
-0.14629
-0.151131
-0.155792
-0.160452
-0.170136
-0.179819
-0.174525
-0.174253
-0.183959
-0.18371
-0.173507
-0.168235
-0.167919
-0.167647
-0.167421
-0.152127
-0.126765
-0.106425
-0.0911086
-0.0857919
-0.0854751
-0.0851357
-0.0797737
-0.069457
-0.0591855
-0.0439366
-0.0236878
-0.0383484
-0.0529412
-0.0425566
-0.0322172
-0.0369231
-0.0416063
-0.0361086
-0.0304977
-0.024819
-0.0190045
-0.0179864
-0.0168326
-0.0156335
-0.0144118
-0.0181674
-0.0219231
-0.015724
-0.00963799
-0.00371039
0.00208146
-0.00230768
-0.00687781
-0.00662894
-0.0064932
-0.00147057
0.00348418
0.00834843
0.0133032
0.0132579
0.0231222
0.0378959
0.0277376
0.00764706
-0.00246606
-0.0126018
-0.0127602
-0.00291855
0.0171493
0.0373756
0.0775113
0.0426697
0.14819
0.174253
0.186109
0.198756
0.19724
0.195928
0.189118
0.176561
0.123009
0.0786652
0.0486652
0.0232127
0.0174661
0.011629
0.00583714
9.05208e-05
-0.00558821
-0.0112896
-0.00710404
-0.00300903
0.0110634
0.0152489
0.0145475
0.0088914
-0.0017647
0.0175566
0.0618778
0.0611086
0.0302036
0.0441177
0.0778281
0.206357
0.369774
0.558167
0.756561
0.845023
0.908552
0.732127
0.520792
0.319638
0.118665
0.0227828
-0.0679864
-0.10362
-0.139208
-0.134819
-0.130452
-0.131154
-0.131946
-0.13276
-0.133597
-0.119502
-0.105407
-0.116222
-0.126991
-0.11776
-0.10871
-0.114842
-0.120837
-0.126652
-0.132579
-0.12871
-0.125543
-0.128145
-0.131742
-0.131109
-0.130475
-0.12957
-0.132511
-0.144344
-0.15043
-0.150928
-0.15095
-0.155656
-0.160317
-0.164955
-0.174615
-0.184299
-0.188959
-0.193597
-0.188213
-0.172828
-0.167489
-0.167172
-0.166878
-0.166584
-0.161222
-0.15586
-0.150543
-0.145226
-0.119932
-0.0946154
-0.0992308
-0.103824
-0.0884163
-0.0730091
-0.0625566
-0.0521041
-0.0417421
-0.0313122
-0.0307918
-0.0302941
-0.0248642
-0.019457
-0.0240724
-0.0286425
-0.0331222
-0.0375339
-0.0318778
-0.0210181
-0.0102941
-0.00407239
0.00228507
0.00866516
0.0100679
0.011448
0.00780543
-0.000927607
-0.00979638
-0.00898191
0.0015837
0.00699094
0.00723981
0.00742081
0.00755656
0.0126471
0.0176471
0.0175566
0.0174208
0.0272851
0.0371493
0.0321041
0.0271041
0.0121041
-0.00291855
0.00199095
0.011991
0.0372398
0.0674661
0.102602
0.142692
0.187964
0.218846
0.220498
0.217919
0.206154
0.194796
0.183733
0.161968
0.134344
0.105792
0.0813122
0.0513801
0.0160181
0.000497747
-0.000180986
-0.000837095
0.00352942
0.0128959
0.0222624
0.0266516
0.0310407
0.0304525
0.0199095
0.0143439
0.0137557
0.0532127
0.0926697
0.0770362
0.0613575
0.105633
0.164751
0.323733
0.492579
0.711267
0.88491
0.893575
0.842263
0.600996
0.374796
0.19362
0.0475339
-0.0484615
-0.109344
-0.125136
-0.135701
-0.126086
-0.116561
-0.117127
-0.11776
-0.123462
-0.124163
-0.114819
-0.110407
-0.11095
-0.116471
-0.126991
-0.122579
-0.108258
-0.104095
-0.104932
-0.115475
-0.131018
-0.137036
-0.133824
-0.131516
-0.139932
-0.138937
-0.12276
-0.13095
-0.138213
-0.144434
-0.149909
-0.154729
-0.159186
-0.168394
-0.177624
-0.171946
-0.166425
-0.171018
-0.175543
-0.179955
-0.184321
-0.178665
-0.173077
-0.172579
-0.172081
-0.161606
-0.146086
-0.13052
-0.120045
-0.114615
-0.10414
-0.0936425
-0.08819
-0.0827828
-0.0672851
-0.0516968
-0.046086
-0.0404525
-0.0347964
-0.0391176
-0.0434842
-0.0428507
-0.0421719
-0.0365385
-0.0359729
-0.0453846
-0.0396154
-0.0486425
-0.0224434
-0.0260633
-0.0295475
-0.0329186
-0.0113122
0.0102489
0.0117647
0.0132353
-0.00536199
-0.0240724
-0.0178959
-0.0119004
-0.00610859
-0.000610855
-0.000135739
7.45058e-09
0.000181004
0.000361997
0.000565617
0.000791863
-0.00395927
-0.00368778
0.00660634
0.0118778
0.00708145
0.00226245
0.00244345
0.0128281
0.0284163
0.0339819
0.0395023
0.0701358
0.105973
0.142489
0.179729
0.192964
0.197036
0.201267
0.200339
0.188303
0.175226
0.151312
0.131719
0.106719
0.0814706
0.0261312
-0.019276
-0.00966063
-2.26274e-05
0.00959276
0.0192081
0.0238462
0.0285294
0.0183032
0.0080543
0.00271493
0.00235294
0.0219683
0.0466742
0.0865158
0.091267
0.0508824
0.0752489
0.174367
0.338371
0.552308
0.726199
0.865023
0.833959
0.703077
0.507262
0.276538
0.110928
-0.0295701
-0.104955
-0.165249
-0.165498
-0.150747
-0.121018
-0.0912896
-0.0965837
-0.1119
-0.117217
-0.117534
-0.0978054
-0.0780317
-0.0782579
-0.0784842
-0.0986878
-0.119005
-0.099457
-0.0797964
-0.0849774
-0.0902262
-0.0805882
-0.0715611
-0.08819
-0.105475
-0.113439
-0.121425
-0.119367
-0.115995
-0.111425
-0.116267
-0.140566
-0.14457
-0.123348
-0.117262
-0.13138
-0.145656
-0.160113
-0.15948
-0.143891
-0.138281
-0.132647
-0.126923
-0.131109
-0.135317
-0.134548
-0.133891
-0.138348
-0.127783
-0.107195
-0.0715611
-0.100905
-0.0402941
-0.0497059
-0.0491403
-0.0485747
-0.0429638
-0.0373303
-0.0367421
-0.0361765
-0.030543
-0.0248643
-0.0242081
-0.0235294
-0.0277828
-0.0319683
-0.041086
-0.0451584
-0.0242308
-0.00816742
0.00305431
0.0144796
0.0161086
0.00776019
-0.0156109
-0.0289819
-0.0223756
-0.015905
-0.00957012
-0.00334841
-0.00721718
-0.0112217
-0.00538461
0.000135757
0.00540726
0.0107014
0.0160181
0.0163575
0.00671947
-0.00289593
-0.0124887
-0.00210407
0.0182353
0.0185068
0.0137557
-0.000927597
-0.0155204
0.0100679
0.0406787
0.0861312
0.126719
0.14776
0.169548
0.187308
0.20086
0.185023
0.169027
0.152443
0.129955
0.101403
0.0721493
0.0423077
0.0171041
-0.00339369
-0.013914
-0.00438916
0.000248857
-2.23517e-08
-0.000271514
-0.00561088
-0.0109503
-0.016267
-0.0214933
-0.021629
-0.0217421
-0.0168326
0.0229411
0.0675339
0.0521041
0.0216289
0.0459729
0.0801584
0.219276
0.368371
0.527398
0.69138
0.700385
0.694434
0.408597
0.137919
0.00239819
-0.118009
-0.183394
-0.228688
-0.198801
-0.163891
-0.124095
-0.0943891
-0.0897738
-0.085181
-0.0955656
-0.10586
-0.106063
-0.106244
-0.101448
-0.0967421
-0.0921041
-0.0876245
-0.0882579
-0.088733
-0.0941177
-0.0947285
-0.0859955
-0.0828055
-0.0804525
-0.0838462
-0.0974435
-0.105385
-0.102534
-0.0987557
-0.104299
-0.109434
-0.109231
-0.118756
-0.133167
-0.137602
-0.137059
-0.141561
-0.136086
-0.13552
-0.134887
-0.144231
-0.153552
-0.147851
-0.142172
-0.141606
-0.141109
-0.125611
-0.110113
-0.10957
-0.108982
-0.103416
-0.0928959
-0.0773303
-0.0667647
-0.0611991
-0.0556561
-0.0501357
-0.0445701
-0.0440045
-0.0434615
-0.0479411
-0.0473529
-0.0366516
-0.0309276
-0.0252036
-0.0195248
-0.0188914
-0.0181221
-0.0221945
-0.0260859
-0.024819
-0.0234389
-0.0219457
-0.0204072
-0.0138461
-0.00737555
-0.00599545
0.000271507
0.00640273
-0.00262441
-0.0118552
-0.0063122
-0.000950202
0.00427603
0.00941178
0.0145475
0.0196833
0.0198417
0.0199774
0.0150227
0.0100227
0.0100227
0.01
0.00495479
-9.04649e-05
0.00988691
0.0300453
0.0554073
0.085724
0.120928
0.151222
0.176652
0.192715
0.194457
0.1919
0.185068
0.173303
0.156538
0.128484
0.0992081
0.0692986
0.0388235
0.0130543
-0.00791858
-0.00875569
0.000565574
0.00506783
0.00970584
0.0143439
0.0239819
0.00857464
-0.00687784
-0.00733032
-0.00776019
0.00687782
0.0215611
0.0562896
0.0760633
0.0508144
0.050362
0.134683
0.248937
0.428167
0.602262
0.766199
0.810113
0.668959
0.497828
0.291765
0.140769
0.0547963
-0.0160408
-0.0767421
-0.102308
-0.10276
-0.103145
-0.103462
-0.103824
-0.104186
-0.104548
-0.0999095
-0.0953394
-0.100837
-0.10629
-0.106697
-0.107104
-0.102511
-0.0978733
-0.103235
-0.108733
-0.109253
-0.104706
-0.110181
-0.105747
-0.101833
-0.0936199
-0.0862443
-0.0997511
-0.113416
-0.122104
-0.130023
-0.137036
-0.143371
-0.148982
-0.154163
-0.159683
-0.164321
-0.168869
-0.173416
-0.167986
-0.162534
-0.167036
-0.171538
-0.166041
-0.160543
-0.160023
-0.159502
-0.154005
-0.148484
-0.142941
-0.127443
-0.106991
-0.0914932
-0.0809502
-0.0704072
-0.0598642
-0.0542986
-0.0587104
-0.0531448
-0.0376018
-0.0320588
-0.0365158
-0.0359502
-0.030362
-0.0297738
-0.0291629
-0.0284615
-0.0276471
-0.0317421
-0.035724
-0.0295475
-0.0232353
-0.02181
-0.0203167
-0.0138009
-0.00728506
-0.0107919
-0.0143891
-0.0131222
-0.0119909
-0.00599547
-0.000203609
0.000384621
0.000791863
0.00104074
0.00126698
0.00151585
0.00169684
0.00680996
0.0119457
0.0121267
0.0122398
0.0122851
0.00730769
-0.00269232
-0.00760182
-0.0124208
-0.0171041
-0.0117195
0.033552
0.0788235
0.094457
0.110588
0.147511
0.190204
0.198665
0.207353
0.200407
0.19267
0.183959
0.17457
0.139842
0.109819
0.0695023
0.0290498
0.00861991
-0.00680995
-0.00228507
0.0022172
0.00167422
0.00115385
0.00567874
0.0102489
0.00481901
-0.000633493
-0.00108598
-0.00153848
0.00303166
0.0176697
0.0473303
0.0519004
0.04138
0.0557918
0.0900452
0.21405
0.372896
0.561697
0.760475
0.799253
0.803054
0.6319
0.425814
0.274819
0.123937
0.0331673
0.112489
-0.0781222
-0.0986652
-0.099163
-0.0996607
-0.110136
-0.120611
-0.121154
-0.121742
-0.122285
-0.122783
-0.118281
-0.113778
-0.114231
-0.114661
-0.115045
-0.115611
-0.121244
-0.126674
-0.121946
-0.117511
-0.118462
-0.120294
-0.118032
-0.116516
-0.12543
-0.133846
-0.141674
-0.148529
-0.154525
-0.164977
-0.174977
-0.179661
-0.174163
-0.16871
-0.168303
-0.167851
-0.167353
-0.166878
-0.171425
-0.17595
-0.180453
-0.174955
-0.16448
-0.16405
-0.163643
-0.148213
-0.132738
-0.117217
-0.101674
-0.0961539
-0.0906561
-0.070181
-0.0497285
-0.0492308
-0.0486878
-0.0481448
-0.0476245
-0.0421267
-0.0366064
-0.041086
-0.0455883
-0.0401132
-0.0346607
-0.0341856
-0.0334842
-0.0275566
-0.0215159
-0.015362
-0.00902718
-0.0124887
-0.0159503
-0.0144118
-0.00794121
0.0034615
0.0048416
-0.00380094
-0.00762448
-0.00165162
0.00404974
-0.000497766
-0.000181027
0.0100452
0.0152715
0.0254525
0.020543
0.0155882
0.0106787
0.0058597
0.00608595
0.0062217
0.00624433
0.00626695
-0.00364254
-0.0134616
0.00185519
0.0221493
0.0423303
0.0725566
0.132941
0.173914
0.195633
0.213235
0.206765
0.19543
0.184072
0.166968
0.143959
0.115271
0.085905
0.0611764
0.0418326
0.0215158
0.00601808
0.000542961
0.0001131
0.00470585
0.0142534
0.0186877
0.0130769
0.0075339
0.00703616
0.00658368
0.00117643
0.000746571
-0.00470591
0.0498642
0.0844344
0.0539366
0.0283258
0.102624
0.196742
0.395656
0.589457
0.75819
0.866946
0.760724
0.624525
0.408348
0.222308
0.101109
0.000248849
-0.0705883
-0.11129
-0.10681
-0.102262
-0.10767
-0.113145
-0.108688
-0.104231
-0.104796
-0.105385
-0.110973
-0.111448
-0.101833
-0.0972851
-0.0978281
-0.103439
-0.114072
-0.119593
-0.115
-0.110407
-0.106131
-0.102376
-0.109253
-0.116878
-0.120023
-0.118552
-0.116629
-0.128756
-0.139977
-0.140362
-0.140294
-0.139864
-0.139253
-0.143552
-0.147919
-0.157376
-0.166878
-0.171425
-0.175973
-0.170543
-0.165113
-0.159661
-0.154231
-0.158801
-0.163303
-0.157783
-0.142376
-0.122036
-0.106674
-0.0963349
-0.0909503
-0.0854751
-0.07
-0.0495023
-0.0390498
-0.0436426
-0.0582579
-0.0728507
-0.0573303
-0.0317421
-0.0311765
-0.0406561
-0.0452489
-0.0449095
-0.0344344
-0.0188235
-0.0131222
-0.0122625
-0.016086
-0.0196607
-0.0230769
-0.026448
-0.0149321
-0.00352943
-0.00723984
-0.0110181
-0.00984166
-0.00882356
-0.0180091
-0.0224208
0.00296377
0.0232805
0.0186199
0.00889137
-0.00588238
-0.00572401
0.0193891
0.0295475
0.0147059
0.00486421
4.52027e-05
-0.00481904
0.000248834
0.00529408
0.000294089
0.000565588
0.0110181
0.0313574
0.0565837
0.102059
0.147941
0.174864
0.197738
0.201267
0.195249
0.188733
0.181584
0.148439
0.179457
0.095
0.0801131
0.0448643
0.00941177
-0.00101811
-0.011448
0.00305427
0.0175339
0.0170814
0.0166742
0.0162669
0.0108371
-0.00966066
-0.0201584
-0.00563351
0.0139819
0.0435746
0.0631448
0.0526696
0.0421267
0.0465611
0.12095
0.255271
0.414457
0.578462
0.692285
0.775995
0.674819
0.468733
0.272647
0.0815837
-0.0243439
-0.100158
-0.135837
-0.156425
-0.141968
-0.117489
-0.102986
-0.0884842
-0.0840272
-0.0846154
-0.0902036
-0.0957919
-0.0863801
-0.0769683
-0.0925566
-0.108145
-0.0886878
-0.0692986
-0.0700226
-0.0706561
-0.0811539
-0.0916063
-0.0870588
-0.0830769
-0.0796833
-0.0769457
-0.0799095
-0.0931674
-0.121652
-0.139027
-0.135294
-0.125837
-0.110792
-0.10552
-0.120068
-0.129593
-0.129095
-0.133688
-0.143371
-0.158077
-0.172805
-0.167579
-0.152398
-0.142172
-0.1319
-0.136652
-0.151425
-0.146199
-0.130973
-0.105814
-0.0807013
-0.0854977
-0.105226
-0.0949547
-0.0847059
-0.0645022
-0.044276
-0.0489593
-0.0536199
-0.0583258
-0.0630543
-0.0528054
-0.0425792
-0.0373529
-0.0321041
-0.0368326
-0.0415384
-0.0461991
-0.0457466
-0.0251584
-0.0193439
-0.0483031
-0.0621719
-0.0359728
-0.0247285
-0.0184842
-0.0122851
-0.00613122
-0.00518099
-0.0191403
-0.023552
-0.0131222
-0.00791856
-0.00791855
-0.00298643
0.00687782
0.00680995
-0.00319005
-0.00821267
-0.00825793
-0.00332579
0.00656107
0.00633483
0.0110407
-0.00420816
0.000610843
0.000565596
0.000610843
0.0106335
0.0206108
0.0355656
0.0558371
0.0917421
0.128394
0.165792
0.19371
0.177014
0.164864
0.156787
0.142828
0.113009
0.0876924
0.0570136
0.0361991
0.0203168
0.00950228
-0.00619908
-0.0168326
-0.0123982
-0.00796378
-0.00355202
0.000837125
0.00520364
0.00961541
0.00407242
-0.00153845
-0.00721719
0.0221946
0.0666969
0.0611765
0.0405882
0.0348643
0.0390271
0.178145
0.327149
0.481018
0.629796
0.678484
0.712127
0.480724
0.259299
0.0979412
-0.0432579
-0.0992307
-0.140023
-0.135724
-0.126403
-0.102014
-0.0826244
-0.0832579
-0.0839593
-0.0797511
-0.0754977
-0.0761538
-0.0767647
-0.0773303
-0.0779412
-0.0786425
-0.0793439
-0.0750227
-0.0707014
-0.0663575
-0.0619684
-0.0676018
-0.0732353
-0.0790724
-0.0854525
-0.0824661
-0.0803846
-0.0888914
-0.0976018
-0.101041
-0.103575
-0.100272
-0.101222
-0.111674
-0.116833
-0.116855
-0.12181
-0.126742
-0.131584
-0.13638
-0.131267
-0.126199
-0.135995
-0.145724
-0.145452
-0.145204
-0.134977
-0.124774
-0.109638
-0.0895475
-0.0744796
-0.0643439
-0.0591629
-0.0539367
-0.0536425
-0.0533711
-0.0481674
-0.0429638
-0.0377376
-0.0324887
-0.0271946
-0.0219005
-0.0165837
-0.0113349
-0.0110634
-0.0107919
-0.0155204
-0.015181
-0.00477378
0.000746585
-0.0035973
-0.00778283
-0.00678735
-0.00558826
-0.00425341
-0.00300907
-0.0018326
-0.000724003
0.000294089
0.00615381
0.0118552
0.00737554
0.00273753
0.00296378
0.00312215
0.00319003
0.00314478
0.00805429
0.0129638
0.0128959
0.0128507
0.0128281
0.0127602
0.0126471
0.0125113
0.0123529
0.0122851
0.0173756
0.0324661
0.0524887
0.0674887
0.0825113
0.113145
0.149434
0.176448
0.199163
0.202081
0.190136
0.182149
0.173167
0.148484
0.11319
0.077647
0.0419004
0.0261312
0.0103846
0.00475113
-0.000791855
-0.00131223
0.00319003
-0.00230771
-0.00780546
-0.00830318
-0.00880091
-0.00429863
0.000203624
0.00468326
0.0141629
0.0387104
0.0583032
0.0429412
0.0275339
0.0369909
0.0913122
0.23052
0.389548
0.583439
0.707263
0.745973
0.679706
0.488484
0.312285
0.151154
0.045181
-0.0257013
-0.0615384
-0.0822624
-0.0878507
-0.0883484
-0.0938688
-0.104412
-0.109932
-0.11543
-0.120973
-0.116561
-0.107149
-0.0977375
-0.0932805
-0.0937783
-0.0891855
-0.0745475
-0.0849547
-0.0954072
-0.100905
-0.106335
-0.101652
-0.0972398
-0.103213
-0.109977
-0.112602
-0.115882
-0.119774
-0.123281
-0.126267
-0.128394
-0.129661
-0.130407
-0.135656
-0.140656
-0.150362
-0.160023
-0.159683
-0.164344
-0.173982
-0.178575
-0.178122
-0.177715
-0.172353
-0.166991
-0.161629
-0.151244
-0.140837
-0.125475
-0.110158
-0.104819
-0.099457
-0.084095
-0.068733
-0.0633484
-0.0629412
-0.0625339
-0.0621267
-0.0467421
-0.0413801
-0.0410181
-0.0406335
-0.0302036
-0.0197285
-0.0241855
-0.028552
-0.0278507
-0.0270815
-0.0211991
-0.0151584
-0.0189593
-0.022647
-0.0162443
-0.00977375
-0.00834841
-0.00701357
-0.0107692
-0.0146606
-0.013733
-0.00800905
0.00251132
0.00794118
0.00828055
0.00855205
0.00375567
-0.00108596
0.0040498
0.00914029
0.00916291
0.00911766
0.00902716
0.00895928
0.013914
0.0138688
0.00384616
-0.00106334
-0.00588234
0.00923078
0.034276
0.0593439
0.079638
0.115588
0.152285
0.174864
0.198009
0.191335
0.184344
0.181448
0.172738
0.138281
0.108326
0.093077
0.0676924
0.0322172
0.00676475
0.00635751
0.00588238
0.00531676
0.00472853
0.00411767
0.00348417
0.00287332
0.00228508
0.00171946
0.00119909
-0.00429864
0.00524887
0.0298869
0.0494796
0.0639819
0.0533258
0.0275566
0.0867647
0.17586
0.354706
0.548371
0.696991
0.835611
0.754276
0.642964
0.456674
0.265543
0.149638
0.033914
-0.0216516
-0.0771946
-0.0827828
-0.0883937
-0.0939593
-0.0995249
-0.110158
-0.120837
-0.111538
-0.102285
-0.103054
-0.103824
-0.104525
-0.105158
-0.100724
-0.0963801
-0.102127
-0.107738
-0.108213
-0.108778
-0.109525
-0.110995
-0.113235
-0.116357
-0.115181
-0.114163
-0.117941
-0.125724
-0.137579
-0.148597
-0.158982
-0.164118
-0.159027
-0.158733
-0.168326
-0.172873
-0.172398
-0.171991
-0.171629
-0.186222
-0.190792
-0.180407
-0.170091
-0.16491
-0.159751
-0.149548
-0.139253
-0.133846
-0.128394
-0.117964
-0.107557
-0.097172
-0.08681
-0.0814253
-0.0710634
-0.0557466
-0.0454299
-0.0451131
-0.0447738
-0.0393892
-0.0339819
-0.0335973
-0.0332127
-0.0328281
-0.0323303
-0.0266742
-0.0208597
-0.0249321
-0.0289367
-0.0278281
-0.0265611
-0.0251584
-0.0188009
-0.00748869
-0.00113123
0.005181
0.0112896
0.00721719
0.00300905
0.00364254
-0.00588235
-0.015543
-0.00524887
0.00497738
0.00513575
0.005181
0.0050905
0.00504525
0.0101131
0.0152262
0.0103846
0.00538461
0.000158366
-0.005
-0.00497738
0.00524887
0.0356335
0.0558823
0.0659276
0.0963348
0.14724
0.183869
0.19629
0.199389
0.193122
0.191561
0.189548
0.156561
0.107602
0.0681222
0.0281674
0.0180996
0.0178733
0.0125792
0.00219458
-0.00330316
0.00115385
0.00567873
0.0101584
0.0195475
0.0289366
0.0333937
0.0228733
0.0173077
0.0117421
0.0462443
0.0807919
0.0553394
0.0298643
0.0643439
0.118778
0.283167
0.452398
0.646471
0.800339
0.849027
0.80776
0.586584
0.38043
0.204276
0.0732353
0.0123077
-0.0436199
-0.0894796
-0.115045
-0.12043
-0.120882
-0.11138
-0.1069
-0.112443
-0.113077
-0.103756
-0.0894117
-0.0650452
-0.0656108
-0.0761086
-0.0915385
-0.107014
-0.11276
-0.108552
-0.10414
-0.104661
-0.105271
-0.106403
-0.0983258
-0.0909955
-0.0943891
-0.0978054
-0.105995
-0.113077
-0.118778
-0.123778
-0.128281
-0.132557
-0.141674
-0.150882
-0.160204
-0.164683
-0.144027
-0.133778
-0.148552
-0.158281
-0.157964
-0.157624
-0.17224
-0.1719
-0.161606
-0.151267
-0.135928
-0.125588
-0.125249
-0.120068
-0.109977
-0.0947059
-0.0792986
-0.0539366
-0.0236199
-0.0333484
-0.0581222
-0.0678733
-0.0775792
-0.0422624
0.00305431
-0.00162894
-0.0163122
-0.0409955
-0.0605882
-0.0399774
-0.0192534
-0.0385068
-0.057647
-0.0365385
-0.0152489
-0.013914
-0.0125792
-0.0262896
-0.0350226
-0.00377827
0.0222625
0.0230091
0.013552
-0.016086
-0.0357918
-0.0255204
-0.0103167
0.00979638
0.0148416
-0.0101357
-0.0101131
0.0199095
0.03
0.0151584
0.0102941
0.0203394
0.0204073
0.0104977
0.005724
0.00108599
0.00131223
0.0114027
0.0216516
0.0321493
0.0684163
0.105475
0.153416
0.202036
0.200815
0.184367
0.176946
0.16862
0.134525
0.0998643
0.0949321
0.0847512
0.0193665
-0.0311312
-0.0216742
-0.0122398
-0.00778278
-0.00332578
0.00110862
0.00554301
0.0099774
0.0145023
0.00416293
-0.00619907
-0.0116289
0.00791858
0.0724435
0.0868779
0.051267
0.0456109
0.0748643
0.198959
0.377896
0.551765
0.725588
0.739434
0.688303
0.442172
0.141086
-0.00988687
-0.120769
-0.171561
-0.207285
-0.187941
-0.158529
-0.119072
-0.154593
-0.0700226
-0.0654525
-0.0760181
-0.086629
-0.0871946
-0.0877376
-0.0733711
-0.0590272
-0.0646154
-0.0702036
-0.0758145
-0.0764706
-0.0522172
-0.0428281
-0.0735294
-0.0942986
-0.0854751
-0.0773077
-0.0697511
-0.0627602
-0.066267
-0.0741176
-0.086267
-0.0922851
-0.0972851
-0.101991
-0.101493
-0.111018
-0.125611
-0.130249
-0.124887
-0.119638
-0.124502
-0.129276
-0.128959
-0.128665
-0.128394
-0.12819
-0.128032
-0.117738
-0.10233
-0.0969457
-0.096629
-0.0914253
-0.0862896
-0.0761086
-0.0658597
-0.055543
-0.0452262
-0.0400226
-0.034819
-0.039457
-0.0440272
-0.0336652
-0.0233258
-0.0329186
-0.0424661
-0.0370362
-0.0316063
-0.0261765
-0.0207466
-0.0202715
-0.0197059
-0.0240498
-0.0282579
-0.0273303
-0.0211991
-0.00486425
0.00644797
0.00266969
-0.00117647
-0.0050905
-0.00918552
-0.00846153
-0.00778281
-0.00719457
-0.00696832
-0.00201357
0.0029638
0.00794118
0.0128959
0.0128507
0.0128281
0.0228281
0.0178281
0.0128281
0.0178054
0.0227149
0.0125339
0.00244345
0.0176923
0.0330317
0.0482353
0.0684163
0.103688
0.139502
0.166109
0.188484
0.186652
0.18491
0.182964
0.16991
0.140498
0.11543
0.0898869
0.069095
0.0431222
0.0172398
-0.00350678
-0.0140724
-0.0147964
-0.00515836
0.00947964
0.00904977
-0.00144796
-0.00692308
-0.00237557
0.00223982
-0.00307693
0.00660633
0.0262896
0.0459728
0.0656335
0.0402715
0.0698643
0.0992308
0.203326
0.372262
0.536131
0.649977
0.733914
0.577986
0.412104
0.196244
0.0154525
-0.0552715
-0.11586
-0.13629
-0.141652
-0.112172
-0.0924661
-0.0877149
-0.0829864
-0.0833258
-0.083733
-0.0791855
-0.0746154
-0.0750226
-0.0754072
-0.0757692
-0.076086
-0.0713575
-0.0667421
-0.0722172
-0.0776018
-0.0779186
-0.07819
-0.0736425
-0.069638
-0.0713122
-0.0738688
-0.0820362
-0.0906335
-0.0939593
-0.0963575
-0.102896
-0.11371
-0.119072
-0.124072
-0.128846
-0.128462
-0.128009
-0.137579
-0.147172
-0.141765
-0.136357
-0.135973
-0.135588
-0.135113
-0.13457
-0.129072
-0.12362
-0.11819
-0.112783
-0.107376
-0.0969683
-0.0815611
-0.0711538
-0.065724
-0.0552941
-0.0448642
-0.0393891
-0.0388914
-0.0384163
-0.0329185
-0.0274208
-0.0319231
-0.0263801
-0.0107918
-0.0102262
-0.0196832
-0.0240724
-0.028371
-0.0275566
-0.0166289
-0.0105204
-0.00423076
0.00217196
0.00366517
0.000135753
-0.00341628
-0.00201356
-0.000701342
-0.0045475
-0.0085294
-0.00264705
0.00312219
0.00375567
0.00420815
0.00450227
0.00468327
0.00979638
0.0149321
0.0200905
0.0252489
0.020362
0.0154072
0.0154299
0.0154751
0.0104977
0.00556562
0.000723995
0.00599549
0.0363801
0.0566516
0.0770588
0.117579
0.163552
0.190294
0.207783
0.200769
0.174118
0.161787
0.148733
0.129683
0.109796
0.0746154
0.0391856
0.0136652
0.0331222
-0.0223077
-0.0276696
-0.0180316
-0.00839362
0.00126701
0.0109503
0.00563353
0.00031678
-0.00499996
-0.0103167
-0.0106335
-0.0059502
0.0237557
0.0435068
0.0282127
0.0178733
0.0174208
0.0668778
0.196267
0.35543
0.554389
0.693303
0.782149
0.716063
0.520068
0.339118
0.168235
0.0574887
-0.0181222
-0.0636425
-0.0940724
-0.104434
-0.0997511
-0.0951357
-0.100588
-0.106086
-0.101561
-0.0969683
-0.10233
-0.107692
-0.103054
-0.0984163
-0.0987783
-0.0991177
-0.0995475
-0.100113
-0.100588
-0.10086
-0.101199
-0.0967195
-0.0929186
-0.0998869
-0.107692
-0.10638
-0.105113
-0.113778
-0.121538
-0.128439
-0.134593
-0.139955
-0.145
-0.144796
-0.149434
-0.158959
-0.163507
-0.168032
-0.172534
-0.172014
-0.171448
-0.17086
-0.170317
-0.164819
-0.159321
-0.153824
-0.148326
-0.142828
-0.137308
-0.131765
-0.116244
-0.100747
-0.0852715
-0.069819
-0.0643665
-0.053914
-0.0534389
-0.0529412
-0.0424435
-0.0319457
-0.031448
-0.030905
-0.0303168
-0.0297285
-0.0341629
-0.038552
-0.0377602
-0.0368552
-0.0308597
-0.0246833
-0.0233032
-0.02181
-0.0152489
-0.00871042
-0.0122851
-0.0159502
-0.0097059
-0.00357467
-0.00755657
-0.0117421
-0.0111312
-0.0106787
-0.005181
2.26125e-05
0.00513573
0.0102262
0.00531673
0.00042985
0.00556559
0.0107013
0.0108371
0.0108823
0.0108597
0.0107918
0.0107466
0.00588235
0.0111312
0.0163348
0.0415158
0.0616742
0.0819909
0.137828
0.184367
0.19681
0.209932
0.193529
0.17681
0.16914
0.150656
0.111448
0.0767648
0.0517421
0.0264933
0.0110408
0.000520386
0.00500003
0.0095023
0.0239819
0.0234616
0.00798644
-0.00248868
-0.00300905
-0.00357466
0.000859726
0.00533937
0.00486425
0.029457
0.064095
0.0537104
0.0232579
0.0476923
0.0920362
0.25129
0.43043
0.619367
0.813167
0.821946
0.810724
0.614502
0.418303
0.257127
0.0960407
0.0250679
-0.0407919
-0.0815158
-0.112195
-0.107873
-0.103529
-0.104163
-0.104751
-0.110271
-0.115837
-0.111493
-0.107104
-0.107624
-0.108122
-0.113597
-0.119095
-0.119615
-0.120226
-0.115928
-0.111425
-0.106787
-0.102217
-0.0978507
-0.0941403
-0.0961086
-0.098914
-0.107376
-0.116109
-0.119502
-0.131652
-0.14776
-0.153077
-0.152828
-0.157285
-0.166652
-0.171109
-0.170701
-0.170475
-0.170181
-0.169706
-0.169208
-0.173756
-0.178326
-0.172964
-0.167647
-0.162285
-0.1569
-0.146584
-0.136312
-0.126041
-0.115724
-0.105317
-0.0899095
-0.0745701
-0.0641855
-0.0588009
-0.0533937
-0.0579185
-0.0624434
-0.0469909
-0.0366063
-0.026267
-0.0258145
-0.0352715
-0.0397511
-0.0442081
-0.0485973
-0.0428507
-0.0270814
-0.011267
-0.00515836
-0.00380089
-0.0123756
-0.0258823
-0.019457
-0.00309954
-0.00178732
-0.0105882
-0.014638
-0.0138914
-0.0082579
0.00719459
0.0124661
0.0176471
0.0178733
0.0181222
0.0133937
0.00859729
0.0136652
0.0186652
0.0236652
0.0287104
0.0238462
0.0140272
-0.000791848
-0.0105204
-0.00506787
0.0102489
0.0353394
0.0554751
0.0807466
0.111855
0.153891
0.181855
0.195769
0.204661
0.203439
0.196312
0.188281
0.16448
0.134932
0.105158
0.0751584
0.0599321
0.0495249
0.0390724
0.0286425
0.0132579
-0.00212669
0.0073982
0.0268778
0.0164253
0.00101809
0.000610858
0.000203624
0.00979638
0.0193891
0.0439593
0.0685068
0.0380996
0.0226018
0.0519683
0.111335
0.260701
0.419887
0.603869
0.747828
0.816765
0.750747
0.474796
0.243846
0.0678733
-0.0580543
-0.128891
-0.154548
-0.135068
-0.105588
-0.061086
-0.0715158
-0.111878
-0.117262
-0.102692
-0.0932127
-0.0837783
-0.0792534
-0.0846606
-0.085
-0.0752941
-0.0705882
-0.0709729
-0.0815158
-0.0970136
-0.0923077
-0.0726018
-0.0780543
-0.0840271
-0.0957014
-0.1081
-0.10629
-0.104525
-0.0924887
-0.0843439
-0.109887
-0.129796
-0.129186
-0.128416
-0.137511
-0.141742
-0.126131
-0.115543
-0.124977
-0.134389
-0.138801
-0.143258
-0.147783
-0.152308
-0.151787
-0.146244
-0.130724
-0.120226
-0.119729
-0.104253
-0.0787557
-0.0682353
-0.0726923
-0.0721493
-0.0616063
-0.0460633
-0.0305204
-0.0249774
-0.0244344
-0.0338688
-0.0482805
-0.0526923
-0.0521041
-0.0465385
-0.0509955
-0.0304299
-0.00979638
0.00595022
0.02181
-0.00217194
-0.0259955
-0.0396154
-0.0530995
-0.0365385
-0.0199547
-0.013371
-0.00680995
0.00470588
0.011086
-0.00773755
-0.0217647
-0.0109955
-0.000271492
0.0154299
0.0160407
0.00656109
0.00696833
0.0222625
0.0275566
0.0178959
0.01319
0.0134163
0.0136652
0.00893666
0.00423077
0.00954752
0.0149774
0.0105204
0.0358597
0.0711312
0.0765837
0.0823303
0.128733
0.175837
0.183756
0.18733
0.176267
0.164932
0.15733
0.148665
0.134208
0.114163
0.0687557
0.0282127
0.0227376
0.0173982
0.00230772
-0.0128054
-0.00809953
0.0015611
0.016267
0.0210407
0.00588237
-0.00425339
-0.0144118
-0.0195928
-0.00975113
0.0201358
0.0650452
0.0648416
0.0295023
0.0441176
0.093733
0.218167
0.377443
0.541538
0.710498
0.714502
0.668552
0.432715
0.152014
0.0113122
-0.114344
-0.154864
-0.190294
-0.165701
-0.126041
-0.106222
-0.0863123
-0.086448
-0.0866516
-0.0869231
-0.0872398
-0.0825566
-0.0778733
-0.0831674
-0.0884163
-0.0885973
-0.0887783
-0.0790271
-0.0693665
-0.0697738
-0.0699548
-0.0699774
-0.0702262
-0.075724
-0.0819231
-0.0788235
-0.0764932
-0.0797738
-0.0829638
-0.0908824
-0.102851
-0.113937
-0.119344
-0.119276
-0.118846
-0.118167
-0.122421
-0.131606
-0.135928
-0.140385
-0.144842
-0.144344
-0.143801
-0.148213
-0.152579
-0.151923
-0.146267
-0.130611
-0.115023
-0.0994797
-0.103891
-0.108281
-0.0976471
-0.0870362
-0.076448
-0.0658371
-0.0551358
-0.0443892
-0.0437104
-0.0430543
-0.0474208
-0.0517195
-0.0460634
-0.0404299
-0.0397738
-0.0390498
-0.0233032
-0.0224435
-0.0314254
-0.035362
-0.0292534
-0.0229186
-0.0163575
-0.0147738
-0.0231901
-0.0266742
-0.0202263
-0.0138688
-0.0126018
-0.00640272
0.00468326
0.0104977
0.016086
0.016629
0.00710407
0.00246606
0.00273756
0.00800905
0.0133032
0.00864254
0.00398191
0.00425339
0.00447965
0.00963802
0.0147511
0.00988688
0.00511313
0.0204977
0.0358597
0.051086
0.0714027
0.106968
0.1381
0.169932
0.192534
0.190928
0.189299
0.182421
0.16448
0.140272
0.11043
0.0800226
0.0593892
0.043552
0.0228507
0.00235295
-0.00805429
-0.00837104
-0.00368779
0.00599546
0.0107014
0.00542985
0.00018099
-0.00504526
-0.0103168
-0.0106335
-0.000972867
0.0136651
0.0483484
0.0880995
0.0478959
0.00762441
0.0571719
0.121606
0.290928
0.460068
0.63405
0.768009
0.736991
0.661018
0.445068
0.249118
0.103167
-0.00769235
-0.0684163
-0.104005
-0.104457
-0.104819
-0.100113
-0.0954299
-0.110769
-0.116131
-0.111493
-0.106855
-0.11224
-0.112692
-0.10319
-0.09862
-0.103937
-0.109231
-0.109525
-0.104932
-0.0954299
-0.0908371
-0.0961539
-0.101448
-0.107036
-0.113213
-0.110158
-0.113077
-0.111561
-0.130407
-0.128824
-0.131358
-0.133054
-0.143982
-0.154434
-0.154457
-0.154253
-0.158914
-0.163552
-0.16819
-0.172828
-0.172421
-0.171991
-0.171606
-0.171244
-0.16086
-0.150453
-0.150045
-0.144683
-0.129344
-0.118937
-0.113462
-0.102986
-0.0925566
-0.0871494
-0.0817421
-0.0762896
-0.0707919
-0.0653168
-0.0648643
-0.0644344
-0.0590272
-0.0535973
-0.0481448
-0.0377376
-0.0273303
-0.0217647
-0.026086
-0.0303394
-0.0345023
-0.0334842
-0.0273077
-0.0309955
-0.0345928
-0.0231901
-0.0117873
-0.0104299
-0.0091629
-0.00803168
-0.00710408
0.0036199
0.0142308
0.00977375
0.00522624
0.0055656
0.00576922
0.00590497
0.00604072
0.0011991
-0.00364254
-0.00352941
-0.00348417
0.00149322
0.00642534
0.0113348
0.016267
0.0162443
0.0114253
0.00183257
0.0170362
0.0570362
0.0822172
0.102647
0.138891
0.18095
0.193801
0.192262
0.185611
0.17862
0.170611
0.161674
0.137036
0.1069
0.0765384
0.0460407
0.0205429
-0.00495479
-0.00545252
-0.00595025
-0.00649324
-0.00703623
-0.00757921
-0.0081222
0.00131219
0.0107466
0.000226207
-0.0102715
-0.000837147
0.0135972
0.0330543
0.0475791
0.0371945
0.0266289
0.0308823
0.105045
0.244095
0.422896
0.636561
0.760226
0.833914
0.732579
0.541312
0.360068
0.188914
0.0828959
0.0019909
-0.048801
-0.0895023
-0.100158
-0.0957693
-0.0913575
-0.0969458
-0.102557
-0.10319
-0.103846
-0.104525
-0.105136
-0.105679
-0.0912218
-0.0767421
-0.087172
-0.0976245
-0.0982127
-0.0987331
-0.0991403
-0.0995249
-0.104932
-0.110928
-0.111312
-0.113801
-0.112217
-0.111131
-0.11543
-0.118891
-0.116516
-0.12319
-0.144005
-0.154321
-0.154276
-0.15405
-0.15871
-0.163394
-0.163077
-0.162738
-0.167376
-0.171968
-0.171539
-0.171177
-0.16586
-0.150611
-0.135385
-0.130091
-0.129706
-0.129276
-0.123846
-0.103484
-0.0881675
-0.0828281
-0.0774661
-0.0721041
-0.0666969
-0.0562217
-0.0457693
-0.040362
-0.0349548
-0.0295249
-0.0240724
-0.0336426
-0.0432353
-0.0378281
-0.0323077
-0.0215837
-0.010724
-0.0197512
-0.0285973
-0.0272398
-0.0258598
-0.0295249
-0.0281901
-0.0168552
-0.00565612
0.00540722
0.00638007
-0.00276019
-0.0070136
-0.00640274
-0.00601812
-0.000837132
0.00432125
-0.000565633
-0.00552038
-0.000520378
0.00445699
0.00438912
0.00432126
0.00427601
0.00418551
0.0140498
0.00895926
0.00393663
-0.00597288
-0.0158145
0.0292534
0.064276
0.0793665
0.099819
0.150905
0.187783
0.190588
0.193937
0.187624
0.180814
0.178054
0.15957
0.120407
0.0857918
0.0608371
0.0405656
0.0250226
0.00945697
-0.00106339
-0.00658374
-0.00214935
0.00228504
0.00674206
0.0111991
0.00563347
-2.26498e-05
-0.000723995
-0.00128961
-0.00671948
0.00789591
0.0425113
0.0370588
0.0214932
0.0207692
0.0299774
0.164208
0.0332805
0.502081
0.705701
0.814231
0.90276
0.721335
0.540091
0.339072
0.1581
0.0520814
-0.0338688
-0.0797059
-0.110407
-0.105995
-0.101561
-0.112149
-0.122692
-0.123303
-0.119005
-0.104774
-0.0955204
-0.0811991
-0.0766516
-0.0819231
-0.0923077
-0.107828
-0.113552
-0.0993665
-0.09
-0.0954977
-0.100928
-0.106516
-0.122715
-0.139615
-0.137353
-0.125679
-0.124321
-0.127602
-0.129819
-0.125995
-0.126244
-0.135973
-0.145385
-0.149683
-0.153982
-0.158348
-0.162896
-0.167511
-0.162081
-0.156697
-0.166425
-0.176176
-0.15586
-0.135498
-0.140136
-0.144796
-0.149502
-0.149276
-0.124095
-0.103846
-0.0985068
-0.0880996
-0.0726697
-0.0623077
-0.0569683
-0.0466516
-0.0363801
-0.0311086
-0.0308371
-0.0304977
-0.0300452
-0.0297059
-0.0344344
-0.0341855
-0.0239593
-0.0234842
-0.0327828
-0.0369231
-0.035905
-0.0296606
-0.0182579
-0.0118326
-0.0104072
0.000904985
0.0221493
0.00341629
-0.0153846
-0.0193891
-0.0236199
-0.00303167
0.0174434
0.0128733
0.00821267
0.0134389
0.0186199
0.0138009
0.00895927
0.00909502
0.0142308
0.0342986
0.0443665
0.029457
0.0145249
-0.0054525
-0.0153846
-0.000180997
0.0250226
0.060181
0.0753167
0.0654751
0.0963122
0.156629
0.19905
0.22733
0.23595
0.22991
0.193167
0.150679
0.137308
0.128145
0.103439
0.0783258
0.0479864
0.0174887
0.00699095
0.0114932
0.00097286
0.0104299
0.0249095
0.0393891
0.0338688
0.0233936
-0.0119683
-0.0373077
-0.00771494
0.0218099
0.066267
0.0907466
0.070362
0.0549547
0.0446154
0.0839366
0.223145
0.382059
0.575679
0.714276
0.787896
0.711584
0.480339
0.254231
0.0382579
-0.0876018
-0.153416
-0.17414
-0.164751
-0.140317
-0.11086
-0.106425
-0.117014
-0.107557
-0.0880543
-0.0836652
-0.0893439
-0.0899095
-0.080362
-0.0758145
-0.0762896
-0.0668326
-0.0574887
-0.0731674
-0.088733
-0.0991629
-0.109638
-0.100271
-0.0914932
-0.0834163
-0.076086
-0.0795023
-0.0827602
-0.100769
-0.117692
-0.0984842
-0.0887104
-0.0934163
-0.0979412
-0.10724
-0.121652
-0.141222
-0.155882
-0.155611
-0.155339
-0.160045
-0.159751
-0.14448
-0.139163
-0.148756
-0.153416
-0.148145
-0.132919
-0.117738
-0.112443
-0.117036
-0.111674
-0.0963575
-0.0909955
-0.0855883
-0.0752263
-0.0649095
-0.0596154
-0.0493213
-0.0539141
-0.0584389
-0.0530091
-0.0476245
-0.0423303
-0.0370815
-0.0417421
-0.0462444
-0.040543
-0.0347512
-0.0490045
-0.0631222
-0.0569684
-0.0406335
-0.00418555
0.0123077
-0.0112218
-0.0249095
-0.0287783
-0.0327828
-0.0169005
-0.0111539
-0.00554302
-9.05246e-05
0.00520359
0.0104298
0.00565608
0.000769205
-0.0041403
0.000972837
0.0161086
0.0162217
0.00628956
0.00619906
0.0159955
0.0209276
0.0209954
0.0112443
-0.00341631
0.0118326
-0.00798646
0.0621493
0.082466
0.133416
0.18509
0.19767
0.21086
0.204321
0.192421
0.164502
0.140588
0.115701
0.0952488
0.0645022
0.0336651
0.0178733
0.00719451
0.00665152
0.00608591
0.000429802
-0.00515843
0.00936646
0.0138914
0.008371
0.00287326
-0.00255659
-0.00294121
0.00669681
0.0313348
0.0609955
0.0556561
0.0302715
0.0497059
0.0990045
0.238281
0.397466
0.571448
0.745339
0.714163
0.657964
0.416765
0.165543
0.0394344
-0.0815385
-0.122421
-0.163167
-0.138801
-0.114412
-0.100045
-0.0856787
-0.0812443
-0.0767873
-0.0723529
-0.0679185
-0.0684389
-0.0689593
-0.0745023
-0.0800679
-0.0756335
-0.0711312
-0.0765611
-0.0819457
-0.0773303
-0.0728733
-0.0784841
-0.0840045
-0.0794796
-0.0751131
-0.0710633
-0.0678054
-0.0753167
-0.0837104
-0.0925792
-0.101041
-0.103869
-0.105724
-0.111787
-0.12233
-0.132489
-0.137398
-0.137172
-0.137014
-0.136923
-0.136787
-0.136561
-0.141154
-0.145656
-0.150294
-0.155023
-0.139774
-0.124548
-0.119253
-0.113937
-0.108597
-0.103235
-0.0978507
-0.0924435
-0.0770815
-0.0617647
-0.0514706
-0.0411539
-0.0407692
-0.040362
-0.0399774
-0.0395928
-0.0391629
-0.0387104
-0.0332579
-0.0278281
-0.0274434
-0.026991
-0.026629
-0.0259276
-0.0251131
-0.0240724
-0.0278054
-0.0214932
-0.00513574
0.00119908
-0.00251132
-0.0063801
-0.00538462
-0.00452489
-0.00377828
-0.00319005
-0.00278281
-0.00251132
-0.00235295
0.00776017
0.0178507
0.0128959
0.00789592
0.0129638
0.0180543
0.0130995
0.00805428
0.00291855
-0.00223983
0.00762442
0.0125792
-0.00233032
-0.00726245
0.0226923
0.0427602
0.0580769
0.0890045
0.145633
0.178077
0.196335
0.204457
0.19233
0.184118
0.179774
0.159842
0.134344
0.0986652
0.0628054
0.0420588
0.0264254
0.0108371
-0.00470587
-0.0102489
-0.0107918
-0.0112896
-0.00674208
-0.00219455
-0.00764705
-0.00814478
-0.00368777
-0.0041855
-0.00463798
-0.0100905
-0.015543
0.0240272
0.0535295
0.0378507
0.0320588
0.0761991
0.155136
0.333869
0.512602
0.701335
0.800113
0.713914
0.57776
0.366674
0.195724
0.0748869
-0.015905
-0.0666516
-0.0922851
-0.092828
-0.093371
-0.098914
-0.104457
-0.11
-0.115543
-0.111086
-0.106674
-0.107308
-0.107851
-0.108303
-0.108733
-0.109208
-0.109796
-0.110407
-0.11095
-0.106493
-0.102059
-0.102986
-0.104502
-0.10681
-0.115068
-0.123733
-0.127579
-0.130724
-0.132896
-0.134276
-0.13991
-0.145113
-0.144977
-0.144751
-0.149457
-0.154186
-0.154005
-0.153778
-0.153529
-0.153258
-0.157919
-0.162579
-0.157285
-0.151991
-0.146674
-0.141357
-0.136041
-0.125747
-0.110475
-0.0952037
-0.0849321
-0.079638
-0.0743213
-0.0689819
-0.0686199
-0.0682353
-0.0628281
-0.0475113
-0.0322172
-0.0269005
-0.0215837
-0.0161991
-0.0157692
-0.0154072
-0.0150679
-0.0195928
-0.0240272
-0.0184163
-0.0126471
-0.0165611
-0.0203168
-0.0190045
-0.0176697
-0.0164027
-0.015181
-0.00900454
-0.00294119
-0.00199096
-0.00126698
-0.000723992
-0.000339381
0.00490949
0.0100452
0.0150679
0.0200679
0.0150679
0.0100226
0.00995475
0.00986425
0.0147059
0.0195701
0.0144796
0.00936651
0.00423077
-0.000904974
-0.00104072
0.0189593
0.0540498
0.0740498
0.0940272
0.144253
0.194864
0.20129
0.198529
0.186606
0.180113
0.168235
0.155747
0.127308
0.0980996
0.0783484
0.0581901
0.0278054
0.00726245
0.0066516
0.00604074
0.00545251
0.00486427
-0.000746593
-0.00640271
-0.00205883
0.00230768
-0.0033258
-0.00895929
-0.00959277
0.00475112
0.0340724
0.0434389
0.032828
0.0371041
0.0563122
0.150498
0.289593
0.473462
0.682172
0.770792
0.809344
0.652941
0.436584
0.260272
0.0990498
0.00791857
-0.0681222
-0.0890498
-0.104864
-0.100611
-0.0813122
-0.0919231
-0.102511
-0.1031
-0.103688
-0.0992986
-0.0949321
-0.10052
-0.106063
-0.106606
-0.107149
-0.10267
-0.0982127
-0.0987783
-0.0992987
-0.094819
-0.0902489
-0.100611
-0.111425
-0.112783
-0.115045
-0.103145
-0.106787
-0.120769
-0.129072
-0.136652
-0.143371
-0.144367
-0.14491
-0.145068
-0.144977
-0.139751
-0.14448
-0.159163
-0.163824
-0.163462
-0.163122
-0.162805
-0.162511
-0.15724
-0.151923
-0.151561
-0.136222
-0.130905
-0.115588
-0.100294
-0.0900226
-0.0797285
-0.0793665
-0.0789593
-0.0685747
-0.0582127
-0.0478507
-0.0374661
-0.0420136
-0.0465158
-0.0410407
-0.0356335
-0.0402489
-0.0448869
-0.0345249
-0.0240724
-0.0184615
-0.0177149
-0.0268326
-0.0307014
-0.0293213
-0.0279412
-0.0216063
-0.0153167
-0.0140498
-0.0128507
-0.0117195
-0.0107466
-0.00993213
-0.0092534
-0.00873303
0.00158371
0.0167647
0.0169457
0.00712669
0.00228506
0.00239819
0.00744343
0.0124208
0.0123756
0.0123303
0.0122624
0.012172
0.0170815
0.0220588
0.0121493
0.00726245
0.0323077
0.0523529
0.0624887
0.0830543
0.134253
0.17129
0.189276
0.20267
0.196244
0.18914
0.181086
0.162217
0.137602
0.112557
0.0871494
0.0616516
0.041086
0.025543
0.0050905
-0.000407252
-0.000950251
-0.00149324
-0.00203623
-0.00255659
-0.00805431
-0.0135747
-0.00911767
-0.00468328
-0.00527151
0.0091855
0.0286878
0.0332126
0.0427375
0.0272398
0.0166968
0.121018
0.240136
0.439095
0.627896
0.761606
0.850272
0.703914
0.547579
0.361267
0.200023
0.0988688
0.0128733
-0.0479412
-0.0836652
-0.089276
-0.094819
-0.105339
-0.115882
-0.111425
-0.106968
-0.102511
-0.0980543
-0.103575
-0.109118
-0.104706
-0.100226
-0.100724
-0.0961312
-0.0864932
-0.0869457
-0.0974208
-0.102805
-0.10319
-0.103688
-0.104593
-0.111176
-0.123552
-0.131878
-0.135656
-0.129548
-0.132873
-0.135294
-0.136968
-0.137873
-0.138281
-0.148303
-0.158122
-0.162828
-0.167511
-0.162195
-0.156878
-0.161538
-0.166176
-0.165814
-0.16543
-0.160068
-0.154729
-0.144412
-0.129095
-0.113778
-0.103416
-0.102986
-0.102557
-0.0971719
-0.0868326
-0.0765158
-0.0661765
-0.0558145
-0.0504299
-0.0500226
-0.049638
-0.049276
-0.048914
-0.043552
-0.0381674
-0.0327828
-0.0272624
-0.026629
-0.0259276
-0.0251131
-0.0240724
-0.0228507
-0.0215158
-0.0201131
-0.023733
-0.0273982
-0.0211538
-0.0150226
-0.00902714
-0.00316742
-0.00239819
-0.00180995
-0.00142533
-0.00113122
-0.000950221
-0.000859719
-0.000814464
-0.000746589
-0.000656094
-0.000588218
-0.000565594
-0.000633467
0.00425341
0.00914028
0.00400454
-0.00106333
-0.00604071
-0.00601808
0.00402716
0.0190272
0.0390045
0.074457
0.110453
0.14733
0.185045
0.198371
0.197104
0.190181
0.182557
0.164095
0.144887
0.110181
0.0700678
0.0497058
0.0292081
0.00866514
-0.0119231
-0.0125792
-0.0132806
-0.013914
-0.0145023
-0.0150905
-0.0156787
-0.00631223
0.00300904
0.00235294
0.00171945
-0.00386879
0.000610851
0.030181
0.0446833
0.0240724
0.0233484
0.0575113
0.156471
0.315226
0.498801
0.702195
0.795633
0.82414
0.70276
0.496471
0.325249
0.164118
0.0631222
-0.0177375
-0.0635068
-0.0992308
-0.109955
-0.110679
-0.111357
-0.111991
-0.11267
-0.113416
-0.119208
-0.114977
-0.110633
-0.106267
-0.106923
-0.107602
-0.108303
-0.108982
-0.109661
-0.110294
-0.105837
-0.101697
-0.102964
-0.105068
-0.111267
-0.119887
-0.119163
-0.117851
-0.115882
-0.112873
-0.128869
-0.134276
-0.139186
-0.143824
-0.148281
-0.152783
-0.15233
-0.156923
-0.166561
-0.171244
-0.175973
-0.175747
-0.165566
-0.160317
-0.155
-0.149683
-0.154389
-0.13914
-0.113914
-0.108665
-0.103394
-0.0880996
-0.0778054
-0.0825566
-0.0873077
-0.0820136
-0.0766969
-0.0614027
-0.0461312
-0.0408145
-0.0354525
-0.0351358
-0.0348643
-0.0296154
-0.0243439
-0.0289819
-0.0334842
-0.0328507
-0.0321267
-0.0263122
-0.0202715
-0.0190045
-0.0176697
-0.0163348
-0.0150453
-0.0138009
-0.00771493
0.00321267
0.00895928
0.00450226
-4.52469e-05
0.00531675
0.0105656
0.0156787
0.015724
0.00572398
0.000678735
0.00558824
0.0105204
0.0154525
0.020362
0.0202715
0.0201584
0.0100226
-0.000158378
-0.0103167
0.00470588
0.019819
0.039819
0.064819
0.110023
0.155701
0.192081
0.224276
0.212398
0.20095
0.189615
0.172692
0.159774
0.141018
0.111471
0.0815837
0.051448
0.031086
0.025543
0.0199547
0.0143665
0.00873303
0.0130543
0.0223982
0.0317647
0.026086
0.00540724
0.00470589
0.0189819
0.0383032
0.0576697
0.0620815
0.0615158
0.0508371
0.0351131
0.114412
0.21362
0.407579
0.21638
0.755045
0.898643
0.767285
0.620973
0.389661
0.173439
0.0472851
-0.0587104
-0.114548
-0.155271
-0.145905
-0.136471
-0.126946
-0.117511
-0.108032
-0.0987557
-0.094457
-0.0901584
-0.100814
-0.111448
-0.107059
-0.0976697
-0.0883258
-0.083914
-0.0894118
-0.0950226
-0.100701
-0.101176
-0.0916063
-0.0924661
-0.103914
-0.111199
-0.109208
-0.107783
-0.116312
-0.124118
-0.121018
-0.116833
-0.116923
-0.121584
-0.130973
-0.145249
-0.15457
-0.13905
-0.12362
-0.138213
-0.152828
-0.157489
-0.162172
-0.161855
-0.161561
-0.146312
-0.131063
-0.125792
-0.120475
-0.120113
-0.119774
-0.114434
-0.104095
-0.0887557
-0.0784389
-0.06819
-0.0579186
-0.0625792
-0.0622398
-0.0469005
-0.0365158
-0.0311086
-0.0257466
-0.0204751
-0.0201584
-0.0298416
-0.0344344
-0.0289367
-0.0283484
-0.0376471
-0.0416968
-0.0354977
-0.0291177
-0.0276018
-0.0261991
-0.0198869
-0.00861991
0.00757918
0.0237104
0.0397511
0.0156335
-0.00866516
-0.0031448
0.00226244
0.00262443
0.00294117
0.0132353
0.0234842
0.0187104
0.0139593
0.0192308
0.024457
0.0345475
0.0445928
0.0346606
0.0248642
0.0152036
0.0105656
0.0359276
0.0462217
0.0464253
0.0719909
0.128009
0.164887
0.190882
0.204344
0.203484
0.202059
0.21
0.196855
0.167692
0.127986
0.0878281
0.0573982
0.0317647
0.0111765
-0.00936652
0.00515837
-0.0152489
0.0243891
0.0140724
0.0137783
0.0135068
0.0131674
0.0127602
0.017353
0.021991
0.0217195
0.0264932
0.056267
0.0759729
0.0455656
0.0450679
0.134683
0.258914
0.447896
0.61181
0.750701
0.754638
0.598575
0.402557
0.161652
0.000927606
-0.089638
-0.145113
-0.17552
-0.17086
-0.136131
-0.116335
-0.106471
-0.0966968
-0.0870136
-0.0823756
-0.0827828
-0.0781901
-0.0685973
-0.063914
-0.0591403
-0.0643213
-0.0795249
-0.0798643
-0.0752489
-0.0705656
-0.0658145
-0.0610181
-0.0565837
-0.0676471
-0.0794118
-0.0770136
-0.075181
-0.0837783
-0.0917873
-0.0840724
-0.0754525
-0.095905
-0.105882
-0.110452
-0.114887
-0.11414
-0.113439
-0.122828
-0.132285
-0.136765
-0.136199
-0.125611
-0.120023
-0.124412
-0.128778
-0.1281
-0.127353
-0.121538
-0.110837
-0.100249
-0.0946154
-0.0889367
-0.0832579
-0.0825792
-0.0768552
-0.066086
-0.060362
-0.0546833
-0.0489819
-0.0382579
-0.0274661
-0.0166063
-0.0257692
-0.0349548
-0.0341629
-0.033371
-0.0274434
-0.021448
-0.0204525
-0.0193439
-0.0129864
-0.00647059
-0.00981901
-0.0130996
-0.016448
-0.019819
-0.00816743
0.00339366
-0.000203626
-0.00400453
0.00199094
0.00782805
0.00852941
0.00909502
0.00452488
-5.58794e-09
0.000361985
0.000837099
0.00119909
0.00153846
0.0068552
0.0121946
0.0175566
0.0179412
0.00834841
0.00373303
-0.000882361
0.009638
0.0302489
0.050724
0.0361991
0.122104
0.168597
0.180928
0.193959
0.192579
0.191199
0.17914
0.161222
0.12724
0.0925566
0.0674434
0.0420588
0.0115611
-0.0138914
-0.0141855
-0.0144796
-0.00977376
-0.00502263
-0.000226244
0.00461539
0.00447964
0.00436652
-0.000701349
-0.00572397
-0.0107013
-0.000723969
0.0291629
0.039095
0.0290498
0.0238914
0.0286425
0.118348
0.237941
0.402262
0.581403
0.705543
0.814683
0.693824
0.537986
0.34224
0.141652
0.0361765
-0.0641855
-0.0994344
-0.134615
-0.124729
-0.114796
-0.104864
-0.0949547
-0.100068
-0.105204
-0.105339
-0.105475
-0.100611
-0.0957466
-0.0958824
-0.0960181
-0.0961312
-0.0962896
-0.101493
-0.106629
-0.106697
-0.106787
-0.107014
-0.107738
-0.104027
-0.101199
-0.104163
-0.107624
-0.116199
-0.123982
-0.13095
-0.137104
-0.142602
-0.147647
-0.15233
-0.156787
-0.156109
-0.155453
-0.154796
-0.154072
-0.158326
-0.162647
-0.152014
-0.15138
-0.150747
-0.145068
-0.139344
-0.133665
-0.128009
-0.122285
-0.116516
-0.105747
-0.0949774
-0.0892534
-0.0835747
-0.0679186
-0.0522851
-0.0466968
-0.0410407
-0.0452941
-0.0495249
-0.048733
-0.0479412
-0.0421946
-0.036448
-0.0357014
-0.0348643
-0.0338914
-0.0328281
-0.0368326
-0.0404751
-0.0339367
-0.0223529
-0.010724
-0.00409503
-0.00746607
-0.010905
-0.0144344
-0.0181222
-0.0119683
-0.00592761
-0.0100453
-0.0144344
-0.0139819
0.00644796
0.0168552
0.0172624
0.0176244
0.0129412
0.00825791
0.00859728
0.00895927
0.00427601
-0.000452496
0.00477375
0.0100226
0.000429846
0.000904962
0.0313348
0.0566968
0.0720814
0.102851
0.15414
0.186131
0.193891
0.202262
0.201176
0.19457
0.187285
0.164118
0.120045
0.0854751
0.0554299
0.0352036
0.0197964
0.00945702
-0.000814468
-0.00606334
-0.00628959
-0.00156108
0.0081448
0.0128959
0.00766967
0.00246605
0.00228506
0.00210405
0.00196831
0.0219004
0.0418099
0.0316063
0.0212669
0.0308144
0.0601583
0.174299
0.308303
0.507217
0.686154
0.800136
0.834186
0.668281
0.497443
0.306652
0.150995
0.0504751
-0.0299322
-0.0752263
-0.100498
-0.095724
-0.0959729
-0.106244
-0.106561
-0.0969457
-0.0923303
-0.0976471
-0.102941
-0.103213
-0.103462
-0.0986878
-0.0988914
-0.109118
-0.114457
-0.114819
-0.115045
-0.110339
-0.105905
-0.102036
-0.0988462
-0.091448
-0.109932
-0.12862
-0.132217
-0.135158
-0.137217
-0.138484
-0.143959
-0.148982
-0.158643
-0.16819
-0.16767
-0.167149
-0.161697
-0.15629
-0.155815
-0.155294
-0.159729
-0.164095
-0.163439
-0.162828
-0.162262
-0.161742
-0.161222
-0.150656
-0.120091
-0.109548
-0.104005
-0.0983937
-0.0927602
-0.077172
-0.061629
-0.0560634
-0.0604751
-0.0648869
-0.0592987
-0.0537104
-0.0481222
-0.0425113
-0.0468778
-0.051267
-0.0506335
-0.0398417
-0.038914
-0.0329186
-0.0268326
-0.0155883
-0.00420816
-0.0127602
-0.0212444
-0.0247059
-0.0281901
-0.0267421
-0.0254299
-0.0193439
-0.0134389
-0.00766971
-0.0021041
-0.00667424
-0.0113801
-0.00622174
-0.00110862
0.00398188
0.00411763
-0.00567875
-0.0104751
-0.0103168
-0.0102263
-0.010181
-0.0201358
-0.0350905
-0.0299321
-0.00966066
0.015543
0.0406787
0.0858371
0.131109
0.161878
0.188258
0.190611
0.183801
0.172466
0.161267
0.144299
0.131561
0.098009
0.0637782
0.0340724
0.00398185
-0.00633488
-0.0167874
-0.0122399
-0.00771497
0.00178729
0.0113122
0.00590495
0.000497706
-0.00500004
-0.0104978
-0.0109502
-0.0114027
-0.0118326
-0.00223984
0.0273303
0.0368326
0.0162896
0.0406561
0.104909
0.233937
0.39776
0.586516
0.785249
0.833959
0.807647
0.656357
0.460158
0.28414
0.113281
0.0175339
-0.063077
-0.0885973
-0.104118
-0.104706
-0.0953394
-0.0909503
-0.101516
-0.101991
-0.102443
-0.112941
-0.123484
-0.119005
-0.114502
-0.110023
-0.105656
-0.111403
-0.117127
-0.117692
-0.11819
-0.113665
-0.109683
-0.10129
-0.0937557
-0.107059
-0.120837
-0.125023
-0.128258
-0.135498
-0.141765
-0.142149
-0.142059
-0.146629
-0.151154
-0.155633
-0.160204
-0.159887
-0.149548
-0.134186
-0.133756
-0.143258
-0.152783
-0.162353
-0.167014
-0.161742
-0.156493
-0.151244
-0.145928
-0.145566
-0.120181
-0.104796
-0.0844796
-0.0642308
-0.0590045
-0.053733
-0.058371
-0.0629864
-0.0576244
-0.0522624
-0.0418778
-0.0315385
-0.0312896
-0.0310407
-0.0359276
-0.0405656
-0.0350679
-0.0295023
-0.0238688
-0.0180543
-0.0120588
-0.0108371
-0.0244118
-0.028009
-0.0166742
-0.0104072
-0.00420814
-0.00312217
-0.0121267
-0.0162896
-0.0106108
-0.00511312
0.00013575
0.005181
0.0100905
0.015
0.00993213
0.00495476
4.52474e-05
0.00511312
0.0201131
0.015
0.00484161
0.0047285
0.004638
-0.000452504
-0.005543
0.00443436
0.0144344
0.0343665
0.0644344
0.119796
0.170792
0.192602
0.210226
0.203665
0.19733
0.195905
0.178778
0.140747
0.106968
0.0774661
0.0425339
0.0122398
0.00178732
0.0162217
0.0255882
0.0249321
0.0193439
-0.00124435
-0.0067421
-0.00219458
0.00226243
-0.00337105
-0.00898191
-0.00457013
0.0198416
0.0442534
0.0486199
0.0429412
0.0372624
0.0364706
0.160498
0.294389
0.498167
0.696946
0.805679
0.889367
0.673054
0.456833
0.245724
0.0547285
-0.0461538
-0.1269
-0.142534
-0.1531
-0.123597
-0.099095
-0.099638
-0.100181
-0.105701
-0.111154
-0.116584
-0.117081
-0.102647
-0.0932127
-0.0887331
-0.0892534
-0.099819
-0.105543
-0.10638
-0.101991
-0.0925113
-0.0831674
-0.0741629
-0.0808145
-0.0981674
-0.106312
-0.114819
-0.123145
-0.130724
-0.122014
-0.102398
-0.112149
-0.0965385
-0.145769
-0.155045
-0.144434
-0.133937
-0.128552
-0.12319
-0.142783
-0.162353
-0.156991
-0.151652
-0.15129
-0.150928
-0.145543
-0.140158
-0.139819
-0.139525
-0.129231
-0.103914
-0.0685747
-0.0482353
-0.0428959
-0.0424887
-0.0520588
-0.0566742
-0.0563348
-0.0459502
-0.0254751
-0.0200226
-0.0296154
-0.0341855
-0.033733
-0.0232805
-0.00782804
-0.00230769
-0.00671946
-0.0111086
-0.010362
-0.0193213
-0.033009
-0.0215611
-2.262e-05
0.0014706
-0.00208145
0.00432127
0.0105882
0.00162897
-0.00751131
-0.00678733
-0.00624434
0.00411765
0.0143665
0.0296154
0.0448869
0.0351584
0.0253846
0.00547513
-0.00447962
0.00558824
0.0156787
0.0157466
0.0157919
0.0208597
0.0260181
0.031267
0.0365158
0.0367195
0.0618778
0.107014
0.14276
0.179163
0.191471
0.194661
0.198348
0.202421
0.18552
0.157647
0.128824
0.10414
0.0740045
0.0435068
0.0229185
0.00223979
-0.00334844
0.00615381
0.0156787
0.0252262
0.00977372
-0.00567877
-0.00115389
0.00337099
-0.00201362
-0.00735299
-0.00271496
0.011923
0.051561
0.0761538
0.0506787
0.0451357
0.0945248
0.188778
0.337896
0.496878
0.665679
0.739502
0.703348
0.542217
0.266131
0.0752488
-0.0653847
-0.14595
-0.186335
-0.181855
-0.152353
-0.122783
-0.0931448
-0.0834842
-0.0888009
-0.0942082
-0.0947059
-0.0952036
-0.0907014
-0.0861765
-0.086629
-0.0870362
-0.0874661
-0.083009
-0.0785973
-0.0791403
-0.0795701
-0.074819
-0.070362
-0.0814027
-0.0932126
-0.0908597
-0.0891403
-0.0979638
-0.106176
-0.108575
-0.110091
-0.117466
-0.12276
-0.127624
-0.132308
-0.136787
-0.14129
-0.12586
-0.125407
-0.13491
-0.144457
-0.154072
-0.158643
-0.158122
-0.157624
-0.152172
-0.141674
-0.131131
-0.125656
-0.125249
-0.119864
-0.109502
-0.094095
-0.0786425
-0.0730995
-0.0724661
-0.0668778
-0.0563348
-0.0508823
-0.0504751
-0.0500226
-0.0495249
-0.0490045
-0.0484615
-0.0428733
-0.0372398
-0.0315837
-0.025905
-0.0202036
-0.0143665
-0.0233484
-0.0321946
-0.0258597
-0.0194344
-0.0179864
-0.0165385
-0.0150905
-0.013733
-0.0125113
-0.0114706
-0.0105882
-0.00988687
-0.0043665
0.00604073
0.0163349
0.0215611
0.0167873
0.0120136
0.00723983
0.00237558
0.00242084
0.0024887
-0.0024208
-0.00235293
0.00769232
0.00776019
-0.00212668
0.0031222
0.0184616
0.0387104
0.0639593
0.104412
0.145272
0.17181
0.199072
0.192104
0.185475
0.178665
0.166109
0.132308
0.0976471
0.0723529
0.0466968
0.0258597
0.0100452
0.00441174
-0.00113126
-0.00158374
-0.00196835
-0.00235298
-0.00278284
0.00176467
0.0063348
0.000950195
-0.00438918
-0.00970592
-4.52921e-05
0.0245927
0.034276
0.0339592
0.0335067
0.0279638
0.112398
0.226719
0.395769
0.569638
0.703461
0.822308
0.696176
0.535045
0.343937
0.522941
0.0570814
-0.0386426
-0.0692535
-0.0997965
-0.090249
-0.0807014
-0.0910634
-0.101403
-0.10181
-0.102285
-0.102783
-0.103281
-0.0987783
-0.094276
-0.0997512
-0.105181
-0.100566
-0.096086
-0.0917647
-0.0873756
-0.0878959
-0.0883937
-0.0939819
-0.100204
-0.102127
-0.104955
-0.108462
-0.112149
-0.115724
-0.118416
-0.125249
-0.131312
-0.136765
-0.141878
-0.141765
-0.141516
-0.146199
-0.15086
-0.145498
-0.140181
-0.14491
-0.154615
-0.159299
-0.158959
-0.158597
-0.158258
-0.157941
-0.147624
-0.137308
-0.127014
-0.116742
-0.111471
-0.106154
-0.0957466
-0.0852941
-0.0748643
-0.064457
-0.0590724
-0.053733
-0.0534163
-0.0530996
-0.0528054
-0.0524661
-0.0520362
-0.0466063
-0.0362217
-0.0308371
-0.0354072
-0.0398643
-0.0341855
-0.0283032
-0.0272172
-0.0260181
-0.0247059
-0.0234163
-0.0171493
-0.0109729
-0.0099095
-0.00902715
-0.00832579
-0.00776018
-0.00735294
-0.00710408
-0.0169683
-0.00687782
0.0031448
-0.00187782
-0.00692307
-0.00196833
0.00298642
-0.00205883
-0.00710408
-0.0121946
-0.017353
-0.0125792
-0.00778282
-0.0128959
-0.00798646
0.0219683
0.041923
0.0518552
0.0821719
0.133009
0.164593
0.181946
0.184909
0.178416
0.17638
0.173643
0.150023
0.117195
0.0822398
0.0518325
0.0312896
0.00561083
-4.52772e-05
-0.00567876
-0.0113349
-0.0070136
-0.00269233
-0.00837106
-0.0140498
-0.0147285
-0.0153846
-0.0160181
-0.0166968
-0.0173982
0.0169683
0.0513801
0.0408145
0.030181
0.0394118
0.0735294
0.217534
0.371312
0.574842
0.733348
0.776855
0.750407
0.553914
0.362647
0.191448
0.055362
-0.0156109
-0.0614932
-0.0872625
-0.0979186
-0.0984842
-0.099095
-0.0997059
-0.100317
-0.100973
-0.101674
-0.107398
-0.113122
-0.108846
-0.104548
-0.105226
-0.105905
-0.101629
-0.0974208
-0.09319
-0.0938461
-0.10457
-0.110498
-0.112014
-0.114321
-0.117443
-0.11638
-0.115339
-0.119005
-0.121946
-0.134027
-0.14543
-0.146176
-0.146538
-0.141561
-0.136471
-0.141335
-0.146199
-0.151018
-0.155792
-0.155566
-0.155339
-0.160113
-0.164887
-0.154638
-0.144389
-0.139163
-0.133914
-0.128643
-0.118416
-0.103235
-0.0930317
-0.0878507
-0.0776244
-0.0673529
-0.0621041
-0.0618778
-0.0616063
-0.0562896
-0.0509955
-0.045724
-0.0354525
-0.025181
-0.0199095
-0.014638
-0.00936653
-0.0190272
-0.0185068
-0.0178733
-0.0171946
-0.0163801
-0.0103394
-0.0041629
-0.00289593
-0.00160634
-0.00538462
-0.00920815
-0.00303167
0.00300905
0.00882353
0.0144344
0.0148416
0.0151131
0.0202262
0.0252941
0.0203167
0.0152715
0.0152036
0.0151358
0.0150226
0.0148869
0.0147511
0.0145928
0.0194118
0.0192308
0.00904977
0.00398189
0.00402714
0.0240724
0.0541176
0.0791855
0.0993891
0.145249
0.20181
0.209321
0.212579
0.206018
0.219321
0.171742
0.153303
0.124072
0.0941856
0.0689367
0.0434842
0.0179638
-0.00757915
-0.00309951
0.00140275
0.00588238
0.0103394
0.00977377
0.00918553
0.00857467
0.00796381
0.00239819
-0.0031448
0.00631222
0.0257692
0.0502489
0.0546833
0.0340724
0.0533937
0.107557
0.246471
0.430204
0.618869
0.802466
0.811109
0.744796
0.583484
0.39224
0.241109
0.0950905
0.0142308
-0.0514932
-0.0720814
-0.0875792
-0.0930769
-0.0985973
-0.104186
-0.104819
-0.10543
-0.106018
-0.106629
-0.107262
-0.102828
-0.0983258
-0.103824
-0.109434
-0.100158
-0.0908597
-0.0964706
-0.101968
-0.102376
-0.103145
-0.104321
-0.106403
-0.114389
-0.1231
-0.127376
-0.131086
-0.139163
-0.146222
-0.142353
-0.137851
-0.142828
-0.152511
-0.162059
-0.166629
-0.166222
-0.16586
-0.165543
-0.165158
-0.169706
-0.174253
-0.168801
-0.163394
-0.168032
-0.16267
-0.14733
-0.137014
-0.121674
-0.11129
-0.100882
-0.0954525
-0.09
-0.0795928
-0.0692308
-0.0638462
-0.0584389
-0.0580317
-0.0576244
-0.0521946
-0.0467421
-0.046267
-0.0457919
-0.0354072
-0.025
-0.0345475
-0.0440272
-0.0383937
-0.0326244
-0.0317421
-0.0306335
-0.0342534
-0.0378281
-0.0313801
-0.0249774
-0.0235294
-0.0223756
-0.0163801
-0.00554299
0.00513574
0.00572398
-0.00380091
-0.00852941
-0.0134389
-0.0183937
-0.0133484
-0.00830317
-0.00325792
0.00176471
0.00176471
-0.00325791
-0.00832579
-0.00846154
-0.00864254
-0.0088009
-0.0088914
0.00615385
0.0212444
0.0362444
0.0613801
0.111833
0.152919
0.169796
0.187466
0.186018
0.18448
0.187647
0.175091
0.141674
0.107602
0.072896
0.0428281
0.0174661
0.00199099
-0.00357462
-0.00418548
0.00515841
0.00952492
0.00393669
-0.00167419
-0.00230768
-0.00296379
-0.00864252
-0.014276
-0.00986424
0.0195249
0.0488688
0.0532127
0.0475792
0.0319005
0.016086
0.105068
0.203914
0.407647
0.606312
0.76491
0.893484
0.772104
0.635837
0.419661
0.223575
0.0876245
-0.0231222
-0.0837104
-0.124299
-0.119887
-0.11552
-0.106199
-0.0969231
-0.107692
-0.118416
-0.119118
-0.119796
-0.115407
-0.111041
-0.106765
-0.0975792
-0.0884163
-0.0892534
-0.100045
-0.105701
-0.106403
-0.107579
-0.104344
-0.1019
-0.110181
-0.119118
-0.122964
-0.125973
-0.133009
-0.138937
-0.139163
-0.138959
-0.128529
-0.137941
-0.14733
-0.141878
-0.136561
-0.14129
-0.145995
-0.150656
-0.155339
-0.160113
-0.164932
-0.164751
-0.16457
-0.149412
-0.134276
-0.129072
-0.123824
-0.128529
-0.128258
-0.108054
-0.0928959
-0.0777828
-0.0726471
-0.0674434
-0.0621946
-0.0569005
-0.051629
-0.0463801
-0.0360633
-0.025724
-0.0204525
-0.0152262
-0.00995475
-0.014638
-0.0192308
-0.018733
-0.0281448
-0.0424208
-0.041448
-0.0302715
-0.0140271
-0.0227376
0.00848417
0.00966064
0.0108597
0.011991
0.00791857
0.00364255
0.00416291
0.00450228
0.00968327
0.0147738
0.019819
0.0248416
0.0149095
0.00495476
0.0100226
0.0149548
0.0199095
0.0248416
0.0197285
0.0145701
0.0144118
0.0194118
0.0295701
0.0347285
0.0398416
0.0648416
0.109729
0.140045
0.165837
0.182579
0.195249
0.19862
0.192557
0.17095
0.148733
0.125543
0.101471
0.0617647
0.0215385
0.0110634
0.000429869
0.00479639
0.0141629
0.0235747
0.0330317
0.0224661
0.0118779
0.00126698
-0.0093665
2.26386e-05
0.0144344
0.0388914
0.0584163
0.0679864
0.0725113
0.0519231
0.0712217
0.180453
0.314548
0.498529
0.667421
0.816177
0.799887
0.613575
0.397308
0.156086
0.00502264
-0.0908823
-0.141719
-0.167421
-0.163077
-0.13871
-0.119276
-0.104774
-0.105271
-0.115769
-0.11129
-0.0968326
-0.0924208
-0.0880543
-0.0836878
-0.0793213
-0.0748869
-0.0854072
-0.0859502
-0.0865611
-0.0823077
-0.0780317
-0.073552
-0.0692081
-0.0801131
-0.0916742
-0.0989366
-0.1069
-0.100566
-0.0988914
-0.121742
-0.133529
-0.119231
-0.109457
-0.119208
-0.128688
-0.132941
-0.137376
-0.141968
-0.146629
-0.15138
-0.156109
-0.155769
-0.150385
-0.140068
-0.134638
-0.139231
-0.138801
-0.128348
-0.117941
-0.107579
-0.0972172
-0.0868552
-0.0814932
-0.0761312
-0.0707466
-0.0703394
-0.0599548
-0.0695928
-0.0442082
-0.0488009
-0.0433711
-0.0379186
-0.0324887
-0.0270815
-0.0316742
-0.0362443
-0.0307466
-0.025181
-0.0145475
-0.00377829
-0.00780544
-0.0116968
-0.0154751
-0.0191855
-0.0128959
-0.00660632
-0.00536198
-0.00420814
-0.00314478
-0.00223981
0.0035068
0.00902716
0.00432128
-0.000497726
0.00457015
0.00963802
0.00972852
0.00988689
0.00511314
0.000248882
0.00529413
0.0102715
0.010181
0.0101358
0.00515838
0.000271508
0.000452504
0.0107014
0.0259955
0.0461991
0.0614932
0.0922851
0.123688
0.150905
0.178869
0.187511
0.196086
0.188801
0.17552
0.136176
0.101176
0.0857466
0.0650905
0.0442986
0.0285068
0.0178281
0.00726245
0.00178733
-0.00368778
-0.00420814
-0.00470588
-0.00013574
0.00441178
0.00393667
0.00348417
0.00305431
0.00766969
0.0172398
0.0367195
0.0611086
0.0554525
0.0297059
0.0737783
0.142738
0.291606
0.450407
0.609231
0.768077
0.697014
0.596063
0.370136
0.139299
0.0386878
-0.0617647
-0.117172
-0.172579
-0.138009
-0.103462
-0.0989366
-0.0944344
-0.0999321
-0.10543
-0.10095
-0.0964706
-0.0919457
-0.0874434
-0.0930543
-0.098733
-0.0944344
-0.09
-0.0904299
-0.090905
-0.0865158
-0.0827149
-0.0845928
-0.0873529
-0.0958824
-0.104729
-0.108665
-0.111674
-0.113891
-0.115272
-0.11595
-0.116154
-0.115995
-0.115701
-0.120339
-0.130023
-0.139683
-0.144253
-0.143756
-0.143281
-0.142851
-0.142511
-0.13224
-0.131923
-0.131561
-0.136222
-0.140905
-0.130588
-0.120272
-0.10991
-0.0995023
-0.0841177
-0.0687557
-0.0633937
-0.0580317
-0.0626697
-0.0672398
-0.05681
-0.0464254
-0.0410407
-0.0356335
-0.0352263
-0.034819
-0.0294344
-0.0240045
-0.0285068
-0.0329638
-0.0323529
-0.0316516
-0.0308824
-0.0299548
-0.0238688
-0.0176697
-0.0163575
-0.0150453
-0.00873304
-0.00248869
-0.00633484
-0.0103846
-0.009638
-0.00900452
-0.00350678
0.00183259
0.00205883
-0.00276017
-0.00762443
-0.00753393
-0.00751131
-0.00753393
-0.00757918
0.00239819
0.0123982
0.0123982
0.0123982
0.00737557
0.00735294
0.0273756
0.0474661
0.0626471
0.0878054
0.132851
0.163122
0.173733
0.180023
0.172036
0.164751
0.158167
0.141244
0.118846
0.0904299
0.0559729
0.0310634
0.0107014
9.05059e-05
-0.000769226
-0.00147058
-0.00201357
-0.00253392
-0.00803167
-0.0135747
-0.00916289
-0.00470588
-0.00520362
0.00432127
0.0238688
0.0384163
0.0529638
0.0325339
0.0120136
0.0313348
0.0705882
0.204819
0.358891
0.55776
0.726584
0.805362
0.814118
0.632919
0.45181
0.270815
0.119932
0.0191629
-0.056448
-0.0919005
-0.112285
-0.0976244
-0.098009
-0.108439
-0.113891
-0.114344
-0.109796
-0.0952489
-0.0857014
-0.0911086
-0.0964932
-0.0918552
-0.0872851
-0.0878281
-0.0884389
-0.0940498
-0.0995023
-0.0999095
-0.100339
-0.0961312
-0.0925566
-0.094819
-0.113054
-0.121787
-0.120724
-0.119072
-0.121493
-0.1231
-0.123937
-0.124299
-0.139208
-0.153914
-0.153507
-0.1531
-0.152715
-0.15233
-0.156968
-0.161493
-0.160973
-0.160475
-0.155023
-0.149548
-0.144027
-0.138529
-0.1331
-0.12267
-0.112217
-0.101765
-0.0862896
-0.0757919
-0.0752941
-0.074819
-0.0693665
-0.058914
-0.0484616
-0.0429864
-0.0424887
-0.0419231
-0.0413122
-0.0407466
-0.035181
-0.0295928
-0.0289819
-0.0232806
-0.0174887
-0.0166063
-0.0155656
-0.019276
-0.0228281
-0.0213348
-0.019819
-0.013371
-0.00699096
-0.000678741
0.00552036
0.00658371
0.00748869
0.00823529
0.00882353
0.00927602
0.00963801
0.00995475
0.0102262
0.0104525
0.0106561
0.0158145
0.0209276
0.0160407
0.0111538
0.0112443
0.0113801
0.00660633
0.00192307
0.00233031
0.0276244
0.0628054
0.0780769
0.0885294
0.129593
0.176357
0.189027
0.197443
0.201176
0.194932
0.177873
0.155
0.131312
0.106946
0.0721493
0.0370362
0.0217647
0.00640273
0.00608598
0.00574662
0.00536201
0.00495476
0.00454752
0.00416291
0.00386879
0.00361993
-0.00171944
-0.00699093
0.00285069
0.0226471
0.0473756
0.0570136
0.0315158
0.0307919
0.0498643
0.143801
0.287647
0.476561
0.68552
0.789457
0.843439
0.722557
0.521833
0.346267
0.17586
0.0705882
-0.0245928
-0.064819
-0.0950905
-0.100362
-0.0956335
-0.095905
-0.0911765
-0.116471
-0.121787
-0.112104
-0.102421
-0.107738
-0.113077
-0.103439
-0.0938461
-0.0992986
-0.104661
-0.104887
-0.105317
-0.106018
-0.107511
-0.10819
-0.11138
-0.115385
-0.119005
-0.127217
-0.134502
-0.140905
-0.141584
-0.131629
-0.131312
-0.140701
-0.145068
-0.144434
-0.143778
-0.1481
-0.157398
-0.166674
-0.170973
-0.170294
-0.169638
-0.164005
-0.158416
-0.152805
-0.147127
-0.141403
-0.135679
-0.134955
-0.124253
-0.113575
-0.102896
-0.0922172
-0.0815158
-0.0707919
-0.0650679
-0.0593439
-0.0535747
-0.0477602
-0.041991
-0.036267
-0.035543
-0.0347738
-0.0389593
-0.0431222
-0.0372625
-0.031267
-0.0300905
-0.0288688
-0.0276244
-0.0262217
-0.024638
-0.0180091
-0.00635746
0.000339374
0.00203621
0.00357467
0.00493214
0.00615386
0.00223983
-0.00185519
-0.00113121
-0.000520349
0.00497739
0.0104525
0.0108824
0.0112444
0.0115611
0.0118778
0.00721721
0.00760182
0.0229864
0.00325793
-0.0165158
-0.00124433
0.0141177
0.0345928
0.0601131
0.105498
0.15086
0.181312
0.207195
0.198733
0.191131
0.184457
0.173258
0.152376
0.125905
0.0934842
0.0602715
0.0312896
0.01181
0.00687784
0.00180995
0.00165158
0.00147058
0.00131221
0.00110859
0.00088235
0.000520356
0.000113122
-0.000203617
0.00457014
0.0143665
0.0241855
0.0390498
0.0538914
0.0435068
0.0230091
0.0774887
0.151833
0.335928
0.15491
0.708846
0.892805
0.816855
0.73595
0.535045
0.339208
0.178484
0.0379186
-0.0424208
-0.102624
-0.10276
-0.102964
-0.103258
-0.103552
-0.108891
-0.114163
-0.114457
-0.114796
-0.110158
-0.105543
-0.0909276
-0.0912896
-0.101652
-0.107149
-0.10776
-0.108281
-0.103756
-0.0992987
-0.100113
-0.101561
-0.108733
-0.116765
-0.120407
-0.124321
-0.132851
-0.140204
-0.136516
-0.1319
-0.131652
-0.141041
-0.155272
-0.164525
-0.168891
-0.173371
-0.177851
-0.172285
-0.166697
-0.161109
-0.15552
-0.154955
-0.154389
-0.163778
-0.173167
-0.157602
-0.142059
-0.136516
-0.130973
-0.125453
-0.119864
-0.109186
-0.098552
-0.0929412
-0.082353
-0.06681
-0.0562217
-0.0555882
-0.0599774
-0.0694118
-0.0688462
-0.0482127
-0.0426244
-0.0420588
-0.0413575
-0.040543
-0.0396606
-0.0336878
-0.0275339
-0.0261991
-0.0247059
-0.0230543
-0.0213801
-0.0147511
-0.0132579
-0.0269005
-0.0157014
-0.00466065
-0.00380092
-0.00312219
0.0024208
0.00787329
-0.00171947
-0.0113801
-0.011086
-0.0108371
-0.000633501
0.00952487
0.014638
0.0196154
0.00943438
-0.000565633
-0.010362
-0.0201584
-0.0199548
-0.0047059
0.0405882
0.0608597
0.0660633
0.0964932
0.15224
0.178846
0.189661
0.187964
0.172081
0.165814
0.16414
0.146561
0.1181
0.0839593
0.0442308
0.0141403
-0.0112217
-0.00160633
0.0179864
0.0175792
0.022172
-0.00328054
-0.00877828
-0.00427602
0.000226252
0.00475114
0.00929864
0.00893665
0.0135973
0.04819
0.0776697
0.0620588
0.0514027
0.075724
0.144842
0.294163
0.463009
0.66181
0.805611
0.869434
0.788326
0.532285
0.306403
0.105701
-0.0298416
-0.110294
-0.145679
-0.146063
-0.126493
-0.0969457
-0.0924434
-0.102986
-0.108529
-0.109072
-0.109593
-0.10509
-0.100588
-0.101086
-0.0966516
-0.0873529
-0.0831222
-0.0838235
-0.0843665
-0.0850452
-0.106041
-0.127692
-0.120113
-0.113258
-0.107149
-0.100814
-0.113982
-0.126018
-0.121878
-0.117149
-0.1169
-0.116425
-0.125656
-0.140023
-0.15457
-0.164208
-0.158937
-0.15362
-0.148235
-0.142828
-0.147421
-0.157059
-0.171742
-0.171471
-0.151222
-0.13595
-0.125724
-0.120452
-0.115136
-0.109819
-0.109502
-0.10914
-0.103733
-0.0933936
-0.0831222
-0.0728507
-0.0625792
-0.0522624
-0.0419004
-0.0115158
0.0238914
-0.015724
-0.055362
-0.0450226
-0.0347059
-0.0293665
-0.0239366
-0.0282805
-0.0325113
-0.0267194
-0.0207918
-0.0246154
-0.0283258
-0.0219909
-0.0156787
-0.00450224
0.00662899
0.0077376
0.00871044
-0.000497699
-0.00990947
-0.00954748
-0.00934386
-0.00427599
0.000814505
0.000972882
0.00110862
0.00624438
0.0112444
0.0111991
0.0111539
0.0111086
0.011086
0.00608599
0.00110861
0.00617649
0.0263801
0.0466968
0.0569457
0.0671493
0.117466
0.0730996
0.179389
0.186425
0.184344
0.182896
0.171765
0.155294
0.117647
0.0839593
0.0543892
0.0342308
0.00868785
-0.00703614
-0.00776012
-0.00839361
-0.00389135
0.000678793
0.00520369
0.0096607
0.00907246
0.00848423
0.00791862
0.00742088
0.0119684
0.0315385
0.0611313
0.0606336
0.0300001
0.0641856
0.13819
0.286968
0.465566
0.634231
0.802964
0.761787
0.665724
0.424729
0.163801
0.0280543
-0.0975339
-0.148032
-0.193462
-0.158869
-0.119299
-0.0997964
-0.0803394
-0.0908597
-0.101357
-0.101833
-0.102285
-0.0927828
-0.083371
-0.0740724
-0.0647964
-0.0704525
-0.0760633
-0.0766289
-0.0771719
-0.0776923
-0.078733
-0.0853393
-0.0928054
-0.0911086
-0.0899095
-0.0940271
-0.0974434
-0.10009
-0.101833
-0.102783
-0.103145
-0.107941
-0.112624
-0.117308
-0.121991
-0.126674
-0.13129
-0.135837
-0.140407
-0.140023
-0.139661
-0.139299
-0.138959
-0.138665
-0.138394
-0.1281
-0.127715
-0.127262
-0.116787
-0.10629
-0.0958597
-0.0854977
-0.0801131
-0.0747059
-0.069276
-0.0638235
-0.058371
-0.0529185
-0.0474434
-0.0419457
-0.0364932
-0.0310181
-0.0305204
-0.0299774
-0.0344118
-0.0388462
-0.0332353
-0.0275113
-0.0266742
-0.0257919
-0.0248643
-0.0237104
-0.0177602
-0.0113575
-0.00495476
0.00138009
-0.00235293
-0.00615384
-4.52399e-05
0.00585974
0.0015611
-0.00294117
0.00242083
0.0076697
0.00782806
0.00794118
0.00803168
-0.00187783
-0.00178733
0.00830316
0.0183937
0.0185068
0.0186425
0.00875566
-0.00115385
-0.00106335
0.00409502
0.0294118
0.0597511
0.0999321
0.140249
0.170905
0.19224
0.189389
0.187285
0.180928
0.169389
0.147421
0.124344
0.0900679
0.0602036
0.0397964
0.0241629
0.00832582
-0.00235292
-0.00285066
-0.00328052
-0.00364251
-0.00404974
-0.00450222
-0.0049547
-0.000407189
0.0092082
0.0188915
0.0236426
0.0284616
0.0332579
0.0329412
0.0324661
0.0318778
0.151222
0.27543
0.464434
0.653348
0.772262
0.851199
0.705181
0.544231
0.353348
0.187602
0.0869909
-0.00350682
-0.0689141
-0.109231
-0.0994797
-0.0897285
-0.0999774
-0.110249
-0.110543
-0.10586
-0.0961765
-0.0914932
-0.09181
-0.0871267
-0.0774435
-0.0778055
-0.0881901
-0.0936652
-0.0991856
-0.10457
-0.0998869
-0.0952941
-0.101041
-0.107443
-0.109615
-0.112692
-0.116312
-0.120158
-0.123575
-0.126063
-0.117692
-0.123484
-0.128733
-0.138575
-0.148235
-0.152805
-0.157353
-0.161878
-0.16638
-0.16586
-0.165317
-0.164774
-0.164253
-0.158756
-0.153258
-0.142783
-0.132285
-0.13181
-0.131335
-0.125815
-0.115272
-0.0997512
-0.0892308
-0.0886652
-0.083077
-0.0724887
-0.0669231
-0.0613801
-0.0558824
-0.0503846
-0.0448417
-0.0492534
-0.0536199
-0.0479412
-0.0423077
-0.0367195
-0.0311312
-0.0354978
-0.0397059
-0.0337557
-0.0276245
-0.0263122
-0.0248643
-0.0233258
-0.0168326
-0.0104073
-0.00907242
-0.00782809
-0.00167423
0.00438911
0.000294082
-0.00398193
-0.00341632
-0.00296383
-0.00262447
-0.00235297
0.00291853
0.00812215
0.00830314
0.00846151
0.00859726
0.00868776
0.00375564
-0.00110862
-0.00590499
-0.0107014
-0.0104977
0.00970586
0.0448869
0.0701131
0.0853846
0.116176
0.157511
0.174706
0.18276
0.186335
0.180226
0.168394
0.155814
0.127443
0.098371
0.0738461
0.048914
0.0236651
0.00321262
-0.00219462
-0.0075566
-0.00796384
-0.00841632
-0.00886881
-0.00929867
-0.00966067
-0.01
-0.0103846
-0.010724
-0.000950262
0.0138009
0.0334389
0.0429411
0.0223303
0.0164932
0.0454751
0.129389
0.27819
0.451991
0.655815
0.779661
0.833552
0.742579
0.541742
0.356086
0.175611
0.0602715
-0.03
-0.0703167
-0.0956787
-0.106086
-0.106538
-0.107014
-0.112511
-0.117986
-0.118439
-0.113891
-0.104367
-0.0998643
-0.090362
-0.0908145
-0.091267
-0.0968099
-0.102353
-0.102805
-0.103462
-0.109434
-0.116176
-0.118846
-0.122308
-0.121516
-0.120385
-0.123778
-0.126244
-0.12776
-0.12862
-0.138891
-0.148824
-0.148394
-0.147964
-0.147534
-0.152059
-0.161584
-0.166109
-0.165588
-0.165045
-0.164502
-0.164005
-0.158552
-0.1481
-0.137647
-0.132172
-0.136674
-0.141131
-0.140543
-0.129977
-0.114434
-0.103914
-0.0934163
-0.0878959
-0.087353
-0.07181
-0.066267
-0.060724
-0.055181
-0.044638
-0.0340724
-0.0384842
-0.0428959
-0.0373077
-0.0317195
-0.0261312
-0.0204525
-0.0295928
-0.0385973
-0.032534
-0.0262896
-0.0248643
-0.0234163
-0.016991
-0.00558825
0.0107466
0.0170136
0.00321267
-0.00572398
-0.00479639
-0.00409503
0.00142533
0.00680995
0.00708145
0.00730769
0.00748868
0.00764706
0.00778279
0.00789592
0.00298642
0.00300904
0.013009
0.00803167
-0.00692308
-0.00183259
0.0133258
0.038552
0.0588009
0.103982
0.14914
0.169389
0.19
0.18629
0.183371
0.18138
0.174955
0.148756
0.122127
0.0846154
0.0562896
0.0221267
0.0024208
0.00230768
0.00203618
0.00667419
0.0112443
0.0107918
0.0103393
0.00486422
-0.000678755
-0.001267
0.00319002
0.0127375
0.0173982
0.0171719
0.0269004
0.0465384
0.0460181
0.0303167
0.0844117
0.168348
0.347172
0.550905
0.729638
0.903394
0.832217
0.731131
0.530136
0.324276
0.183575
0.048009
-0.0324887
-0.107964
-0.103394
-0.0988009
-0.104208
-0.109638
-0.115091
-0.120543
-0.121018
-0.121516
-0.112014
-0.102534
-0.0980996
-0.0935973
-0.0990272
-0.104548
-0.110204
-0.115837
-0.116471
-0.117398
-0.11371
-0.110814
-0.11871
-0.127443
-0.126697
-0.125543
-0.128778
-0.130973
-0.13224
-0.137783
-0.147738
-0.152398
-0.1569
-0.161403
-0.160928
-0.160475
-0.165023
-0.169593
-0.169186
-0.178756
-0.178303
-0.167851
-0.157421
-0.152014
-0.146584
-0.146086
-0.145566
-0.145091
-0.144638
-0.119186
-0.10371
-0.0981674
-0.0925792
-0.086991
-0.081448
-0.075905
-0.0704299
-0.0650226
-0.0595928
-0.0441629
-0.0386652
-0.0430543
-0.0474435
-0.0468779
-0.0462896
-0.0406335
-0.0348869
-0.0390498
-0.0379412
-0.0265837
-0.0201131
-0.0185521
-0.0170815
-0.0156787
-0.0143665
-0.00812219
-0.00199096
-0.00597286
-0.0101584
-0.0045249
0.000882335
0.00115384
-0.0035973
-0.00837105
-0.0031448
0.00208145
0.00228506
0.00246607
0.0126018
0.0226471
0.0176244
0.00760181
-0.0123529
-0.0272624
-0.0171493
0.00294118
0.0330317
0.0682127
0.113416
0.148891
0.169774
0.186425
0.188959
0.187308
0.181448
0.170204
0.153439
0.125792
0.0922398
0.0630769
0.0383258
0.0232126
0.0127602
0.00733028
0.00692303
0.00644793
0.000904933
-0.00463805
-0.000158407
0.00436648
0.00389137
0.00839363
0.0229411
0.0176018
0.0122624
0.0367873
0.0611764
0.0504525
0.0495701
0.123529
0.222353
0.406086
0.589842
0.77862
0.892398
0.816222
0.685113
0.459072
0.258303
0.107805
-0.0126019
-0.0829412
-0.123326
-0.118756
-0.109208
-0.0996607
-0.0951131
-0.100588
-0.106086
-0.106584
-0.107149
-0.107738
-0.103281
-0.0938009
-0.0893892
-0.0900227
-0.0906788
-0.0963575
-0.102036
-0.103009
-0.109412
-0.121493
-0.129434
-0.133054
-0.127217
-0.13095
-0.118733
-0.10552
-0.11129
-0.116403
-0.13095
-0.145249
-0.149412
-0.153733
-0.153303
-0.152896
-0.147489
-0.147081
-0.161697
-0.171312
-0.175882
-0.175453
-0.160045
-0.149706
-0.134434
-0.129118
-0.133733
-0.138326
-0.132941
-0.122579
-0.107195
-0.0967873
-0.0913801
-0.0860181
-0.0807014
-0.075362
-0.07
-0.0646154
-0.0592082
-0.0437557
-0.0282579
-0.0227828
-0.0273529
-0.0320136
-0.0367421
-0.0214027
-0.000950232
-0.0203394
-0.0395475
-0.0435294
-0.0473303
-0.0360407
-0.0247059
-0.0234163
-0.022172
-0.00597286
0.0101357
0.00610859
0.00190045
-0.00251132
-0.00710408
-0.0068326
-0.00667422
-0.00660635
-0.00656109
0.00348416
0.0135068
0.00848416
-0.00158372
-0.0116516
-0.0117195
0.00319003
0.00309954
-0.0169457
-0.0120136
0.0128959
0.0379185
0.0580543
0.0881222
0.123167
0.153552
0.179389
0.181041
0.173507
0.171833
0.170679
0.164186
0.152104
0.0940045
0.035
0.0103167
-0.0149095
-0.0104751
-0.00624435
-0.00696833
-0.00762443
-0.0082353
-0.00882353
-0.00943439
-0.0100679
-0.00572399
-0.00140271
-0.00212669
0.00223983
0.0217195
0.0361765
0.0405883
0.0449095
0.044095
0.108077
0.2269
0.390611
0.584186
0.737738
0.86129
0.769932
0.563643
0.347511
0.126584
-0.0141855
-0.124842
-0.175475
-0.211109
-0.181697
-0.127285
-0.122873
-0.118462
-0.114027
-0.114593
-0.115226
-0.115905
-0.111629
-0.107376
-0.0930543
-0.0787557
-0.0894797
-0.100204
-0.10095
-0.101719
-0.102489
-0.103778
-0.105588
-0.108235
-0.105023
-0.103937
-0.108235
-0.111629
-0.119118
-0.125747
-0.126584
-0.126878
-0.126697
-0.126335
-0.125882
-0.125566
-0.130362
-0.135068
-0.139661
-0.144321
-0.14905
-0.153824
-0.153643
-0.148462
-0.138281
-0.133122
-0.132964
-0.12767
-0.117262
-0.1069
-0.0965837
-0.0863122
-0.081086
-0.0708371
-0.0605656
-0.0602941
-0.0600226
-0.0546833
-0.049276
-0.043914
-0.0386199
-0.0333937
-0.0281448
-0.0227602
-0.0173529
-0.0170136
-0.0166063
-0.0160634
-0.0153846
-0.00959276
-0.00366516
-0.00257919
-0.00135747
0.00497737
0.0112896
0.0125339
0.0137104
0.014819
0.0158824
0.0168778
0.0175566
0.0178959
0.0180543
0.0230543
0.0280769
0.0231222
0.0181448
0.0181448
0.0181222
0.0180769
0.018009
0.0229185
0.027828
0.0377376
0.0226471
0.00757919
0.0176244
0.0277602
0.0478959
0.0730317
0.113167
0.148597
0.16957
0.19129
0.193869
0.197127
0.190973
0.179412
0.161855
0.133326
0.0938009
0.0636651
0.0430543
0.0272172
0.0112217
0.00538459
0.00481898
0.00425337
0.00368777
0.00312216
0.00253392
0.00196831
0.00642532
0.010905
0.0104298
0.0250905
0.044819
0.0493891
0.0488235
0.0481448
0.0523077
0.176244
0.305045
0.498801
0.312534
0.786312
0.875158
0.67905
0.483032
0.297104
0.12629
0.0206108
-0.0699322
-0.105362
-0.130747
-0.106086
-0.0864027
-0.0917647
-0.097172
-0.102602
-0.108077
-0.103597
-0.0991403
-0.0896833
-0.080181
-0.0756109
-0.0761086
-0.0916968
-0.102308
-0.0979186
-0.0934615
-0.0890272
-0.0849548
-0.0914027
-0.0986652
-0.101697
-0.105475
-0.11448
-0.122941
-0.120679
-0.117443
-0.113439
-0.118891
-0.133891
-0.138552
-0.143054
-0.152579
-0.157127
-0.161674
-0.166222
-0.165724
-0.165181
-0.164638
-0.164095
-0.158552
-0.153009
-0.142466
-0.131923
-0.131403
-0.130905
-0.120407
-0.104887
-0.0893439
-0.0788009
-0.0782353
-0.0776471
-0.0720815
-0.0665611
-0.0610634
-0.0555656
-0.0500679
-0.0445475
-0.0389819
-0.0333711
-0.0326923
-0.0320815
-0.0365385
-0.0409502
-0.0353167
-0.0295475
-0.0286199
-0.0274887
-0.0261765
-0.0247738
-0.0182805
-0.01181
-0.0153846
-0.0140498
0.00219457
0.00332579
0.00429864
6.78748e-05
-0.00434389
-0.00389141
-0.00355203
-0.00832579
-0.0131448
-0.00798643
-0.00285068
0.00226244
0.00735293
0.00242081
-0.00253393
-0.00246606
-0.00739818
-0.0223529
-0.0222398
0.0029638
0.02319
0.0484163
0.0836425
0.133891
0.164728
0.176176
0.183462
0.179864
0.173394
0.167308
0.150317
0.127421
0.0987104
0.0692534
0.0393212
0.0139819
0.00348414
-0.00712671
-0.0126471
-0.00809956
-0.00357468
-0.00407242
0.000407219
0.00486424
0.00434388
0.00384614
-0.00158373
-0.00694571
0.0127149
0.0322851
0.0416289
0.0508371
0.0449774
0.0589593
0.147783
0.266606
0.455407
0.634208
0.798032
0.846901
0.730792
0.574796
0.363982
0.198348
0.0828733
-0.0124887
-0.082828
-0.113235
-0.10871
-0.104208
-0.104706
-0.105249
-0.110837
-0.116403
-0.116946
-0.117511
-0.1131
-0.108688
-0.109321
-0.11
-0.105656
-0.101244
-0.10181
-0.107376
-0.113258
-0.114661
-0.11681
-0.119842
-0.123529
-0.12276
-0.121516
-0.124525
-0.126629
-0.132805
-0.138416
-0.143529
-0.148371
-0.147986
-0.147624
-0.14733
-0.147036
-0.156697
-0.166312
-0.170905
-0.17552
-0.175158
-0.174819
-0.16948
-0.159163
-0.148914
-0.14362
-0.138213
-0.132783
-0.12733
-0.116923
-0.106561
-0.0961991
-0.0858371
-0.0804977
-0.075181
-0.0698416
-0.0644796
-0.059095
-0.0536878
-0.0482806
-0.0478733
-0.0424887
-0.0371041
-0.0367195
-0.0363122
-0.0357919
-0.035181
-0.0344344
-0.0335068
-0.0373303
-0.0409955
-0.029638
-0.0182806
-0.0119683
-0.00574663
0.000361975
0.0064027
0.00235293
-0.00187784
-0.00128961
-0.000882365
-0.000633501
-0.000452504
0.00466062
0.0097285
0.00979637
0.00986424
0.00990949
0.0099321
0.00993211
0.00990948
0.00486425
-0.000203624
-0.000294127
0.0197285
0.0548642
0.0750226
0.0952036
0.135362
0.175588
0.181222
0.182398
0.179412
0.177217
0.170769
0.164548
0.137805
0.105362
0.0719457
0.0427602
0.0130543
-0.00708143
0.00244346
0.01181
0.00622173
0.00067874
0.00513575
0.00959278
0.00398193
-0.00165156
0.00271495
0.00710409
0.0115385
0.0260181
0.0454977
0.0498416
0.034095
0.0282579
0.0373077
0.121086
0.249683
0.423303
0.616968
0.760701
0.88448
0.783326
0.622285
0.426357
0.225566
0.104887
-0.00070136
-0.0562217
-0.106719
-0.10224
-0.0927828
-0.0983032
-0.103801
-0.109344
-0.114932
-0.110566
-0.106244
-0.101923
-0.0976245
-0.0883484
-0.0791403
-0.09
-0.100792
-0.106471
-0.112376
-0.108552
-0.10543
-0.108054
-0.111561
-0.115837
-0.119955
-0.123756
-0.126584
-0.128507
-0.129683
-0.135204
-0.140272
-0.135045
-0.139751
-0.154412
-0.15914
-0.158891
-0.158575
-0.163213
-0.167896
-0.172624
-0.177376
-0.172149
-0.166878
-0.161561
-0.151244
-0.135928
-0.140566
-0.145158
-0.134796
-0.12448
-0.114163
-0.103846
-0.0985068
-0.0931448
-0.0877602
-0.082353
-0.0769457
-0.0715385
-0.0611312
-0.050724
-0.0453168
-0.0398869
-0.039457
-0.0390045
-0.0435068
-0.0479186
-0.042172
-0.0363122
-0.0353394
-0.0342081
-0.0329185
-0.0315837
-0.0252262
-0.018914
-0.0176697
-0.0165611
-0.015543
-0.0145928
-0.00875566
-0.00312218
-0.00269231
-0.00251132
0.00253393
0.00760181
0.00269231
-0.00223982
-0.00219456
-0.00214931
0.00787332
0.00782807
0.00773757
0.00264707
-0.00242081
-0.00742081
-0.00733031
0.0228507
0.0480317
0.0730996
0.0981222
0.153167
0.188597
0.184593
0.176448
0.164163
0.157534
0.151471
0.13491
0.112579
0.0843892
0.0553168
0.0307014
0.0106109
0.000271522
0.00470592
0.00916293
0.00366519
-0.00183255
-0.00235292
-0.00296377
0.0013575
0.00574663
0.00520364
0.00968328
0.0191855
0.0437104
0.0682353
0.0576471
0.0368778
0.0908824
0.154729
0.318484
0.492217
0.695928
0.874683
0.843529
0.777421
0.566358
0.370385
0.209502
0.0687783
-0.02681
-0.0923303
-0.102738
-0.108213
-0.0938235
-0.089457
-0.10509
-0.115679
-0.106244
-0.09681
-0.0973756
-0.098009
-0.0986652
-0.0993213
-0.095
-0.0907692
-0.0965611
-0.102262
-0.098009
-0.0940271
-0.0954977
-0.0976697
-0.105566
-0.114276
-0.118371
-0.122398
-0.125747
-0.127896
-0.129072
-0.129412
-0.129253
-0.133778
-0.138213
-0.147692
-0.157262
-0.156946
-0.156652
-0.16129
-0.165882
-0.160498
-0.155158
-0.159864
-0.164593
-0.159299
-0.148982
-0.128665
-0.118371
-0.1331
-0.142805
-0.132466
-0.117127
-0.0918099
-0.0815158
-0.0762217
-0.0708824
-0.070543
-0.0702262
-0.0649095
-0.0545928
-0.0442308
-0.0388461
-0.0334389
-0.0330317
-0.0426244
-0.0472172
-0.0467873
-0.0411991
-0.0304751
-0.024638
-0.0186878
-0.0174661
-0.011086
-0.0247737
-0.0185294
-0.0173529
-0.0162217
-0.00511311
0.00588236
0.00169684
-0.00266968
-0.00221719
-0.0019457
-0.00183257
-0.00178732
-0.00174208
-0.00169683
-0.0066742
-0.00669683
0.00825793
0.0181901
0.00812219
-0.00194569
-0.00203619
-0.00210406
0.00287331
0.0129864
0.0282353
0.0584163
0.103484
0.133778
0.159344
0.170656
0.17776
0.170792
0.154638
0.148326
0.141697
0.12414
0.105724
0.0715611
0.0367421
0.0164932
-0.00404979
0.00536197
0.0197511
0.0192081
0.0186878
0.00812214
-0.00246609
-0.00800908
-0.0135294
-0.00409506
0.00533933
0.00981898
0.0193212
0.0488235
0.0682579
0.0425792
0.0467194
0.115747
0.224638
0.388371
0.557104
0.740815
0.829548
0.818326
0.67224
0.411267
0.200407
0.0246606
-0.0759729
-0.141516
-0.156991
-0.147443
-0.127986
-0.10862
-0.109231
-0.119819
-0.12543
-0.121063
-0.111674
-0.102262
-0.097896
-0.0986199
-0.0994118
-0.100226
-0.0959955
-0.0916742
-0.0973077
-0.103281
-0.0997059
-0.0968099
-0.0945928
-0.0930317
-0.102127
-0.110814
-0.113937
-0.116086
-0.117195
-0.117805
-0.122919
-0.127715
-0.132195
-0.136787
-0.141538
-0.146335
-0.151154
-0.155905
-0.155566
-0.155204
-0.159819
-0.159502
-0.149231
-0.144027
-0.143801
-0.14362
-0.148462
-0.14319
-0.127828
-0.117489
-0.107172
-0.0918778
-0.0766063
-0.0713575
-0.0661312
-0.0608824
-0.0606109
-0.055362
-0.0501131
-0.0447964
-0.0394344
-0.0341403
-0.028914
-0.0286652
-0.028371
-0.033009
-0.0375792
-0.0320814
-0.026448
-0.0205882
-0.0145701
-0.0134389
-0.0122624
-0.0110633
-0.00993212
-0.00391402
0.00199096
-0.00221719
-0.00651583
-0.00090497
0.00450227
0.00470589
0.00477376
0.00470589
0.00468327
0.00472851
0.00475114
-0.000248862
-0.00531674
-0.00545248
-0.000610856
0.00920815
0.00904978
-0.00108597
-0.00617647
-0.00119909
0.018914
0.039095
0.0741177
0.10414
0.139502
0.175385
0.177014
0.179412
0.172624
0.166222
0.139774
0.11767
0.0943665
0.0700905
0.0450226
0.0245022
0.00371039
-0.00714935
0.00201356
0.0112896
0.00567874
6.78897e-05
-0.000588216
-0.00126695
-0.00192305
-0.00253391
0.00190048
0.0163575
0.0357919
0.0501358
0.0594118
0.0486652
0.0228281
0.0867421
0.195453
0.359118
0.532783
0.686539
0.835385
0.749276
0.623258
0.407376
0.181584
0.0808597
-0.0197511
-0.0852715
-0.150747
-0.126199
-0.101652
-0.0971267
-0.0926244
-0.103167
-0.113756
-0.114344
-0.114932
-0.100543
-0.0861538
-0.0866968
-0.0872624
-0.0779412
-0.0736652
-0.089457
-0.100158
-0.100769
-0.1019
-0.0985973
-0.0961538
-0.0945023
-0.0933937
-0.102557
-0.110995
-0.113665
-0.115385
-0.116312
-0.116742
-0.111742
-0.106471
-0.111018
-0.120611
-0.130249
-0.134909
-0.134593
-0.134253
-0.138891
-0.143484
-0.143032
-0.142579
-0.142127
-0.136697
-0.13129
-0.115882
-0.100475
-0.10009
-0.0997285
-0.0893213
-0.0788688
-0.0684163
-0.0579638
-0.0575113
-0.0570588
-0.0516063
-0.0461539
-0.040724
-0.0353167
-0.0349095
-0.034457
-0.0289367
-0.023371
-0.0278054
-0.0322398
-0.031629
-0.0259502
-0.0152036
-0.0092534
-0.0131222
-0.0168552
-0.0154525
-0.0140498
-0.00764705
-0.00131221
-6.78673e-05
0.000972856
0.00685521
0.0126244
0.0132806
0.0138009
0.00918553
0.00941177
0.0145475
0.00975114
0.00497738
0.00511313
0.00520363
0.00529413
0.00538462
0.00547512
0.00556562
0.00565612
0.0107919
0.0310181
0.0463122
0.056629
0.0819005
0.132081
0.172557
0.188529
0.195249
0.18276
0.17095
0.159796
0.138213
0.111018
0.0928507
0.0786652
0.0540498
0.0290045
0.0136652
0.00303167
-0.0024887
-0.00289593
-0.00330317
0.00128959
0.00588235
0.00547511
0.00504524
0.00459274
0.00420813
-0.00110862
0.00859728
0.0333032
0.0429638
0.0525792
0.0370588
0.0313122
0.155339
0.289253
0.493122
0.681991
0.805905
0.869864
0.713824
0.542896
0.337104
0.166448
0.0609502
-0.0294344
-0.0846833
-0.119864
-0.110023
-0.100249
-0.100543
-0.10086
-0.101176
-0.101493
-0.106833
-0.112195
-0.112557
-0.112919
-0.108303
-0.103756
-0.0992534
-0.0947285
-0.0951584
-0.0954977
-0.10095
-0.106787
-0.108235
-0.11052
-0.113597
-0.117443
-0.121335
-0.124728
-0.127285
-0.128824
-0.129638
-0.134864
-0.139751
-0.149344
-0.158846
-0.163371
-0.167919
-0.162466
-0.156991
-0.166448
-0.17586
-0.170294
-0.164774
-0.164276
-0.163801
-0.158326
-0.147783
-0.132195
-0.121629
-0.121063
-0.120475
-0.114887
-0.104321
-0.0888009
-0.0782805
-0.0827375
-0.0771945
-0.0616516
-0.0561086
-0.0555656
-0.0550452
-0.0545475
-0.0540271
-0.0484841
-0.0429412
-0.0423529
-0.0416289
-0.0358145
-0.0349547
-0.0389819
-0.0377602
-0.0363348
-0.034819
-0.0333032
-0.0269231
-0.0206335
-0.00941175
0.00165159
0.00251132
0.00325792
-0.00106335
-0.00549774
-0.00504525
-0.00475113
-0.00459276
-0.00445702
0.000678731
0.00579186
-0.00409502
-0.0139593
-0.00882352
-0.0037104
-0.0036199
-0.00357465
-0.00859728
-0.00855203
0.011629
0.0268778
0.0421946
0.0824208
0.132602
0.158348
0.174706
0.181991
0.180136
0.178824
0.177783
0.151041
0.123529
0.0950679
0.0608145
0.0361086
0.0110181
0.000656106
-0.0098869
-0.00538464
-0.000837125
-0.00126699
-0.00167423
-0.00210408
-0.00255658
-0.00303169
-0.00352943
-0.00402718
0.000475086
0.0199547
0.0343891
0.0437783
0.0481221
0.0273755
0.0514253
0.145271
0.28905
0.482783
0.666584
0.835452
0.844367
0.738348
0.557443
0.336652
0.180973
0.0504298
-0.0250227
-0.0854299
-0.10086
-0.101312
-0.101787
-0.102285
-0.102783
-0.108281
-0.113801
-0.114344
-0.109864
-0.105362
-0.10086
-0.0963801
-0.106923
-0.117557
-0.113281
-0.108891
-0.109344
-0.110045
-0.106063
-0.102851
-0.10543
-0.108824
-0.116425
-0.125362
-0.128869
-0.131335
-0.127828
-0.123688
-0.128959
-0.133914
-0.133575
-0.138213
-0.147851
-0.152511
-0.152172
-0.15181
-0.156448
-0.161063
-0.165656
-0.160271
-0.14491
-0.139548
-0.139186
