r
45
184
323
463
602
742
881
1021
1160
1299
1439
1578
1718
1857
1996
2137
2276
2416
2554
2695
2836
2975
3115
3256
3395
3537
3677
3818
3960
4100
4244
4385
4527
4670
4812
4955
5097
5239
5381
5523
5665
5808
5950
6092
6236
6379
6521
6662
6807
6949
7092
7236
7377
7520
7662
7805
7946
8088
8229
8371
8513
8655
8797
8937
9080
9221
9363
9502
9644
9783
9924
10066
10205
10346
10486
10627
10768
10908
11047
11188
11328
11469
11610
11751
11890
12031
12170
12311
12451
12592
12731
12871
13012
13153
13293
13434
13575
13714
13856
13996
14137
14277
14419
14560
14703
14842
14984
15126
15266
15406
15547
15689
15830
15971
16112
16252
16396
16537
16678
16818
16959
17100
17242
17385
17525
17666
17808
17950
18092
18233
18376
18517
18659
18801
18943
19084
19227
19369
19511
19654
19795
19938
20078
20222
20363
20506
20648
20789
20932
21072
21213
21355
21496
21637
21779
21920
22061
22203
22344
22485
22627
22768
22908
23051
23191
23332
23474
23615
23756
23897
24039
24180
24320
24461
24602
24744
24886
25029
25170
25311
25453
25595
25738
25879
26020
26164
26303
26445
26586
26726
26867
27008
27148
27289
27430
27570
27711
27852
27994
28135
28276
28418
28559
28700
28841
28983
29122
29264
29404
29543
29685
29824
29965
30105
30244
30384
30524
30664
30806
30946
31086
31227
31369
31508
31648
31790
31930
32070
32211
32352
32492
32633
32775
32914
33056
33195
33338
33477
33619
33760
33902
34043
34184
34326
34469
34609
34751
34893
35035
35176
35318
35459
35600
35742
35883
36023
36164
36305
36446
36586
36729
36869
37010
37152
37293
37434
37574
37715
37855
37996
38137
38277
38416
38557
38697
38838
38978
39118
39258
39398
39539
39679
39819
39959
40099
40239
40379
40520
40658
40797
40938
41077
41217
41356
41496
41635
41775
41916
42056
42195
42334
42474
42613
42754
42894
43033
43174
43313
43451
43592
43732
43871
44011
44150
44289
44428
44567
44707
44845
44984
45125
45262
45401
45541
45678
45816
45955
46094
46232
46371
46511
46648
46787
46927
47065
47203
47342
47481
47619
47759
47898
48037
48176
48314
48453
48592
48732
48871
49010
49149
49289
49428
49568
49707
49846
49984
50124
50264
50402
50541
50680
50819
50959
51098
51238
51379
51520
51658
51799
51939
52080
52221
52360
52501
52641
52781
52922
53063
53204
53346
53486
53627
53767
53908
54049
54189
54330
54470
54610
54751
54892
55032
55172
55314
55453
55594
55734
55876
56015
56154
56295
56435
56574
56715
56853
56992
57132
57270
57410
57548
57687
57826
57967
58104
58244
58382
58522
58662
58801
58940
59078
59217
59357
59500
59636
59775
59915
60056
60195
60334
60474
60615
60754
60896
61035
61314
61453
61593
61733
61871
62012
62151
62291
62430
62569
62709
62848
62988
63127
63267
63406
63545
63685
63825
63965
64104
64243
64381
64521
64660
64799
64937
65076
65214
65353
65493
65631
65769
65908
66049
66187
66326
66467
66605
66744
66883
67022
67162
67301
67441
67580
67719
67859
67996
68137
68275
68414
68553
68691
68830
68969
69107
69246
69385
69523
69662
69800
69939
70078
70217
70353
70492
70631
70769
70908
71047
71185
71324
71463
71603
71742
71881
72023
72162
72303
72441
72582
72722
72861
73001
73141
73279
73420
73559
73699
73838
73978
74117
74257
74396
74535
74674
74813
74951
75091
75229
75367
75506
75645
75783
75922
76059
76197
76336
76474
76612
76751
76889
77026
77164
77302
77441
77578
77717
77854
77994
78131
78268
78408
78545
78683
78822
78959
79096
79234
79375
79510
79649
79787
79925
80064
80201
80340
80480
80617
80756
80894
81033
81171
81309
81449
81588
81727
81866
82006
82144
82283
82424
82562
82701
82841
82980
83120
83259
83398
83537
83678
83816
83955
84094
84233
84371
84510
84649
84787
84924
85063
85203
85340
85478
85616
85754
85891
86029
86166
86304
86441
86578
86716
86853
86990
87129
87266
87402
87541
87677
87814
87951
88086
88224
88359
88496
88631
88769
88904
89041
89176
89312
89449
89584
89721
89857
89994
90129
90266
90402
90539
90675
90812
90949
91084
91223
91359
91496
91633
91770
91906
92043
92181
92318
92455
92592
92731
92869
93006
93144
93281
93420
93559
93696
93834
93973
94110
94250
94388
94526
94664
94803
94942
95080
95219
95357
95500
95637
95776
95914
96053
96190
96330
96467
96606
96742
96881
97018
97155
97293
97430
97567
97705
97842
97979
98115
98254
98390
98527
98664
98801
98938
99074
99212
99348
99485
99621
99758
99895
100032
100168
100305
100441
100578
100715
100851
100988
101124
101260
101398
101533
101670
101807
101943
102080
102216
102352
102488
102626
102762
102899
103035
103174
103310
103447
103585
103722
103859
104000
104135
104271
104410
104549
104686
104824
104963
105100
105239
105379
105516
105655
105795
105933
106072
106211
106350
106488
106627
106766
106904
107041
107180
107318
107457
107596
107734
107871
108010
108149
108287
108425
108563
108701
108838
108976
109113
109252
109389
109527
109664
109801
109939
110076
110213
110350
110488
110624
110762
110899
111036
111172
111309
111447
111584
111721
111857
111994
112131
112268
112404
112541
112678
112815
112953
113089
113226
113365
113502
113639
113776
113914
114051
114189
114328
114464
114602
114740
114879
115017
115155
115293
115432
115569
115707
115846
115984
116125
116262
116400
116539
116678
116816
116955
117094
117233
117371
117510
117648
117787
117924
118063
118201
118338
118476
118615
118754
118891
119029
119166
119304
119442
119580
119718
119856
119994
120131
120269
120407
120545
120682
120820
120957
121094
121232
121369
121508
121644
121781
121918
122055
122192
122328
122467
122602
122740
122877
123014
123151
123289
123424
123562
123699
123836
123974
124112
124250
124387
124525
124662
124799
124936
125074
125211
125349
125488
125624
125763
125900
126037
126176
126312
126449
126587
126723
126861
127000
127135
127272
127408
127545
127680
127817
127953
128090
128225
128362
128499
128633
128771
128906
129043
129178
129315
129451
129587
129723
129859
129994
130131
130268
130405
130541
130678
130814
130951
131088
131225
131361
131500
131635
131772
131909
132047
132184
132320
132457
132595
132732
132869
133006
133144
133281
133418
133556
133693
133830
133966
134103
134240
134377
134514
134652
134787
134924
135061
135197
135334
135470
135607
135742
135879
136016
136152
136287
136423
136559
136694
136830
136965
137101
137236
137371
137506
137643
137777
137913
138047
138182
138318
138453
138588
138723
138858
138993
139129
139263
139398
139533
139668
139803
139938
140074
140208
140344
140479
140613
140750
140884
141019
141154
141291
141426
141561
141697
141832
141969
142104
142240
142377
142514
142650
142787
142924
143061
143198
143334
143472
143609
143746
143885
144021
144158
144297
144434
144572
144709
144847
144984
145125
145260
145397
145533
145670
145807
145945
146082
146219
146355
146492
146629
146766
146903
147041
147177
147314
147451
147586
147724
147859
147996
148131
148269
148405
148541
148678
148814
148951
149088
149223
149359
149496
149631
149767
149904
150039
150175
150311
150447
150584
150721
150856
150992
151129
151265
151401
151537
151674
151809
151945
152082
152219
152355
152492
152629
152767
152904
153041
153178
153316
153453
153591
153728
153865
154004
154141
154279
154416
154555
154693
154830
154969
155106
155244
155383
155520
155658
155795
155932
156070
156207
156345
156482
156619
156757
156894
157031
157168
157306
157442
157578
157715
157851
157988
158125
158260
158396
158533
158668
158805
158941
159077
159213
159350
159484
159621
159757
159893
160029
160164
160302
160437
160574
160711
160846
160982
161118
161254
161391
161526
161664
161799
161936
162072
162209
162346
162482
162619
162754
162892
163027
163164
163301
163437
163574
163711
163848
163985
164121
164260
164396
164533
164670
164808
164945
165084
165221
165358
165496
165635
165772
165910
166049
166186
166324
166461
166600
166737
166874
167013
167150
167287
167425
167563
167699
167974
168110
168250
168385
168521
168658
168795
168931
169068
169205
169340
169478
169613
169749
169886
170021
170158
170293
170429
170565
170699
170836
170971
171107
171242
171379
171514
171650
171787
171922
172057
172193
172328
172465
172601
172736
172875
173009
173146
173281
173418
173555
173691
173828
173965
174102
174240
174377
174514
174650
174789
174926
175063
175199
175337
175474
175611
175750
175885
176022
176159
176297
176434
176570
176707
176844
176981
177117
177256
177392
177529
177666
177803
177940
178076
178215
178350
178487
178624
178761
178899
179035
179173
179309
179445
179583
179720
179856
179994
180131
180268
180404
180541
180678
180815
180953
181090
181227
181365
181502
181639
181775
181913
182051
182189
182326
182463
182601
182738
182877
183014
183152
183289
183427
183566
183703
183840
183978
184115
184254
184391
184530
184666
184805
184942
185080
185217
185354
185492
185629
185766
185902
186039
186178
186314
186451
186589
186726
186863
187001
187139
187275
187412
187549
187686
187824
187961
188098
188236
188375
188510
188648
188785
188924
189060
189199
189336
189474
189612
189750
189887
190025
190162
190300
190436
190574
190711
190848
190985
191125
191259
191396
191533
191670
191808
191943
192080
192219
192355
192492
192629
192767
192904
193039
193178
193315
193451
193588
193725
193861
194000
194135
194272
194408
194547
194683
194820
194957
195094
195231
195367
195504
195640
195777
195913
196049
196186
196322
196457
196594
196730
196867
197002
197141
197276
197412
197549
197687
197824
197961
198098
198234
198375
198510
198647
198785
198921
199059
199197
199334
199471
199608
199746
199883
200020
200158
200295
200431
200568
200707
200844
200981
201119
201256
201395
201532
201668
201807
201944
202082
202219
202357
202496
202633
202771
202908
203045
203183
203321
203459
203596
203734
203871
204009
204146
204284
204422
204559
204696
204834
204971
205108
205246
205384
205521
205658
205795
205934
206071
206209
206346
206484
206625
206762
206900
207039
207177
207316
207453
207594
207732
207871
208010
208149
208287
208427
208565
208703
208842
208981
209121
209259
209398
209535
209675
209812
209951
210090
210227
210365
210504
210643
210780
210918
211057
211195
211332
211471
211608
211746
211884
212021
212160
212297
212434
212572
212709
212847
212985
213125
213260
213397
213534
213672
213809
213947
214084
214221
214359
214496
214635
214771
214908
215046
215184
215322
215459
215596
215734
215871
216009
216146
216285
216422
216560
216699
216836
216975
217113
217252
217390
217529
217668
217807
217944
218084
218222
218361
218499
218637
218776
218914
219053
219192
219330
219467
219606
219744
219881
220020
220158
220295
220432
220570
220707
220845
220982
221119
221257
221394
221531
221668
221806
221943
222080
222217
222355
222492
222629
222766
222904
223041
223177
223315
223451
223588
223725
223863
224000
224135
224274
224410
224546
224684
224820
224957
