ekg
0
-0.00333333
-0.00800002
-0.00142857
0.00333333
-0.00090909
-0.00615385
-0.00266667
0.0017647
-0.00263157
-0.00761905
-0.00152172
0.0028
0.00740741
0.0117241
0.00548387
-0.00030303
-0.00585714
-0.0113514
-0.00641024
-0.00134146
-0.0166279
-0.0173333
-0.00382978
0.00459184
-0.00333335
-0.0111321
-0.00972728
-0.01
-0.0108475
-0.0107377
-0.0187302
-0.0260769
-0.0279104
-0.0282609
-0.0283099
-0.0280822
-0.0323333
-0.0366883
-0.0363291
-0.0362346
-0.0301807
-0.0262353
-0.0379885
-0.0488764
-0.0801648
-0.127581
-0.141684
-0.104381
-0.0654546
-0.054901
-0.0480583
-0.038381
-0.0248598
0.00802752
0.040991
0.0637611
0.0813913
0.0888889
0.0860504
0.0580992
0.0349594
0.0166
0.00826772
0.0199612
0.0163359
-0.00718045
-0.030963
-0.0498905
-0.0542446
-0.0438298
-0.0483916
-0.068069
-0.0780952
-0.0783893
-0.0790728
-0.0751307
-0.0716774
-0.0684395
-0.0651887
-0.062205
-0.0893252
-0.126394
-0.0632036
0.0154438
0.299298
0.583815
0.913971
1.27444
1.84528
2.30638
2.14751
1.8337
0.899813
0.0910318
-0.362644
-0.681373
-0.650026
-0.598833
-0.522613
-0.436468
-0.345369
-0.269268
-0.223092
-0.187129
-0.161232
-0.140423
-0.124674
-0.119032
-0.128288
-0.132602
-0.127557
-0.122602
-0.12267
-0.122647
-0.122557
-0.117511
-0.107511
-0.102489
-0.102443
-0.102443
-0.0974887
-0.0925113
-0.0874887
-0.0823982
-0.0822624
-0.0971493
-0.102081
-0.0870814
-0.0721267
-0.0821267
-0.0920814
-0.0821041
-0.0721267
-0.0720588
-0.0719004
-0.0567194
-0.0416063
-0.0315611
-0.0215158
-0.0214479
-0.0213122
-0.0261991
-0.0260633
-0.00588233
0.00927604
0.00941179
0.0195023
0.0395249
0.0545475
0.0645928
0.0796154
0.099638
0.119683
0.139729
0.149864
0.150091
0.150317
0.15552
0.170769
0.186086
0.191471
0.191855
0.192217
0.192602
0.183122
0.168778
0.149525
0.135294
0.131018
0.126674
0.0921494
0.0574887
0.0327376
0.00787334
-0.00203616
-0.0120362
-0.0322172
-0.0526697
-0.063371
-0.074095
-0.0747285
-0.0752036
-0.0806108
-0.0860633
-0.0815158
-0.0769909
-0.087466
-0.0977375
-0.102851
-0.107919
-0.102941
-0.103077
-0.113348
-0.113235
-0.102692
-0.0958597
-0.0977375
-0.0981221
-0.0869004
-0.07319
-0.062466
-0.0524434
-0.043733
-0.0440724
-0.0535067
-0.0509728
-0.0410859
-0.0424434
-0.0502715
-0.0546606
-0.0606108
-0.0731222
-0.0838235
-0.0815611
-0.0758597
-0.0866289
-0.0956108
-0.0882127
-0.0807692
-0.083552
-0.086742
-0.0802941
-0.0791402
-0.0933258
-0.102738
-0.0973755
-0.0921267
-0.0919683
-0.0918552
-0.0868099
-0.0817873
-0.0817647
-0.0866968
-0.0965837
-0.101471
-0.10138
-0.0964027
-0.0864932
-0.0814932
-0.0864027
-0.0913801
-0.0914253
-0.0914253
-0.09638
-0.106357
-0.116357
-0.106312
-0.0862217
-0.0811086
-0.0809728
-0.0908145
-0.0906561
-0.100566
-0.11052
-0.10543
-0.100271
-0.0900679
-0.079819
-0.0845249
-0.0892081
-0.0838914
-0.0785294
-0.0780543
-0.0775113
-0.0818325
-0.0862669
-0.090724
-0.0902036
-0.0746832
-0.0641855
-0.0787104
-0.0782352
-0.0677828
-0.0623981
-0.0620814
-0.0618325
-0.0616742
-0.0516515
-0.036742
-0.0269004
-0.0171267
-0.0124886
-0.0129864
0.00135752
0.020543
0.0347512
0.0489367
0.0830317
0.117082
0.116177
0.105294
0.0644797
0.0287105
0.0279412
0.0272625
0.0317421
0.0363349
-0.00404972
-0.0344343
-0.0397963
-0.0451357
-0.0454072
-0.0506561
-0.0709502
-0.0862443
-0.0864932
-0.0867194
-0.0869683
-0.0822624
-0.0625565
-0.0477828
-0.0529638
-0.0781448
-0.118326
-0.0235294
0.191222
0.455996
0.760837
1.13566
1.55543
1.98525
2.42011
2.09498
1.48484
0.759706
0.00457015
-0.370611
-0.660837
-0.666041
-0.626244
-0.541516
-0.45681
-0.387036
-0.31224
-0.262534
-0.212896
-0.183213
-0.153484
-0.138778
-0.124095
-0.119412
-0.114729
-0.120023
-0.125317
-0.120634
-0.11595
-0.10629
-0.0966064
-0.10181
-0.107014
-0.102262
-0.0975113
-0.0977376
-0.0979638
-0.0932127
-0.0885294
-0.0839141
-0.0792534
-0.0745023
-0.0697285
-0.0749548
-0.0752489
-0.0655656
-0.0558824
-0.0461991
-0.0465158
-0.0568326
-0.0571041
-0.0473303
-0.0375792
-0.0278507
-0.0231222
-0.0283937
-0.0236652
-0.0339367
0.000769226
0.00540723
0.00995474
0.0144796
0.0340498
0.0536425
0.0581448
0.0625566
0.0769231
0.0912217
0.0954299
0.0995249
0.108507
0.117557
0.126629
0.135995
0.13052
0.12509
0.134683
0.144367
0.129163
0.12414
0.124299
0.114661
0.0952262
0.0807692
0.066267
0.0566742
0.0519909
0.0273077
-0.00237558
-0.0220136
-0.036629
-0.0464932
-0.0565385
-0.0666064
-0.0765837
-0.0813349
-0.0813575
-0.0821041
-0.0839593
-0.0870815
-0.0917195
-0.0930091
-0.0965158
-0.117398
-0.138032
-0.147557
-0.153552
-0.155407
-0.154593
-0.150928
-0.145973
-0.129796
-0.112308
-0.108303
-0.10276
-0.0906335
-0.0802036
-0.0627602
-0.0487104
-0.0481901
-0.0493891
-0.0519231
-0.0494796
-0.0418552
-0.0438462
-0.0554525
-0.0617873
-0.0578281
-0.0536425
-0.0592308
-0.0647059
-0.0600905
-0.0554751
-0.0508371
-0.0461312
-0.0513575
-0.0566064
-0.0618778
-0.0671493
-0.0624208
-0.0626244
-0.0777828
-0.0730091
-0.0682805
-0.0735294
-0.0787783
-0.0790724
-0.0794118
-0.0747738
-0.0701358
-0.0704751
-0.0707919
-0.071086
-0.0713801
-0.0667421
-0.0621267
-0.0725113
-0.0829186
-0.0783484
-0.0738009
-0.0743213
-0.0749321
-0.0755882
-0.076267
-0.0719683
-0.0676697
-0.0684163
-0.0691855
-0.0700453
-0.0607919
-0.0465611
-0.0423303
-0.0380996
-0.0338009
-0.0294344
-0.0100453
0.00936651
0.028914
0.048552
0.0732353
0.098009
0.0929638
0.103077
0.0483484
0.0237556
0.0192308
0.0147964
0.0105203
0.00635745
-0.0178281
-0.041991
-0.0511086
-0.0602489
-0.054457
-0.0537104
-0.0730543
-0.0874661
-0.0869005
-0.0863349
-0.0908371
-0.0904525
-0.0751584
-0.0648869
-0.064638
-0.0894344
-0.139276
-0.0841403
0.0559955
0.286131
0.566267
0.90138
1.26647
1.76156
2.30665
2.26672
2.01676
1.21176
0.256719
-0.238258
-0.653235
-0.673281
-0.638371
-0.553394
-0.468348
-0.378348
-0.293394
-0.243439
-0.193484
-0.168484
-0.143439
-0.138371
-0.133281
-0.133213
-0.133122
-0.132941
-0.132738
-0.122602
-0.112511
-0.112398
-0.11224
-0.107081
-0.0969683
-0.0818552
-0.0716968
-0.0814932
-0.0912443
-0.0909955
-0.0907692
-0.0855656
-0.080362
-0.0851131
-0.0848643
-0.0746833
-0.0695023
-0.0693213
-0.0641629
-0.0540272
-0.043914
-0.0338235
-0.0286878
-0.0285068
-0.0283032
-0.0280995
-0.0229412
-0.0127828
-0.00753393
0.00276018
0.0179638
0.0330996
0.0382579
0.0434389
0.0636199
0.0838009
0.0989593
0.114072
0.119163
0.124231
0.134253
0.144231
0.154163
0.164118
0.169186
0.174095
0.178846
0.183597
0.183348
0.183077
0.167805
0.162783
0.157986
0.143394
0.114005
0.0895928
0.0652262
0.0456787
0.0261086
0.00162896
-0.0227828
-0.0372172
-0.0466742
-0.0561991
-0.0657919
-0.070362
-0.0749774
-0.0796154
-0.074276
-0.0690272
-0.0688688
-0.0937783
-0.108575
-0.103145
-0.0979864
-0.103258
-0.109615
-0.112308
-0.116652
-0.122828
-0.131063
-0.141086
-0.149661
-0.151222
-0.147262
-0.145611
-0.131425
-0.122715
-0.114231
-0.0919457
-0.0736652
-0.0850905
-0.0841403
-0.0704299
-0.0620136
-0.0686426
-0.0750905
-0.0712896
-0.0671041
-0.0675566
-0.0677828
-0.0677828
-0.0676471
-0.0723982
-0.0771946
-0.0720136
-0.0717647
-0.0815158
-0.0863122
-0.0811312
-0.0759276
-0.0757014
-0.0804977
-0.0853167
-0.0801131
-0.0748643
-0.0795702
-0.0842534
-0.0889593
-0.0937104
-0.0935068
-0.0933258
-0.0980996
-0.102851
-0.10267
-0.102511
-0.0973077
-0.0921041
-0.0919231
-0.09181
-0.0867421
-0.0816063
-0.0864027
-0.0911991
-0.0960181
-0.095905
-0.0858597
-0.0858145
-0.100747
-0.105724
-0.095724
-0.0907466
-0.0907466
-0.0907692
-0.0908597
-0.0909729
-0.0860634
-0.0761086
-0.0661086
-0.0561086
-0.0461312
-0.0361538
-0.0261312
-0.0210181
-0.0308597
0.00927601
0.049457
0.0547511
0.0601357
0.0855656
0.106109
0.0716968
0.0423756
0.0231448
0.00400452
0.00488687
0.00567872
-0.00864254
-0.0279638
-0.0522398
-0.0716516
-0.0711991
-0.0707466
-0.0802715
-0.0898416
-0.104457
-0.10414
-0.0938914
-0.0886425
-0.0883484
-0.0829864
-0.0675792
-0.0923303
-0.147195
-0.086991
0.0232805
0.273507
0.568688
0.908869
1.26405
1.77423
2.30939
2.2195
2.05459
1.16973
2.04491
-0.229887
-0.684683
-0.674548
-0.659434
-0.579231
-0.493959
-0.408778
-0.32862
-0.283416
-0.23819
-0.192986
-0.162805
-0.157624
-0.152443
-0.152262
-0.152014
-0.156742
-0.156471
-0.141222
-0.13095
-0.145611
-0.145339
-0.135181
-0.130023
-0.124819
-0.11957
-0.114299
-0.109072
-0.108891
-0.108665
-0.103394
-0.0981222
-0.102851
-0.102647
-0.0924887
-0.0872625
-0.0920136
-0.0918326
-0.0816968
-0.0765385
-0.0763575
-0.0711765
-0.0659955
-0.0458145
-0.0256335
-0.0304072
-0.0351358
-0.0299095
-0.0247285
-0.00959275
0.00554299
0.0107692
0.0160181
0.0311991
0.0463575
0.0665385
0.0766968
0.0868326
0.106946
0.132036
0.147149
0.152308
0.157443
0.162557
0.17267
0.182783
0.182941
0.173122
0.173235
0.183213
0.178258
0.158371
0.143394
0.133348
0.108462
0.0837557
0.0590272
0.0342987
-0.000429861
-0.0352262
-0.0400679
-0.0398416
-0.0594796
-0.0891403
-0.083914
-0.0787783
-0.0936199
-0.108416
-0.108213
-0.108032
-0.0979185
-0.087828
-0.0927375
-0.097647
-0.107534
-0.117398
-0.10724
-0.096991
-0.106719
-0.117195
-0.113213
-0.109548
-0.111063
-0.113145
-0.115679
-0.112624
-0.102805
-0.0946833
-0.0938009
-0.0939593
-0.0828054
-0.076086
-0.0659502
-0.0660407
-0.0763801
-0.0816968
-0.0769683
-0.0722172
-0.0673756
-0.0625792
-0.0627376
-0.0628054
-0.0578054
-0.0527602
-0.0526697
-0.0676018
-0.0725566
-0.0725566
-0.0725792
-0.0825113
-0.0923982
-0.0773982
-0.0624209
-0.0673982
-0.072353
-0.0773077
-0.0822851
-0.0772851
-0.0722851
-0.0772851
-0.0822625
-0.0871946
-0.0921267
-0.0821041
-0.0770588
-0.0919457
-0.0968778
-0.0869005
-0.0819231
-0.0869005
-0.0919005
-0.0869457
-0.0819909
-0.0820362
-0.0820362
-0.086991
-0.0919683
-0.086991
-0.0820588
-0.0771493
-0.0771041
-0.0870136
-0.0919909
-0.0920362
-0.0921041
-0.0871719
-0.0772172
-0.0722851
-0.0673529
-0.0623529
-0.0672624
-0.0721267
-0.0569909
-0.0418778
-0.0317873
-0.0216742
-0.0214932
-0.0162896
0.00386877
0.0240271
0.0492308
0.0744796
0.0997059
0.119864
0.109977
0.0901358
0.0603394
0.0305204
0.0106787
0.00572399
0.0156561
0.000656106
-0.0442534
-0.0592534
-0.0593892
-0.059457
-0.064457
-0.0745249
-0.0846606
-0.089819
-0.09
-0.0851357
-0.0752262
-0.0703167
-0.0754072
-0.075543
-0.065724
-0.110837
-0.170882
0.0540045
0.283824
0.603688
0.938575
1.40342
1.85824
2.23805
2.38287
1.56269
0.787511
0.13233
-0.387873
-0.578122
-0.683371
-0.623529
-0.55371
-0.478959
-0.404231
-0.32448
-0.264729
-0.209977
-0.175226
-0.150498
-0.135747
-0.14095
-0.146131
-0.141312
-0.136561
-0.131833
-0.127081
-0.132308
-0.132557
-0.122828
-0.118032
-0.118167
-0.118348
-0.113597
-0.103914
-0.0942534
-0.0895023
-0.0896833
-0.0949095
-0.100181
-0.0954751
-0.0907692
-0.0959728
-0.101154
-0.086448
-0.0717647
-0.071991
-0.0721946
-0.0624661
-0.0528054
-0.0481674
-0.0435294
-0.0338914
-0.0241855
-0.0244797
-0.019819
-0.00515838
0.00452487
-0.0107692
-0.00615387
0.0133258
0.0327828
0.0522398
0.0666742
0.081086
0.0954299
0.104683
0.108846
0.112919
0.116878
0.120769
0.129796
0.139005
0.143462
0.138032
0.132557
0.132104
0.131787
0.131674
0.116833
0.102127
0.102466
0.102941
0.0684842
0.0340271
0.0145023
-0.00515838
-0.0149547
-0.0247964
-0.0445928
-0.0645249
-0.0647511
-0.0648416
-0.0746833
-0.0850226
-0.0859276
-0.0881448
-0.0866516
-0.0865611
-0.0929638
-0.101765
-0.117579
-0.133529
-0.143665
-0.149367
-0.156131
-0.160724
-0.153914
-0.145928
-0.1469
-0.14181
-0.125588
-0.112715
-0.103122
-0.0870136
-0.0654525
-0.0527828
-0.053733
-0.0526923
-0.0440271
-0.0411991
-0.0538461
-0.0513122
-0.0484842
-0.0503168
-0.05181
-0.0479638
-0.0438688
-0.0395475
-0.0350905
-0.040543
-0.0459502
-0.0463575
-0.04681
-0.0473077
-0.0477828
-0.0531674
-0.0585747
-0.0640498
-0.0695249
-0.0699548
-0.0704072
-0.065905
-0.0564027
-0.0468778
-0.0473303
-0.0627602
-0.0731901
-0.0686426
-0.0641403
-0.0646833
-0.0702036
-0.0807014
-0.081267
-0.0719005
-0.0725113
-0.0830996
-0.0837557
-0.0744796
-0.0652489
-0.0560181
-0.0517647
-0.0525113
-0.0682579
-0.0740045
-0.0697964
-0.0655882
-0.0663349
-0.0670588
-0.0478733
-0.0286878
-0.0294344
-0.0301357
-0.0257919
-0.0164027
0.0080543
0.0326244
0.0571946
0.0820136
0.101946
0.111968
0.0970815
0.0723756
0.0278507
0.0133937
0.0239593
0.0245701
0.0152489
-0.00902714
-0.0432579
-0.0475566
-0.0319231
-0.0412896
-0.0656335
-0.0850679
-0.0996154
-0.099276
-0.0890498
-0.0838009
-0.0835973
-0.0685294
-0.048552
-0.0935294
-0.148484
-0.0385068
0.0814027
0.36129
0.636154
0.941041
1.27095
1.80586
2.26077
2.29563
2.11045
1.13029
0.270158
-0.255023
-0.625249
-0.660453
-0.660679
-0.575973
-0.491312
-0.391652
-0.316946
-0.272217
-0.227421
-0.187534
-0.162647
-0.152805
-0.147941
-0.153009
-0.153054
-0.133145
-0.128213
-0.128258
-0.128303
-0.123348
-0.118348
-0.113303
-0.108281
-0.103258
-0.0982127
-0.103167
-0.0981448
-0.0831448
-0.0831448
-0.0981448
-0.0881448
-0.0781448
-0.0781448
-0.0781448
-0.0681674
-0.0582127
-0.0582353
-0.0582127
-0.0531448
-0.0480769
-0.0430543
-0.0380543
-0.0330543
-0.0280543
-0.0280543
-0.0280769
-0.0181448
-0.00821266
0.00176471
0.011629
0.0263348
0.0409728
0.0605882
0.0702715
0.0700226
0.0747285
0.0843439
0.0938009
0.103145
0.107443
0.111742
0.116131
0.120611
0.125271
0.130091
0.13991
0.149729
0.154548
0.15448
0.144706
0.155136
0.105701
0.0864253
0.0722851
0.0582579
0.0292308
0.000113126
-0.00923077
-0.0186652
-0.0330769
-0.0475339
-0.0570814
-0.0667647
-0.0666063
-0.0663575
-0.0661538
-0.0717421
-0.0884842
-0.101765
-0.101652
-0.103959
-0.128462
-0.139231
-0.140226
-0.146787
-0.159231
-0.16405
-0.157014
-0.149208
-0.140792
-0.131538
-0.126448
-0.120294
-0.112964
-0.103484
-0.0871494
-0.0708145
-0.0654073
-0.0645023
-0.057534
-0.0529412
-0.0550227
-0.0472851
-0.0395702
-0.0314933
-0.023077
-0.0292534
-0.0351132
-0.0457466
-0.0561539
-0.0514028
-0.0465385
-0.0515837
-0.0566064
-0.0566969
-0.05681
-0.0568326
-0.0568553
-0.0569005
-0.0569684
-0.0620362
-0.0670815
-0.0571041
-0.0521267
-0.0621493
-0.067172
-0.0622398
-0.0572851
-0.0572625
-0.0572851
-0.0624208
-0.0675566
-0.0726923
-0.0778281
-0.0729864
-0.0681901
-0.0684163
-0.0686652
-0.0689367
-0.0692082
-0.0745249
-0.0799321
-0.0753846
-0.0708145
-0.0712896
-0.0718778
-0.0725113
-0.0730996
-0.0736652
-0.0492308
-0.024819
-0.0104072
0.00404977
-0.00140272
-0.00676471
0.00794116
0.0276923
0.0474887
0.0674434
0.0826018
0.0878507
0.06819
0.0486878
0.0293439
0.0150905
0.0159276
0.0168778
0.0229412
0.00911763
-0.0296154
-0.0483258
-0.0519231
-0.060724
-0.0695928
-0.0835068
-0.0974661
-0.101561
-0.0957919
-0.0900679
-0.0843892
-0.0737783
-0.063258
-0.0578281
-0.0574435
-0.081991
-0.0564932
0.108982
0.339412
0.659774
1.00009
1.53543
2.03079
2.31609
2.36638
1.4017
0.511968
-0.112851
-0.577738
-0.637647
-0.652534
-0.557421
-0.467195
-0.396968
-0.326765
-0.266584
-0.22138
-0.186131
-0.165905
-0.150747
-0.140588
-0.140385
-0.140181
-0.135
-0.129774
-0.124502
-0.114186
-0.103824
-0.0984389
-0.103032
-0.107715
-0.102466
-0.102127
-0.111742
-0.111425
-0.101154
-0.0958597
-0.095543
-0.0902262
-0.0849095
-0.0796154
-0.0743439
-0.0740724
-0.0738009
-0.0685068
-0.0632127
-0.0579638
-0.0527149
-0.0523982
-0.0520362
-0.0416968
-0.0313801
-0.0211086
-0.0108597
-0.0106109
-0.00542986
0.0147285
0.0299321
0.0351584
0.0403846
0.0456109
0.0608371
0.0860407
0.101222
0.101425
0.116652
0.141878
0.152081
0.152262
0.157466
0.16767
0.182919
0.198213
0.203507
0.203824
0.194118
0.179366
0.174615
0.174864
0.150113
0.115385
0.100633
0.0858371
0.0558823
0.0258823
0.010905
-0.00400455
-0.0188009
-0.0335973
-0.0534163
-0.0732579
-0.0881901
-0.103122
-0.107986
-0.112851
-0.117692
-0.122579
-0.122511
-0.122421
-0.122262
-0.122104
-0.121946
-0.116787
-0.106629
-0.106493
-0.121357
-0.131131
-0.125747
-0.120023
-0.118891
-0.11733
-0.11543
-0.112602
-0.109434
-0.107398
-0.101516
-0.0952488
-0.0909728
-0.0854298
-0.0788461
-0.0800678
-0.0752489
-0.0947058
-0.0938914
-0.0881674
-0.0824661
-0.0868099
-0.0912443
-0.0807919
-0.0704299
-0.0751584
-0.0799321
-0.0747737
-0.0696606
-0.0695701
-0.0694796
-0.0693665
-0.0691855
-0.0789366
-0.0887104
-0.078552
-0.0733711
-0.0881222
-0.0929412
-0.0828733
-0.0777828
-0.0826245
-0.0874887
-0.0873982
-0.0872851
-0.0821494
-0.0770136
-0.0818779
-0.0867195
-0.0815611
-0.076448
-0.0763575
-0.0811765
-0.0909728
-0.0958145
-0.0906787
-0.0855204
-0.080362
-0.0802036
-0.0850452
-0.0749321
-0.064819
-0.0696154
-0.0743439
-0.0740724
-0.0738462
-0.0736652
-0.0734615
-0.07319
-0.0729185
-0.0727149
-0.0725339
-0.0673303
-0.0621493
-0.0670136
-0.0669457
-0.0519231
-0.0368326
-0.0216742
-0.0115158
-0.0113801
-0.00633486
0.00859726
0.028552
0.048552
0.0634615
0.0832579
0.0980769
0.112919
0.102715
0.077466
0.0472172
0.0219909
0.0218326
0.0317421
0.0216516
0.00151582
-0.0186652
-0.0388688
-0.0490272
-0.0641629
-0.0693213
-0.0745023
-0.0846606
-0.0947964
-0.0899095
-0.085
-0.0751131
-0.0652262
-0.0552715
-0.0552941
-0.100385
-0.11052
-0.0206561
0.119231
0.344186
0.609118
0.939027
1.35898
1.89398
2.19894
2.25387
1.8038
0.898733
0.203733
-0.341199
-0.586131
-0.651041
-0.621041
-0.531041
-0.456018
-0.385973
-0.320973
-0.261018
-0.221018
-0.185973
-0.16595
-0.150973
-0.141041
-0.131109
-0.126109
-0.126063
-0.130995
-0.135905
-0.125882
-0.115905
-0.125837
-0.135724
-0.120679
-0.105679
-0.110679
-0.115679
-0.105679
-0.0956787
-0.0956787
-0.0956787
-0.0906561
-0.0855882
-0.0905656
-0.090543
-0.0754751
-0.065362
-0.0802262
-0.0801357
-0.0701131
-0.0650905
-0.0600226
-0.0499548
-0.0398869
-0.0298416
-0.0198416
-0.0147737
-0.014638
-0.0145023
-0.00936652
0.00572398
0.0207692
0.0308824
0.0409955
0.0560634
0.0711086
0.0911765
0.111267
0.126357
0.136448
0.156493
0.176516
0.176629
0.176833
0.182104
0.187353
0.197511
0.20767
0.197896
0.188213
0.183597
0.173914
0.154186
0.134412
0.114615
0.094638
0.0794118
0.0592082
0.0290498
-0.00099545
-0.0208823
-0.0308145
-0.0358371
-0.045905
-0.0609955
-0.0710181
-0.0710181
-0.0710181
-0.0760181
-0.0810859
-0.0861991
-0.0912217
-0.0861764
-0.0810407
-0.0858145
-0.090543
-0.0902941
-0.0903168
-0.0854298
-0.0851131
-0.0990498
-0.09181
-0.0839366
-0.0904977
-0.0964253
-0.0813122
-0.0668326
-0.054276
-0.0455656
-0.0576922
-0.0696606
-0.0750226
-0.0786425
-0.0797964
-0.0800452
-0.0791629
-0.0783031
-0.0724887
-0.0667421
-0.0660633
-0.0654977
-0.0650679
-0.0597511
-0.0445475
-0.0393891
-0.054276
-0.0641176
-0.0689366
-0.0737782
-0.0686425
-0.0684615
-0.0782579
-0.0831674
-0.0831674
-0.0781221
-0.0680316
-0.0629638
-0.0679185
-0.0728506
-0.0727601
-0.0726923
-0.072647
-0.0775792
-0.0725113
-0.0775113
-0.0825113
-0.0873982
-0.0922172
-0.0871267
-0.0820814
-0.0870362
-0.0920136
-0.0870136
-0.0820136
-0.0770136
-0.071991
-0.0769231
-0.0818552
-0.08681
-0.09181
-0.0818326
-0.0717647
-0.0866063
-0.0865159
-0.0764932
-0.0714253
-0.0763122
-0.0811765
-0.0760181
-0.0708371
-0.0656787
-0.0604977
-0.0652715
-0.0700226
-0.0697738
-0.0545702
-0.0343892
-0.0291629
-0.028914
-0.0287557
-0.0236425
0.00651584
0.0366742
0.0617421
0.0817195
0.111629
0.141516
0.106403
0.0712896
0.0461538
0.0209728
0.0207692
0.0205882
0.0104525
-0.00468328
-0.0298416
-0.0500226
-0.055181
-0.0602941
-0.0554073
-0.055543
-0.0707014
-0.0808371
-0.090905
-0.10095
-0.101018
-0.0961086
-0.0811991
-0.0712896
-0.0763575
-0.101448
-0.136629
-0.01181
0.193009
0.472783
0.777511
1.22224
1.70197
2.10176
2.48665
1.75656
0.856448
0.226267
-0.383959
-0.554186
-0.714412
-0.634661
-0.554932
-0.475158
-0.400362
-0.335611
-0.270882
-0.226131
-0.186335
-0.166493
-0.146629
-0.151787
-0.156991
-0.157262
-0.157534
-0.157692
-0.152919
-0.138258
-0.12862
-0.123982
-0.119276
-0.11948
-0.119661
-0.114864
-0.110113
-0.105385
-0.100611
-0.100792
-0.0960408
-0.0863122
-0.0865837
-0.0968552
-0.102172
-0.097534
-0.0878733
-0.0781901
-0.0685294
-0.0588914
-0.0492534
-0.0396154
-0.0349548
-0.0352715
-0.0306109
-0.0259729
-0.0163575
-0.00676475
-0.0121041
-0.0174209
0.00712665
0.0316063
0.0360633
0.0405203
0.0549547
0.0693439
0.0787104
0.0930317
0.107421
0.116606
0.110679
0.109615
0.123439
0.132421
0.131584
0.135882
0.145294
0.144729
0.129208
0.118801
0.118529
0.118507
0.113688
0.0990498
0.0845928
0.065
0.0402715
0.0204751
0.00563348
-0.00914028
-0.0238914
-0.0337557
-0.043733
-0.0488235
-0.0540498
-0.0643892
-0.069638
-0.0696154
-0.0700226
-0.0812217
-0.0936425
-0.0973982
-0.102873
-0.110091
-0.11957
-0.13138
-0.141606
-0.144819
-0.144253
-0.139842
-0.133348
-0.12948
-0.124638
-0.108733
-0.0911312
-0.0866968
-0.0858145
-0.0835294
-0.0747512
-0.0552489
-0.0437331
-0.0450905
-0.0472625
-0.0452037
-0.0427829
-0.0500001
-0.0518779
-0.043439
-0.0397512
-0.0458145
-0.0516516
-0.0472851
-0.0478507
-0.0583485
-0.0588914
-0.049457
-0.0549774
-0.0754977
-0.0610634
-0.046629
-0.0471493
-0.0476471
-0.0581448
-0.0686425
-0.0691629
-0.0697285
-0.0653168
-0.0608824
-0.0713801
-0.0818778
-0.0724435
-0.0630091
-0.0684842
-0.0740272
-0.0696833
-0.065362
-0.0660181
-0.0667195
-0.0674661
-0.0682353
-0.0640272
-0.0597964
-0.060543
-0.061267
-0.061991
-0.0627602
-0.0635747
-0.0643665
-0.0701584
-0.0660407
-0.051991
-0.0378507
-0.0236199
-0.0193665
-0.0201358
-0.0159276
-0.00667422
0.00766967
-0.00287332
0.0466968
0.0663575
0.0910407
0.115792
0.095724
0.0757919
0.0509502
0.0261991
0.0215611
0.0169909
0.0224208
0.022828
-0.00674209
-0.0312444
-0.0408145
-0.0502715
-0.0547512
-0.0593439
-0.0690724
-0.0838688
-0.0987104
-0.10362
-0.0885973
-0.0785973
-0.0786199
-0.0686878
-0.0488009
-0.0739819
-0.129208
-0.0344118
0.125407
0.385226
0.670023
1.03975
1.42443
1.92914
2.45887
2.11857
1.66826
0.807964
-0.0773303
-0.412647
-0.732964
-0.668281
-0.598597
-0.528869
-0.454095
-0.374344
-0.299638
-0.255
-0.210362
-0.180611
-0.155814
-0.146063
-0.136335
-0.136561
-0.136742
-0.131946
-0.127149
-0.117308
-0.107421
-0.112534
-0.117692
-0.112851
-0.108009
-0.103213
-0.103371
-0.113439
-0.113552
-0.103778
-0.0989366
-0.0940272
-0.0891177
-0.0842081
-0.0793665
-0.0745928
-0.0647964
-0.0549774
-0.0551357
-0.0652715
-0.0604751
-0.045724
-0.0408823
-0.0509728
-0.0361086
-0.0213122
-0.0215385
-0.0218326
-0.00223981
0.0173077
0.0318552
0.0463801
0.0508824
0.0553168
0.0546606
0.0539367
0.0681448
0.0823303
0.0864706
0.095724
0.110068
0.119548
0.124208
0.128869
0.128529
0.138281
0.158122
0.163122
0.153281
0.143507
0.133688
0.12414
0.114751
0.100543
0.0764932
0.0573077
0.0379864
0.0235294
0.00893666
-0.00570135
-0.0203394
-0.0248643
-0.029457
-0.0444344
-0.0353167
-0.0773756
-0.0908597
-0.0908371
-0.0930769
-0.107919
-0.123597
-0.134548
-0.141833
-0.149434
-0.154276
-0.146697
-0.138982
-0.131335
-0.124231
-0.126968
-0.13052
-0.138733
-0.140973
-0.122127
-0.106719
-0.104683
-0.100362
-0.0836426
-0.0684842
-0.0603847
-0.0511765
-0.0409729
-0.0373078
-0.0401132
-0.0426471
-0.0448869
-0.0467874
-0.0483258
-0.0495475
-0.0454751
-0.0461312
-0.0565837
-0.0569683
-0.0472851
-0.0425339
-0.0477149
-0.0529186
-0.0531448
-0.0533484
-0.0535747
-0.0588235
-0.0640272
-0.0592082
-0.0544344
-0.0547059
-0.0549774
-0.0652036
-0.0754525
-0.0708145
-0.0661991
-0.0665611
-0.0669457
-0.0673303
-0.0677602
-0.0632353
-0.058733
-0.0642534
-0.0697964
-0.070362
-0.0709955
-0.0667421
-0.0675113
-0.0782579
-0.0840045
-0.079819
-0.0706109
-0.0613801
-0.0421719
-0.018009
-0.00882352
-0.00959275
-0.00527148
0.00416291
0.0236652
0.0432353
0.0578733
0.0726245
0.0775566
0.0876471
0.0628507
0.0382353
0.0138235
-0.0104977
0.00522625
0.0210407
0.00692308
-0.0120814
-0.0409276
-0.0646833
-0.0634163
-0.062172
-0.0709955
-0.0848416
-0.0986425
-0.107557
-0.096629
-0.0857466
-0.0799095
-0.0741629
-0.0685068
-0.0729186
-0.0923982
-0.0769005
-0.0214253
0.154005
0.404502
0.709774
1.03495
1.5302
2.09552
2.26577
2.31095
1.49613
0.476312
-0.123552
-0.658484
-0.678439
-0.643394
-0.548303
-0.638167
-0.363054
-0.277964
-0.232941
-0.187964
-0.162896
-0.13776
-0.13767
-0.137624
-0.132557
-0.127466
-0.127353
-0.127195
-0.122014
-0.116833
-0.111652
-0.106425
-0.111199
-0.11595
-0.105679
-0.0954072
-0.110113
-0.109819
-0.0945701
-0.0843213
-0.0890272
-0.0937104
-0.0884163
-0.0831674
-0.0829412
-0.0727149
-0.0574887
-0.0572625
-0.0670362
-0.06181
-0.0465837
-0.0413348
-0.046086
-0.0409276
-0.0258145
-0.0206335
-0.0154072
-0.00518099
4.52492e-05
0.0152715
0.0304977
0.0407466
0.0510181
0.066267
0.0814027
0.0964253
0.111425
0.121448
0.131425
0.13629
0.141086
0.15086
0.160543
0.165158
0.174774
0.189412
0.199118
0.193846
0.183778
0.173891
0.16414
0.149525
0.124955
0.100452
0.0811086
0.0619231
0.0327149
0.00343892
-0.00597285
-0.0104977
-0.0248869
-0.0391629
-0.0534842
-0.0678733
-0.0823982
-0.0970588
-0.101765
-0.0964932
-0.10129
-0.121041
-0.110633
-0.100543
-0.110973
-0.122443
-0.120158
-0.119457
-0.12543
-0.133756
-0.144661
-0.154072
-0.166244
-0.174072
-0.162104
-0.147104
-0.149072
-0.149027
-0.126652
-0.103846
-0.0911539
-0.0825339
-0.0738688
-0.0631448
-0.0550679
-0.0522172
-0.0593213
-0.0659955
-0.0680769
-0.068914
-0.0643665
-0.0595928
-0.0646154
-0.0695928
-0.0645023
-0.0593892
-0.0592534
-0.0591177
-0.0640045
-0.0689593
-0.0639593
-0.058914
-0.0588235
-0.0687104
-0.0685747
-0.0734842
-0.0784389
-0.0783484
-0.0782127
-0.0781674
-0.0781448
-0.0780769
-0.0779864
-0.0779186
-0.0779186
-0.0729638
-0.0680091
-0.0680543
-0.0680769
-0.0730543
-0.0780543
-0.0731222
-0.0681901
-0.0732127
-0.0732806
-0.0634389
-0.0635973
-0.0737104
-0.0788688
-0.079095
-0.0793665
-0.0796833
-0.0799548
-0.080181
-0.0804072
-0.0806561
-0.0609276
-0.0361991
-0.0313801
-0.0314932
-0.021629
-0.00676472
0.00312216
0.0130317
0.043009
0.0680769
0.0882127
0.108462
0.103869
0.099457
0.0601584
0.0308823
0.0216063
0.0124208
0.0183032
0.0191176
-0.0101358
-0.0344344
-0.0537783
-0.0632127
-0.0577602
-0.057353
-0.0719683
-0.081629
-0.0863348
-0.091086
-0.0908824
-0.0857692
-0.0757466
-0.0706787
-0.0655204
-0.0904073
-0.140407
-0.0803846
0.0446606
0.284683
0.564683
0.919661
1.29462
1.80959
2.35959
2.04457
1.60452
0.819434
0.00929867
-0.355769
-0.700769
-0.650837
-0.600973
-0.526041
-0.456063
-0.371131
-0.296222
-0.24629
-0.196312
-0.166312
-0.141267
-0.141176
-0.141109
-0.141086
-0.141086
-0.146018
-0.145928
-0.13086
-0.120792
-0.125679
-0.130566
-0.125475
-0.115385
-0.100317
-0.0902715
-0.0952036
-0.100068
-0.0998869
-0.0997737
-0.0946833
-0.0895701
-0.0894344
-0.0893213
-0.0842308
-0.0791403
-0.0740498
-0.0689366
-0.0688009
-0.0586878
-0.0435973
-0.0384615
-0.0382805
-0.0330995
-0.0279185
-0.0227828
-0.0176923
-0.0125566
-0.00737556
0.00776019
0.0228733
0.0280317
0.0331901
0.0482806
0.0682353
0.0880769
0.102896
0.107715
0.112557
0.122421
0.137195
0.156878
0.171584
0.166335
0.165995
0.180543
0.190204
0.190023
0.19
0.185113
0.175362
0.165724
0.151222
0.1319
0.102692
0.073552
0.0592308
0.0497964
0.0204299
-0.00893664
-0.0182805
-0.0276244
-0.0370814
-0.046629
-0.0562896
-0.0610633
-0.0608823
-0.060724
-0.0656335
-0.0704525
-0.0751131
-0.0805656
-0.0770588
-0.0747511
-0.0936425
-0.114321
-0.116855
-0.121471
-0.128281
-0.131674
-0.141267
-0.146652
-0.132805
-0.11629
-0.112149
-0.105928
-0.0874887
-0.0708597
-0.0565837
-0.0461764
-0.0497285
-0.0551357
-0.052285
-0.0493665
-0.0563122
-0.0579185
-0.0492081
-0.0451583
-0.0458145
-0.0462217
-0.0413801
-0.0464027
-0.0613122
-0.0612443
-0.0511991
-0.0461312
-0.0560633
-0.0560633
-0.0560859
-0.0610407
-0.0659728
-0.0609728
-0.0560407
-0.0561312
-0.0561991
-0.0561764
-0.0560859
-0.0659954
-0.075905
-0.0708371
-0.0657918
-0.075724
-0.0857013
-0.0807466
-0.0757692
-0.0757466
-0.0757466
-0.0807692
-0.0858371
-0.0809728
-0.076086
-0.0811538
-0.0862217
-0.0863122
-0.0864253
-0.0815611
-0.0767194
-0.0819004
-0.087104
-0.0823529
-0.0776018
-0.077828
-0.0780543
-0.0733031
-0.048552
-0.0237783
-0.0189592
-0.019095
-0.0242307
-0.0293665
-0.00943437
0.0105883
0.0257014
0.0409276
0.0661991
0.0915385
0.0770136
0.0576018
0.0332579
0.0139367
0.0146154
0.015362
0.00597287
-0.0131674
-0.0423077
-0.0615837
-0.0609955
-0.0654072
-0.0897964
-0.0993439
-0.0990498
-0.0987783
-0.103529
-0.108371
-0.103303
-0.0882805
-0.0732805
-0.0682579
-0.0682127
-0.0981674
-0.138122
0.0318552
0.261765
0.531765
0.806787
1.20667
1.62147
2.05633
2.49124
1.79615
1.08104
0.39086
-0.264366
-0.499548
-0.704683
-0.649842
-0.590023
-0.505204
-0.425385
-0.35552
-0.290611
-0.245747
-0.205928
-0.171109
-0.151267
-0.151425
-0.151629
-0.141833
-0.131968
-0.137059
-0.142127
-0.142149
-0.142195
-0.137308
-0.132421
-0.137489
-0.137534
-0.127624
-0.122738
-0.122873
-0.118009
-0.108145
-0.0983032
-0.0884842
-0.0836425
-0.0887783
-0.0938914
-0.0989819
-0.10414
-0.0993665
-0.0945701
-0.0947511
-0.0799774
-0.0652489
-0.0705203
-0.0757919
-0.066086
-0.0564706
-0.0419683
-0.0275113
-0.0230543
-0.0185746
-0.0140724
-0.00970587
-0.000497729
0.00866517
0.0177828
0.0267873
0.0356335
0.0495928
0.0637104
0.0729638
0.0773303
0.0866516
0.100973
0.11552
0.125294
0.130226
0.135272
0.140226
0.135113
0.130204
0.130475
0.120814
0.106222
0.0917647
0.0774435
0.0629864
0.0483937
0.0436425
0.0388688
0.014276
0.0346606
-0.0352036
-0.0560407
-0.05819
-0.0616968
-0.0815385
-0.103258
-0.107149
-0.112692
-0.129729
-0.144118
-0.140158
-0.133009
-0.132647
-0.131109
-0.135453
-0.138054
-0.140928
-0.144299
-0.13319
-0.121652
-0.134412
-0.131176
-0.1119
-0.100905
-0.103122
-0.0983937
-0.0817195
-0.0632127
-0.0479639
-0.0408372
-0.0416743
-0.0435747
-0.0464028
-0.0490272
-0.0464254
-0.0434163
-0.0500452
-0.0564027
-0.0524887
-0.0483484
-0.0440272
-0.0445928
-0.0500905
-0.0406108
-0.0311538
-0.0416289
-0.0520362
-0.0574887
-0.0629864
-0.0634842
-0.0639819
-0.0644796
-0.0649774
-0.0654977
-0.0660407
-0.0615837
-0.0571493
-0.0627376
-0.0683937
-0.059095
-0.0497285
-0.0552941
-0.060905
-0.0666063
-0.0723529
-0.0681448
-0.0640045
-0.0648869
-0.0658145
-0.06681
-0.0677602
-0.0636652
-0.059638
-0.0557014
-0.0367873
-0.0178733
-0.0138914
-0.00984164
-0.0107466
-0.0216063
0.00255655
0.0367647
0.0460633
0.0604525
0.0899321
0.119525
0.0892534
0.0591176
0.034095
0.00918551
0.0193665
0.024638
2.26153e-05
-0.0244118
-0.0536878
-0.0779186
-0.0621267
-0.051267
-0.0753394
-0.094457
-0.0935973
-0.0927602
-0.0969683
-0.10129
-0.085724
-0.0752263
-0.0647964
-0.0793665
-0.118937
-0.113597
-0.0681448
0.126968
0.386968
0.666991
0.962036
1.37199
1.82686
2.18174
2.51165
1.92652
1.18129
0.471018
-0.234231
-0.479434
-0.269615
-0.649796
-0.589977
-0.510204
-0.435475
-0.360679
-0.285814
-0.236041
-0.19129
-0.171471
-0.151629
-0.146833
-0.142081
-0.137353
-0.132579
-0.132783
-0.132851
-0.132896
-0.132941
-0.122986
-0.112986
-0.117919
-0.117873
-0.107896
-0.102941
-0.107964
-0.107964
-0.0979412
-0.0929412
-0.0879864
-0.0829638
-0.0878733
-0.0928054
-0.0877602
-0.0827602
-0.0827828
-0.0827376
-0.0776697
-0.0726697
-0.0727376
-0.0678733
-0.0580769
-0.0483258
-0.0435973
-0.023914
-0.00432125
-0.00975111
-0.0152036
-0.000746593
0.0135973
0.0178281
0.0220815
0.031448
0.0409276
0.0554978
0.0700905
0.0747059
0.0793213
0.0889367
0.10371
0.118643
0.128733
0.128982
0.129231
0.12448
0.119819
0.120204
0.115747
0.106493
0.0972625
0.0880769
0.0739367
0.0548869
0.040724
0.0314932
0.0173303
0.0027602
-0.00764704
-0.0191629
-0.0471493
-0.0768326
-0.0884163
-0.0972172
-0.118281
-0.148507
-0.151244
-0.150679
-0.15638
-0.160045
-0.147353
-0.134638
-0.132195
-0.130091
-0.133326
-0.136968
-0.141109
-0.145452
-0.139796
-0.133303
-0.135701
-0.1369
-0.126833
-0.114909
-0.105928
-0.095362
-0.0783258
-0.0539593
-0.0279864
-0.0202262
-0.0306561
-0.037172
-0.0427149
-0.0500226
-0.0471041
-0.0438009
-0.0501358
-0.0561765
-0.0519231
-0.0474661
-0.047828
-0.0480769
-0.0482353
-0.0434163
-0.0335973
-0.0337783
-0.0289593
-0.0541629
-0.0593892
-0.0596154
-0.0598416
-0.0700453
-0.0802263
-0.0704525
-0.060724
-0.0609955
-0.061267
-0.0615837
-0.0620136
-0.0575113
-0.0530091
-0.0584842
-0.0640272
-0.069638
-0.0753394
-0.071086
-0.0718326
-0.0876018
-0.0934389
-0.0793213
-0.0652036
-0.0511086
-0.0370362
-0.0229638
-0.0138914
-0.00984163
0.00429864
0.018552
0.0328733
0.0472624
0.0667873
0.0864706
0.0763348
0.0563122
0.0364027
0.016629
0.0120588
0.00762444
0.00825792
0.0139819
-0.015181
-0.0442534
-0.0582353
-0.0721267
-0.0659729
-0.0597964
-0.0786425
-0.0974887
-0.10629
-0.115091
-0.108959
-0.102896
-0.0818552
-0.0708371
-0.0748869
-0.0890724
-0.128371
-0.0626923
0.132964
0.383575
0.68414
1.03462
1.425
1.89036
2.40572
2.23102
1.6562
0.906403
0.081629
-0.36819
-0.673054
-0.682919
-0.607783
-0.522647
-0.437511
-0.362376
-0.29224
-0.242149
-0.197104
-0.187014
-0.171878
-0.156787
-0.141742
-0.141674
-0.141584
-0.136493
-0.131403
-0.12629
-0.121109
-0.120814
-0.120475
-0.125181
-0.129909
-0.119661
-0.109389
-0.114005
-0.118665
-0.108416
-0.0981674
-0.0928733
-0.0875565
-0.0922398
-0.0919457
-0.0816742
-0.0763574
-0.0709728
-0.065543
-0.0600452
-0.0547059
-0.0544344
-0.0541403
-0.0488235
-0.043552
-0.0383258
-0.0280769
-0.0178054
-0.0125113
-0.0072172
0.0180091
0.0432127
0.0484842
0.0488009
0.069095
0.0793665
0.0946154
0.109842
0.11509
0.120339
0.13552
0.150588
0.155611
0.160679
0.170792
0.180928
0.191086
0.201199
0.201403
0.196448
0.176516
0.156538
0.141516
0.121742
0.0872172
0.0677149
0.05319
0.0336199
0.00400452
-0.0106787
-0.0204073
-0.0350226
-0.0495249
-0.0541177
-0.0588009
-0.0685294
-0.0783032
-0.0830091
-0.0826244
-0.0872624
-0.096991
-0.101855
-0.09681
-0.0917421
-0.096629
-0.10638
-0.111086
-0.0958597
-0.0814706
-0.0933484
-0.106244
-0.109615
-0.113869
-0.123937
-0.133937
-0.138575
-0.137602
-0.125181
-0.110588
-0.100724
-0.093733
-0.0849999
-0.0787782
-0.0693891
-0.0603393
-0.0612443
-0.0620361
-0.0677149
-0.0732352
-0.0685972
-0.0637782
-0.0688009
-0.0738009
-0.0687556
-0.0636425
-0.0634615
-0.0633258
-0.0632353
-0.0631674
-0.0631222
-0.063009
-0.0678281
-0.0726697
-0.0725339
-0.0724434
-0.0723982
-0.0822851
-0.102127
-0.0870362
-0.071991
-0.0769005
-0.0817647
-0.081629
-0.0814932
-0.0764027
-0.0713349
-0.0762444
-0.0811539
-0.0910407
-0.10095
-0.090905
-0.0808371
-0.0857014
-0.0906335
-0.0906109
-0.0905882
-0.0855656
-0.0805656
-0.0855883
-0.0856335
-0.0707014
-0.0657014
-0.0756335
-0.0805656
-0.080543
-0.0805204
-0.0805204
-0.0804751
-0.0804073
-0.0803846
-0.0803846
-0.060362
-0.0353168
-0.0302715
-0.0252489
-0.0152263
-0.00518101
0.0149321
0.000135727
0.0504072
0.0607466
0.0860633
0.11138
0.0767421
0.0421267
0.0274434
0.0127376
0.00303168
-0.00671945
0.00343892
0.00855204
-0.0163575
-0.036267
-0.0462896
-0.0561765
-0.0610634
-0.0659955
-0.0759729
-0.0909276
-0.105837
-0.105792
-0.0858145
-0.0758597
-0.0758823
-0.0808597
-0.0908371
-0.0908823
-0.0809728
0.0890046
0.32905
0.619072
0.919072
1.36405
1.844
2.179
2.48898
1.71389
0.803756
0.148665
-0.48638
-0.601425
-0.706493
-0.601584
-0.501674
-0.436719
-0.371719
-0.311719
-0.251719
-0.211765
-0.176833
-0.166833
-0.156787
-0.151787
-0.146833
-0.146833
-0.146787
-0.136742
-0.126719
-0.116719
-0.106697
-0.116652
-0.126584
-0.121516
-0.116448
-0.111357
-0.106267
-0.111176
-0.111131
-0.101176
-0.0961764
-0.0961312
-0.0961086
-0.0911085
-0.0861312
-0.0811764
-0.0761538
-0.0710633
-0.0659955
-0.0659502
-0.0559728
-0.0410633
-0.041086
-0.0560633
-0.0411086
-0.0261991
-0.021267
-0.0163348
-0.00142534
0.0135068
0.0234615
0.0334389
0.0434615
0.0535068
0.058552
0.0685973
0.0886199
0.10362
0.10862
0.118575
0.133484
0.143439
0.153439
0.163507
0.168665
0.178801
0.188914
0.194027
0.18914
0.179344
0.16448
0.144819
0.130181
0.110611
0.0860634
0.0611991
0.0410407
0.025724
0.0102941
-0.00011313
-0.0104977
-0.0157692
-0.0209502
-0.0361765
-0.026448
-0.0617647
-0.0670362
-0.0671946
-0.0672851
-0.0773529
-0.0875113
-0.0828054
-0.0780543
-0.0781222
-0.0781222
-0.0831222
-0.0881448
-0.0832353
-0.0783484
-0.0784163
-0.0778054
-0.0811539
-0.0829186
-0.0731222
-0.0620362
-0.0696154
-0.0620136
-0.0394569
-0.0272398
-0.0360407
-0.0500226
-0.0627828
-0.0685746
-0.0670361
-0.0665836
-0.0679864
-0.0676923
-0.0663574
-0.0649774
-0.0585747
-0.0572851
-0.0661991
-0.0704977
-0.0650453
-0.0597511
-0.0645928
-0.0695701
-0.069638
-0.0647059
-0.0597511
-0.0647511
-0.0697059
-0.0747059
-0.0797737
-0.0848642
-0.0899321
-0.0899321
-0.0899321
-0.0900226
-0.0901358
-0.085181
-0.0802262
-0.0803167
-0.0804525
-0.0756109
-0.0707014
-0.080724
-0.0907466
-0.0907693
-0.0907919
-0.0858371
-0.0808371
-0.0857693
-0.0857014
-0.0757014
-0.0706561
-0.0755656
-0.0754751
-0.0653846
-0.0652715
-0.0751358
-0.08
-0.0748643
-0.0747059
-0.0845476
-0.0894344
-0.0843439
-0.0792082
-0.0790272
-0.0688462
-0.0586878
-0.0685294
-0.0783484
-0.0731448
-0.0679638
-0.0578281
-0.0476923
-0.0375566
-0.0274208
-0.0272851
-0.0272172
-0.0222851
-0.0174435
-0.00760183
0.0121493
0.0467873
0.0763801
0.0959502
0.10552
0.0900905
0.074638
0.0591629
0.0437557
0.0284389
0.0181674
0.0180317
-0.00226246
-0.0325566
-0.0527828
-0.0679638
-0.0631675
-0.0483937
-0.0585747
-0.0787105
-0.0838236
-0.0839367
-0.0841177
-0.0793439
-0.0745249
-0.0746607
-0.0547738
-0.0448643
-0.105
-0.150181
0.009638
0.194457
0.489208
0.808959
1.21376
1.63357
2.12339
2.32319
1.77294
1.15269
0.392489
-0.202647
-0.512783
-0.677941
-0.628122
-0.573281
-0.508394
-0.428529
-0.333733
-0.268959
-0.229163
-0.194367
-0.164615
-0.144887
-0.135158
-0.130407
-0.130633
-0.130837
-0.131018
-0.126267
-0.116561
-0.11681
-0.127059
-0.122353
-0.10767
-0.102986
-0.108303
-0.10362
-0.0939366
-0.084276
-0.074638
-0.0849548
-0.0952262
-0.0905204
-0.0858371
-0.0811538
-0.0764706
-0.0767647
-0.0770362
-0.0773077
-0.0775792
-0.0728507
-0.0680995
-0.0633484
-0.0586199
-0.0488687
-0.0391176
-0.0294117
-0.0197511
-0.0150905
-0.00540723
0.0092534
0.0238462
0.0334163
0.0379412
0.0423982
0.0568778
0.0713575
0.075724
0.0799548
0.0940272
0.108032
0.117036
0.126041
0.130113
0.124299
0.128597
0.143032
0.142602
0.127217
0.126787
0.126516
0.111584
0.0968326
0.0821946
0.0676244
0.0629638
0.0582805
0.0386199
0.0139593
-0.0107014
-0.0304299
-0.0302263
-0.0351358
-0.0501358
-0.0602941
-0.0655883
-0.0706335
-0.0754299
-0.0806788
-0.0865611
-0.0887783
-0.0823303
-0.082353
-0.094095
-0.108258
-0.12414
-0.139819
-0.143778
-0.143348
-0.139457
-0.13276
-0.12905
-0.124005
-0.112692
-0.0999774
-0.0957919
-0.084819
-0.0632353
-0.0493212
-0.0433937
-0.0510634
-0.0515158
-0.0484163
-0.046086
-0.0535068
-0.0606787
-0.0576018
-0.0541855
-0.0553394
-0.0561991
-0.0518552
-0.0473756
-0.047828
-0.0482127
-0.048552
-0.0488688
-0.0591855
-0.0695249
-0.0598869
-0.0552489
-0.0705882
-0.0759276
-0.0663122
-0.0616968
-0.0620362
-0.0623303
-0.0576471
-0.0530317
-0.0484389
-0.0438009
-0.0491177
-0.0544796
-0.0599095
-0.0653846
-0.0658824
-0.0662896
-0.0666969
-0.0671946
-0.0727376
-0.0732806
-0.0638462
-0.064457
-0.0701131
-0.0657919
-0.0615158
-0.0622625
-0.0629864
-0.0586878
-0.0543892
-0.0601131
-0.0657919
-0.0563575
-0.0468778
-0.0324208
-0.0179638
-0.0135068
-0.00400453
0.0105656
0.030181
0.0698416
0.089638
0.0995701
0.109638
0.104842
0.0901357
0.0654751
0.0359276
0.0115385
0.00719456
0.027828
0.0135068
-0.0257693
-0.0350679
-0.0393892
-0.0438009
-0.0383032
-0.0477828
-0.0672172
-0.0816969
-0.0962896
-0.0910408
-0.0758824
-0.0706788
-0.0804751
-0.065362
-0.0503168
-0.100272
-0.140249
-0.0502941
0.0696154
0.359502
0.654389
0.979321
1.36428
1.90423
2.28416
2.25903
1.88887
0.858801
0.0486652
-0.411539
-0.671697
-0.671833
-0.631991
-0.537149
-0.44233
-0.347579
-0.282783
-0.242896
-0.202964
-0.168009
-0.148122
-0.138258
-0.133326
-0.138326
-0.138371
-0.128462
-0.123507
-0.123507
-0.123507
-0.128529
-0.123575
-0.108597
-0.103575
-0.103529
-0.103484
-0.103439
-0.0984389
-0.0934842
-0.0884842
-0.0834615
-0.0835294
-0.0836425
-0.0787104
-0.0737557
-0.0787783
-0.0788009
-0.0588461
-0.0438914
-0.043914
-0.0438462
-0.0437783
-0.0387556
-0.0237783
-0.0138461
-0.0289366
-0.0241176
-0.00438914
0.00531674
0.00497737
0.00961538
0.0242308
0.0386878
0.0480091
0.0623303
0.076629
0.0808597
0.0850905
0.0944796
0.104027
0.103665
0.0933258
0.0979638
0.112647
0.117534
0.122602
0.127828
0.128167
0.123552
0.119027
0.104729
0.0905882
0.0715611
0.0525792
0.0385294
0.0243891
0.00513574
-0.0143213
-0.0239819
-0.0334615
-0.0426018
-0.0523303
-0.0628054
-0.0745023
-0.0724434
-0.0720362
-0.0883484
-0.11224
-0.133258
-0.143733
-0.142873
-0.147738
-0.158801
-0.162602
-0.154887
-0.147127
-0.149457
-0.147398
-0.135928
-0.129434
-0.127715
-0.124887
-0.120905
-0.115588
-0.11362
-0.104276
-0.0832579
-0.0723303
-0.0780543
-0.0534616
-0.0325566
-0.038733
-0.0461086
-0.0435294
-0.0408145
-0.0327149
-0.0242081
-0.0352489
-0.0459728
-0.0514932
-0.05681
-0.051991
-0.0471041
-0.057172
-0.0672625
-0.0624208
-0.0575566
-0.0626244
-0.0677376
-0.0679186
-0.0631222
-0.0533711
-0.0535973
-0.0637557
-0.0688914
-0.0690272
-0.0692082
-0.0694344
-0.069638
-0.0698417
-0.0700905
-0.065362
-0.0606561
-0.0609955
-0.0613801
-0.0668326
-0.0673982
-0.0580317
-0.0536199
-0.0541855
-0.0697964
-0.0754751
-0.0712217
-0.0669683
-0.0626697
-0.0583711
-0.0391855
-0.0200226
-0.0158145
-0.0115837
-0.00735295
0.00690044
0.0411991
0.0656335
0.0700226
0.0797964
0.0947285
0.0947737
0.0649321
0.0352489
0.010724
0.00128957
0.0169004
0.0176244
-0.0114932
-0.0355656
-0.0645928
-0.0785973
-0.0726018
-0.0715837
-0.0805204
-0.094457
-0.108416
-0.107511
-0.0967421
-0.0909729
-0.0902489
-0.0746154
-0.0540724
-0.098552
-0.153054
-0.0376245
0.0877375
0.348032
0.618258
0.978529
1.36385
1.92412
2.3743
2.23939
1.92948
0.989661
0.164842
-0.330068
-0.675023
-0.669955
-0.634887
-0.549864
-0.459864
-0.374842
-0.304796
-0.259751
-0.219706
-0.189661
-0.169638
-0.154661
-0.144638
-0.149525
-0.154434
-0.149434
-0.144344
-0.144163
-0.138982
-0.128801
-0.11862
-0.108439
-0.103167
-0.107805
-0.112489
-0.117217
-0.121991
-0.11681
-0.111584
-0.111312
-0.101086
-0.090905
-0.0957014
-0.100475
-0.0852715
-0.0701131
-0.065
-0.0598869
-0.0597059
-0.0595023
-0.0593213
-0.0591629
-0.0490498
-0.0389367
-0.0387557
-0.0335973
-0.0184615
-0.00830317
-0.00309955
0.00708146
0.0222172
0.0422851
0.0622625
0.0771946
0.0871267
0.0970815
0.107014
0.121787
0.136448
0.141063
0.145633
0.155136
0.164593
0.174186
0.183959
0.188869
0.188869
0.188914
0.19405
0.179344
0.199819
0.130452
0.111222
0.0921041
0.0730091
0.0488009
0.0245249
0.00520363
-0.0141403
-0.0334163
-0.0526923
-0.0571267
-0.0617421
-0.0615611
-0.0614706
-0.0713575
-0.0860407
-0.100588
-0.111063
-0.102511
-0.0952036
-0.11414
-0.124593
-0.131697
-0.140973
-0.156561
-0.170882
-0.173281
-0.171199
-0.165362
-0.156652
-0.155679
-0.153213
-0.144231
-0.128145
-0.105385
-0.0935747
-0.0934389
-0.0878281
-0.0761086
-0.0717195
-0.0739367
-0.0711539
-0.0682353
-0.0649547
-0.0612896
-0.0622624
-0.0629412
-0.0633937
-0.0636425
-0.0587783
-0.0538462
-0.0638462
-0.0738009
-0.0688009
-0.0638462
-0.0638461
-0.0638462
-0.0688914
-0.0739593
-0.0690272
-0.0640272
-0.0739593
-0.0838914
-0.0838688
-0.0838914
-0.0789593
-0.0740498
-0.0791177
-0.0842081
-0.0843439
-0.084457
-0.0845475
-0.0846606
-0.084819
-0.0799774
-0.0701131
-0.0652489
-0.0704072
-0.0756109
-0.0808597
-0.0811765
-0.0715611
-0.0719457
-0.0873303
-0.0828054
-0.0783032
-0.0837783
-0.0892534
-0.0797511
-0.0702941
-0.0558597
-0.0413575
-0.0317647
-0.0221041
-0.0224208
-0.0177376
0.0019457
0.0217421
0.0367195
0.0517647
0.0718778
0.0871493
0.0775792
0.0581448
0.0338462
0.0196606
0.0155656
0.0115611
0.0126697
-0.00122172
-0.0299548
-0.0490045
-0.0581222
-0.0622398
-0.0663801
-0.0806787
-0.0951358
-0.099638
-0.0991855
-0.0988462
-0.0936199
-0.0784163
-0.0632353
-0.0580317
-0.0578054
-0.102602
-0.142443
0.0476244
0.247647
0.52276
0.807941
1.14803
1.51308
2.0081
2.3181
1.9931
1.51308
0.638032
-0.0670136
-0.442036
-0.672036
-0.642059
-0.592127
-0.497217
-0.417262
-0.34224
-0.282217
-0.22224
-0.187262
-0.16724
-0.157195
-0.152149
-0.147127
-0.142127
-0.137081
-0.131991
-0.126878
-0.131742
-0.136629
-0.131516
-0.126312
-0.126063
-0.125905
-0.120792
-0.115611
-0.120385
-0.115181
-0.105
-0.0948642
-0.0847737
-0.089638
-0.0944344
-0.0892307
-0.0840724
-0.0789592
-0.0738461
-0.0736651
-0.0734841
-0.0633936
-0.0533032
-0.0481448
-0.043009
-0.0429185
-0.0378507
-0.0228054
-0.0127376
-0.00762443
0.00253394
0.0126923
0.0228054
0.0378733
0.0529412
0.0630317
0.0730317
0.0928959
0.102783
0.112692
0.122557
0.132308
0.151923
0.171471
0.176041
0.175588
0.17509
0.179661
0.189367
0.199231
0.189321
0.164548
0.154796
0.145136
0.120633
0.0962896
0.0770136
0.0576923
0.0382579
0.0187783
-0.000678733
-0.0200679
-0.0343665
-0.0487557
-0.0483484
-0.0530317
-0.0726923
-0.0874661
-0.0773529
-0.0672172
-0.0770588
-0.0868552
-0.0817421
-0.0776471
-0.0796154
-0.0828959
-0.0926471
-0.104299
-0.117851
-0.133507
-0.139253
-0.145181
-0.156697
-0.15914
-0.148348
-0.135226
-0.120181
-0.103235
-0.0952488
-0.0841176
-0.0654977
-0.0561086
-0.0551357
-0.0560407
-0.0581221
-0.0551809
-0.0520588
-0.0585294
-0.0646606
-0.0654524
-0.0659954
-0.0663122
-0.0664932
-0.0665611
-0.0666063
-0.0566968
-0.0467873
-0.0518552
-0.0569004
-0.061923
-0.0669683
-0.0620814
-0.0621946
-0.0772624
-0.0823529
-0.0724887
-0.0726018
-0.0826697
-0.0877602
-0.0829185
-0.0780995
-0.0732805
-0.0684163
-0.0735068
-0.0835973
-0.0937104
-0.0938914
-0.0841176
-0.0843213
-0.0945249
-0.0897738
-0.0750452
-0.0802488
-0.0954298
-0.0906787
-0.0809954
-0.0763801
-0.0717647
-0.0721041
-0.0724208
-0.0777149
-0.0830317
-0.0783936
-0.073733
-0.0740045
-0.069276
-0.0495927
-0.0348869
-0.0350905
-0.0352715
-0.0304298
-0.0105882
0.0292534
0.0542534
0.0644118
0.0846606
0.104977
0.10043
0.0709955
0.0416742
0.0124661
0.00328055
0.0140498
0.00986425
-0.00429865
-0.0234842
-0.0477149
-0.0570815
-0.0565837
-0.0611312
-0.0707014
-0.0903167
-0.11
-0.104774
-0.089638
-0.0894796
-0.104321
-0.084276
-0.0643213
-0.0842986
-0.104231
-0.119253
-0.0993439
0.125566
0.365475
0.670407
1.01036
1.43529
1.8552
2.27507
2.25489
1.37973
0.604548
-0.0207013
-0.450973
-0.626222
-0.686471
-0.611719
-0.531946
-0.447195
-0.372489
-0.312783
-0.263032
-0.223258
-0.193507
-0.168756
-0.158914
-0.154027
-0.149231
-0.149502
-0.144751
-0.134977
-0.130181
-0.135362
-0.130543
-0.115724
-0.110882
-0.110995
-0.111086
-0.111176
-0.101312
-0.0914932
-0.0966289
-0.101742
-0.0919231
-0.0821267
-0.0873077
-0.0925113
-0.0827602
-0.0730317
-0.0633032
-0.0535747
-0.0538235
-0.0540045
-0.0592082
-0.0594571
-0.0397512
-0.0251132
-0.0254978
-0.0209276
-0.011448
-0.00696835
-0.0124435
-0.00798646
0.0113122
0.0304751
0.0445475
0.0485746
0.0525792
0.0566289
0.0557692
0.07
0.0892986
0.093733
0.09319
0.107557
0.126991
0.131697
0.131584
0.136516
0.141448
0.151357
0.161403
0.146742
0.132262
0.117873
0.103552
0.0742534
0.0549321
0.0405203
0.025905
0.0110407
-0.00366517
-0.0230769
-0.0379638
-0.0584163
-0.0753394
-0.0687557
-0.063733
-0.080362
-0.104548
-0.125724
-0.140973
-0.144593
-0.143937
-0.149615
-0.153439
-0.146041
-0.138597
-0.141222
-0.139276
-0.127805
-0.121855
-0.116131
-0.10957
-0.112104
-0.113416
-0.108303
-0.101335
-0.0875113
-0.0717874
-0.0611539
-0.0494797
-0.0413349
-0.0410634
-0.0427602
-0.0402263
-0.0380091
-0.040543
-0.0427376
-0.0345249
-0.0259503
-0.0321041
-0.0380543
-0.0338688
-0.0345475
-0.0500453
-0.0555656
-0.0411312
-0.0316742
-0.0372172
-0.0427376
-0.0482127
-0.0537104
-0.054276
-0.0548417
-0.050362
-0.0508371
-0.0613122
-0.0668778
-0.0625113
-0.0580769
-0.0635747
-0.0691403
-0.0697738
-0.0703846
-0.0659955
-0.0616968
-0.0624887
-0.0633032
-0.0591403
-0.055
-0.0558597
-0.0667421
-0.0676923
-0.068733
-0.0697964
-0.0557692
-0.0416742
-0.0326018
-0.0235294
-0.0194344
-0.0153394
-0.00626697
0.0128507
0.0471041
0.0764932
0.0909276
0.100588
0.0903846
0.0702715
0.0452262
0.0253394
0.000633482
0.000995474
0.0214027
0.0119457
-0.0273529
-0.0516063
-0.0608371
-0.0600453
-0.0492308
-0.0583484
-0.0823982
-0.0964706
-0.105566
-0.0997511
-0.0840272
-0.0834163
-0.0928733
-0.0773982
-0.051991
-0.0966516
-0.15138
-0.0512217
0.0588461
0.363824
0.668733
1.00367
1.36862
1.92855
2.35842
2.13319
1.75292
0.812692
0.0174887
-0.392783
-0.6781
-0.668394
-0.633688
-0.559027
-0.474412
-0.374796
-0.305113
-0.265362
-0.225566
-0.190769
-0.166018
-0.15129
-0.141538
-0.141742
-0.141946
-0.142172
-0.137353
-0.127489
-0.122602
-0.127715
-0.117873
-0.0980543
-0.0931901
-0.0982806
-0.103326
-0.103326
-0.0983484
-0.0883937
-0.0883937
-0.103394
-0.0885068
-0.0736425
-0.0736652
-0.0736425
-0.0736878
-0.0737783
-0.0638914
-0.0540272
-0.0491629
-0.044276
-0.0493213
-0.0493892
-0.0295701
-0.014819
-0.0201131
-0.0254299
-0.0158145
-0.00622172
-0.00162896
0.00785068
0.0222398
0.0365385
0.050724
0.0648643
0.0790045
0.0882579
0.0926018
0.106991
0.121471
0.126018
0.125611
0.125226
0.129932
0.134842
0.139887
0.144977
0.145113
0.140294
0.130588
0.121109
0.12681
0.0826018
0.0584389
0.0441855
0.029819
0.0103168
-0.00929863
-0.0190498
-0.0286425
-0.0429185
-0.0578507
-0.0637557
-0.071086
-0.0748416
-0.0804299
-0.0892081
-0.103959
-0.125928
-0.145452
-0.147353
-0.145339
-0.149751
-0.152941
-0.150204
-0.14776
-0.145566
-0.143959
-0.137986
-0.1319
-0.130611
-0.128122
-0.119412
-0.109253
-0.107489
-0.0982127
-0.0770136
-0.06181
-0.0583258
-0.0541403
-0.0435747
-0.0398416
-0.0423982
-0.0399548
-0.0373756
-0.029457
-0.0211539
-0.0324208
-0.0433937
-0.0491629
-0.0547512
-0.0502263
-0.0455883
-0.0508371
-0.0560634
-0.0513575
-0.0466742
-0.051991
-0.0573077
-0.0626018
-0.0629186
-0.0483032
-0.0386426
-0.0488914
-0.0591177
-0.0593665
-0.0596833
-0.0600453
-0.0604073
-0.0657466
-0.0661312
-0.056629
-0.0571041
-0.0675792
-0.0681222
-0.058733
-0.0544344
-0.0552036
-0.0559729
-0.0567421
-0.0625113
-0.0733032
-0.0691855
-0.0551131
-0.0459729
-0.03181
-0.0227602
-0.0137557
-0.0147059
-0.0156109
0.00848416
0.0326018
0.05681
0.0811765
0.0907014
0.0954525
0.0754299
0.0554977
0.0356335
0.0160181
0.00167421
-0.00760182
0.00316741
-0.000972864
-0.035
-0.0540045
-0.0579864
-0.0619231
-0.0608371
-0.0647511
-0.0786878
-0.0876245
-0.0914932
-0.0905656
-0.0797511
-0.0739819
-0.0682579
-0.0626244
-0.0570815
-0.0915611
-0.141063
-0.00565612
0.169638
0.459864
0.765045
1.17025
0.780475
2.0907
2.55593
2.00109
1.41118
0.55129
-0.223575
-0.493484
-0.708439
-0.628416
-0.548416
-0.463416
-0.378439
-0.303484
-0.238529
-0.198575
-0.163575
-0.148552
-0.138507
-0.133484
-0.128439
-0.133326
-0.13319
-0.123077
-0.117964
-0.122805
-0.122602
-0.112376
-0.107149
-0.106923
-0.106652
-0.101335
-0.0960407
-0.100769
-0.100543
-0.090362
-0.0900905
-0.0997738
-0.0945023
-0.079276
-0.0740271
-0.0737557
-0.0685068
-0.0632805
-0.0530769
-0.0428733
-0.0426244
-0.0423529
-0.0421041
-0.0418778
-0.0316742
-0.0214706
-0.0162217
-0.0109728
-0.00079184
0.00936653
0.0195928
0.0348416
0.0500453
0.0652489
0.0854978
0.100747
0.110973
0.121176
0.126357
0.13638
0.151267
0.161222
0.16629
0.176357
0.196403
0.201335
0.201199
0.201041
0.205814
0.210588
0.205475
0.185656
0.166109
0.131697
0.0973303
0.0878281
0.0782353
0.0386199
-0.00597284
-0.0154751
-0.0249774
-0.0444344
-0.0638914
-0.0634615
-0.0630995
-0.0677375
-0.0723756
-0.0769909
-0.0816063
-0.0913122
-0.101131
-0.101041
-0.100905
-0.105611
-0.110271
-0.109932
-0.110611
-0.117376
-0.125792
-0.126086
-0.123235
-0.121674
-0.124412
-0.135136
-0.139615
-0.142059
-0.136222
-0.116674
-0.0994796
-0.09
-0.0848642
-0.0786199
-0.073914
-0.0704751
-0.066923
-0.0682126
-0.064276
-0.0550679
-0.0505656
-0.0507918
-0.0608371
-0.060724
-0.0605656
-0.0603846
-0.065181
-0.0699547
-0.0697737
-0.0696154
-0.0694344
-0.0692534
-0.074095
-0.0789819
-0.0738914
-0.0687783
-0.0686878
-0.0685068
-0.0733032
-0.0780769
-0.0728733
-0.0676697
-0.0824208
-0.0871946
-0.0820362
-0.0768778
-0.0766742
-0.0764932
-0.0763575
-0.0762217
-0.076086
-0.0759276
-0.0707466
-0.0655882
-0.0704525
-0.075362
-0.0703167
-0.0702489
-0.080181
-0.0801584
-0.070181
-0.0652036
-0.0702262
-0.0752715
-0.0753394
-0.0754299
-0.0754977
-0.0704977
-0.0654751
-0.0604525
-0.0554525
-0.0254977
-0.00552035
-0.0154751
-0.0254072
-0.015362
0.00470589
0.0398869
0.0651358
0.0704073
0.085724
0.111109
0.111674
0.0723756
0.0380769
0.0187783
0.014457
0.0250679
0.025724
0.0114254
-0.0129864
-0.0475339
-0.057104
-0.0566968
-0.0613575
-0.071086
-0.0758597
-0.0806561
-0.0854072
-0.0901357
-0.0948869
-0.0896606
-0.0744796
-0.0593213
-0.0691176
-0.0938914
-0.0987104
-0.0935747
0.136561
0.381697
0.71181
1.0769
1.62201
2.08217
2.21735
2.07753
1.10269
0.262828
-0.257059
-0.611968
-0.646855
-0.636719
-0.536584
-0.451448
-0.38129
-0.316154
-0.261041
-0.215928
-0.180837
-0.155701
-0.145498
-0.140249
-0.139977
-0.139774
-0.134593
-0.129389
-0.129163
-0.128959
-0.123778
-0.118575
-0.113348
-0.108122
-0.107919
-0.0978054
-0.0827376
-0.0826018
-0.0774208
-0.0972172
-0.096991
-0.0967873
-0.0966064
-0.0963801
-0.0961086
-0.090905
-0.085724
-0.0805204
-0.0752941
-0.0650905
-0.0549321
-0.049819
-0.0446832
-0.0395927
-0.0343665
-0.0291176
-0.0238688
-0.0136651
-0.00348414
0.00171947
0.0119231
0.0270815
0.0422398
0.0524434
0.0626471
0.0778054
0.0979412
0.118077
0.128235
0.133416
0.143643
0.153914
0.169186
0.184457
0.189887
0.190407
0.195837
0.206199
0.211629
0.207172
0.197851
0.19362
0.184412
0.175272
0.141244
0.107217
0.0880317
0.0686652
0.0391403
0.0196154
0.000203677
-0.0192081
-0.033733
-0.0483936
-0.0532126
-0.0581674
-0.0632126
-0.0683031
-0.0584615
-0.0536651
-0.068914
-0.0792986
-0.0798189
-0.0804298
-0.0810859
-0.086742
-0.0973755
-0.102918
-0.0984389
-0.0938913
-0.0942533
-0.0935746
-0.0917873
-0.0885068
-0.0835294
-0.0759502
-0.0612217
-0.0459276
-0.0362443
-0.0308823
-0.0292534
-0.0299321
-0.0321946
-0.034638
-0.0370588
-0.0390272
-0.0406788
-0.0321041
-0.0231674
-0.0188462
-0.0143439
-0.0197738
-0.0260633
-0.0333937
-0.0420814
-0.0421946
-0.044457
-0.0588462
-0.0745475
-0.086267
-0.0940724
-0.103054
-0.109186
-0.107805
-0.100724
-0.0831448
-0.0758597
-0.0838235
-0.0870814
-0.0906335
-0.0946154
-0.0938688
-0.0932353
-0.0977376
-0.102376
-0.102104
-0.101787
-0.101425
-0.101109
-0.0958145
-0.085543
-0.0752488
-0.0798869
-0.0694796
-0.0990498
-0.0985973
-0.0931448
-0.0876923
-0.0871946
-0.0866516
-0.0861086
-0.085543
-0.0849095
-0.0842081
-0.0784841
-0.0727602
-0.0720136
-0.0711991
-0.0752941
-0.0792986
-0.0832805
-0.0872624
-0.0812443
-0.0751583
-0.0790045
-0.0778733
-0.0667873
-0.0607013
-0.0645927
-0.0685068
-0.0624887
-0.056561
-0.0557013
-0.0549321
-0.0542533
-0.0537556
-0.0584615
-0.0533258
-0.0383258
-0.0435294
-0.0588914
-0.0594343
-0.0501131
-0.0458823
-0.0467647
-0.0277149
-0.00871038
-0.00475111
-0.000859693
0.00303171
0.00694573
0.0308371
0.0547059
0.0685973
0.0826018
0.0967195
0.105837
0.0749321
0.0441176
0.0234389
0.00787329
0.00737555
0.00690044
0.00644793
-0.00391406
-0.0341855
-0.0494118
-0.0395701
-0.0446833
-0.0647738
-0.0798416
-0.0898869
-0.0949321
-0.0899774
-0.0850226
-0.0850679
-0.0701131
-0.0501583
-0.065181
-0.095181
-0.0901357
-0.0700452
0.145023
0.385068
0.690091
1.00509
1.48014
1.9552
2.25016
2.47507
1.60998
0.769887
0.144774
-0.405407
-0.555656
-0.665882
-0.590995
-0.521063
-0.456176
-0.386335
-0.311561
-0.25181
-0.226991
-0.197217
-0.167511
-0.147783
-0.153009
-0.158258
-0.143529
-0.133801
-0.11905
-0.114276
-0.12448
-0.129661
-0.129751
-0.13
-0.125249
-0.120407
-0.120498
-0.120633
-0.115814
-0.110995
-0.111176
-0.111357
-0.106538
-0.0967195
-0.0869004
-0.0820814
-0.0822398
-0.0923756
-0.0925339
-0.0827602
-0.0730091
-0.07319
-0.0733258
-0.0634615
-0.0535747
-0.0486652
-0.0437783
-0.0339593
-0.0241855
-0.0144118
-0.00461537
0.00515838
0.0150226
0.0198869
0.0297512
0.0445928
0.0544797
0.0694571
0.0843666
0.104163
0.113982
0.118869
0.128778
0.138688
0.143665
0.14871
0.158801
0.168937
0.16905
0.159118
0.154208
0.149344
0.124615
0.0999548
0.0952942
0.0906109
0.0657466
0.0406561
0.0203394
0.00484166
-0.000746578
-0.00635743
-0.026923
-0.0473755
-0.0577828
-0.0682126
-0.0736199
-0.0790497
-0.0845248
-0.0899773
-0.0903846
-0.0907692
-0.0910859
-0.0913574
-0.0916289
-0.0918099
-0.0868778
-0.0820135
-0.0872851
-0.0925113
-0.0926244
-0.0918099
-0.0899547
-0.0866968
-0.0869683
-0.0799095
-0.0509276
-0.0367195
-0.0278054
-0.0244344
-0.0268326
-0.024457
-0.0213348
-0.0348869
-0.0572851
-0.0699548
-0.0738235
-0.0696833
-0.0588914
-0.0574208
-0.0707692
-0.0593665
-0.0482805
-0.0575113
-0.0669457
-0.0616289
-0.056561
-0.0566289
-0.056742
-0.0518552
-0.0469683
-0.057104
-0.067285
-0.0625339
-0.0627601
-0.0778733
-0.0880316
-0.0782579
-0.0684615
-0.0686199
-0.0688235
-0.069095
-0.0693891
-0.0646832
-0.0599321
-0.0601357
-0.0652715
-0.0753619
-0.0755429
-0.0657692
-0.0659502
-0.0760859
-0.0812217
-0.0863574
-0.0914706
-0.086561
-0.0766289
-0.0667194
-0.0618552
-0.0569909
-0.0570588
-0.0520588
-0.0720135
-0.0719683
-0.0719683
-0.0719457
-0.0768552
-0.0817647
-0.0716742
-0.061561
-0.0664027
-0.0712669
-0.0711764
-0.0711312
-0.0661312
-0.0611312
-0.0661086
-0.0710859
-0.0610633
-0.0460859
-0.0261991
-0.0113348
-0.0264932
-0.0268099
-0.012285
0.00223986
0.0117648
0.0311539
0.0604073
0.0846154
0.103824
0.108122
0.0975114
0.0619457
0.0213575
0.0107693
0.0152263
0.0147738
0.00436656
-0.0160407
-0.0364253
-0.046742
-0.0570136
-0.0623077
-0.0626244
-0.0679412
-0.0732579
-0.0735294
-0.073733
-0.078914
-0.084095
-0.074276
-0.064457
-0.069638
-0.079819
-0.120023
-0.0702262
0.174661
0.46457
0.82448
1.2593
1.78903
2.17885
2.39878
2.03371
1.0636
0.293439
-0.306742
-0.6019
-0.677014
-0.657149
-0.577376
-0.477579
-0.37776
-0.312986
-0.263258
-0.213552
-0.168869
-0.149163
-0.134412
-0.129593
-0.134728
-0.129932
-0.115204
-0.120452
-0.140701
-0.126018
-0.111357
-0.116606
-0.121787
-0.106991
-0.0922172
-0.0874661
-0.0827376
-0.0829864
-0.0831901
-0.0933484
-0.103529
-0.0938009
-0.0840498
-0.0841629
-0.0843213
-0.0845702
-0.084819
-0.0800679
-0.0753846
-0.075724
-0.0660181
-0.046267
-0.0364932
-0.0416969
-0.0468552
-0.0469457
-0.0371493
-0.0223756
-0.0175792
-0.0177602
-0.00798644
0.00674206
0.0165158
0.0263348
0.0411086
0.0558371
0.075543
0.0952489
0.100023
0.0998416
0.109638
0.119412
0.129231
0.139095
0.139005
0.138891
0.14862
0.158326
0.153077
0.147851
0.152624
0.15733
0.147014
0.131787
0.106652
0.0814932
0.0512896
0.0360633
0.0257919
0.00556561
-0.0195475
-0.0347059
-0.0399547
-0.0502036
-0.0654525
-0.0756335
-0.0707919
-0.0660407
-0.0663348
-0.0665611
-0.0717195
-0.08181
-0.0918778
-0.0970362
-0.0972624
-0.0974208
-0.0975566
-0.0978054
-0.098009
-0.0980995
-0.098371
-0.098371
-0.0982805
-0.0779412
-0.0573982
-0.0663801
-0.0757014
-0.0761765
-0.0763348
-0.0728281
-0.0693666
-0.0701132
-0.0709502
-0.0661539
-0.0614706
-0.0567195
-0.0519231
-0.0520588
-0.0521946
-0.0423982
-0.032534
-0.0376244
-0.0477149
-0.0578281
-0.0629186
-0.0580317
-0.0531222
-0.0531448
-0.0532127
-0.0533937
-0.0585068
-0.068552
-0.0736199
-0.0687331
-0.0638462
-0.0589367
-0.0539593
-0.053914
-0.0588914
-0.0688914
-0.0689593
-0.059095
-0.0641629
-0.0841629
-0.0741855
-0.0642308
-0.0692987
-0.0743891
-0.064457
-0.0545249
-0.054638
-0.0547285
-0.0547285
-0.0546833
-0.0646833
-0.0747511
-0.0698643
-0.0649548
-0.0699321
-0.0749548
-0.0700452
-0.0651131
-0.0651357
-0.0652036
-0.0603167
-0.0554299
-0.050543
-0.0506335
-0.0607014
-0.0657919
-0.0659502
-0.0661538
-0.0663801
-0.0615385
-0.0516516
-0.0318326
-0.0120588
-0.00723982
-0.00237557
0.00744344
0.0172172
0.0520362
0.0869457
0.0919004
0.0919004
0.101923
0.101946
0.0719231
0.0419683
0.0221041
0.00223982
0.0123303
0.0224208
0.00255655
-0.0173077
-0.0421946
-0.0571041
-0.041991
-0.0318326
-0.0516968
-0.071448
-0.0861991
-0.0909955
-0.0758371
-0.0656787
-0.0704977
-0.0653394
-0.0452036
-0.0650679
-0.129932
-0.0397964
0.145339
0.415475
0.720611
1.11081
1.53609
2.00136
2.47663
2.04186
1.36704
0.607262
-0.167489
-0.442285
-0.657104
-0.611878
-0.546629
-0.456403
-0.371199
-0.306041
-0.240905
-0.205701
-0.170407
-0.150091
-0.129819
-0.129638
-0.12948
-0.129253
-0.128982
-0.123733
-0.118507
-0.118258
-0.118009
-0.117805
-0.11267
-0.0975566
-0.0873982
-0.0971946
-0.106923
-0.101606
-0.0963348
-0.0911312
-0.0858824
-0.090543
-0.0952489
-0.0900679
-0.0848416
-0.0795701
-0.0743213
-0.074095
-0.0688462
-0.0585747
-0.0532805
-0.0529638
-0.0526471
-0.0473303
-0.0370814
-0.0269004
-0.0216742
-0.0314027
-0.0161765
-0.000995465
0.00423078
0.00950227
0.0297511
0.0499774
0.0652036
0.0804299
0.0957014
0.110995
0.121267
0.136516
0.156719
0.171923
0.167195
0.167443
0.182692
0.193077
0.193597
0.194118
0.199638
0.205158
0.200679
0.18638
0.167262
0.14319
0.11414
0.0900905
0.0709955
0.04181
0.012534
-0.00687782
-0.0214253
-0.035905
-0.0503167
-0.0598416
-0.0694796
-0.0742534
-0.0741176
-0.078914
-0.0736878
-0.0986199
-0.103733
-0.103982
-0.104253
-0.109412
-0.11457
-0.109887
-0.105294
-0.105724
-0.106312
-0.107262
-0.107828
-0.107557
-0.105905
-0.0980317
-0.0879864
-0.0909728
-0.0918778
-0.0706561
-0.0512896
-0.0498643
-0.0467874
-0.0371267
-0.0337557
-0.0413801
-0.0436878
-0.0356108
-0.0271719
-0.0183936
-0.0143212
-0.0199547
-0.0304751
-0.0408597
-0.0410633
-0.0311086
-0.0311538
-0.0417647
-0.0485294
-0.0466063
-0.0461085
-0.0575113
-0.0711538
-0.0813348
-0.0827375
-0.0815837
-0.0911991
-0.0976244
-0.106267
-0.114072
-0.106493
-0.0990723
-0.106923
-0.115181
-0.108891
-0.102851
-0.101991
-0.101312
-0.100792
-0.100339
-0.0949773
-0.0895927
-0.0941628
-0.0987104
-0.0982579
-0.097828
-0.0923981
-0.0869004
-0.0913348
-0.0957918
-0.0903393
-0.0847963
-0.0891628
-0.0935294
-0.0878959
-0.0821945
-0.0764253
-0.0705882
-0.0746832
-0.0787104
-0.0826696
-0.0816063
-0.0704977
-0.0692986
-0.0830316
-0.0718099
-0.0606108
-0.0693438
-0.0780542
-0.0718099
-0.0656108
-0.0544343
-0.0432578
-0.047104
-0.051018
-0.0550226
-0.0591855
-0.048552
-0.0380543
-0.047647
-0.057466
-0.0475113
-0.0376923
-0.0429864
-0.0484615
-0.0441176
-0.0398868
-0.0357692
-0.0316968
-0.032647
-0.0286425
-0.0146379
0.00418559
0.0179186
0.0166517
0.00538468
0.0140498
0.0426697
0.0663802
0.0901584
0.104005
0.117896
0.121855
0.120928
0.0851358
0.119457
0.0288914
0.0184389
0.0230317
0.0276697
0.00246608
-0.0226697
-0.0428054
-0.0629186
-0.0529638
-0.0479638
-0.0729638
-0.0929638
-0.0829638
-0.0728959
-0.0728281
-0.0725792
-0.0623303
-0.0571493
-0.0770362
-0.0918778
-0.091629
0.0335747
0.288688
0.578801
0.898959
1.32412
1.81923
2.15932
2.42941
1.86955
0.949729
0.25491
-0.369909
-0.564819
-0.644819
-0.604729
-0.539615
-0.444615
-0.349706
-0.299751
-0.254774
-0.209842
-0.169932
-0.150045
-0.130158
-0.130204
-0.130204
-0.130204
-0.130226
-0.125294
-0.120339
-0.125294
-0.130226
-0.120226
-0.110271
-0.115271
-0.120226
-0.115204
-0.110249
-0.105317
-0.100294
-0.100181
-0.100068
-0.1
-0.0999321
-0.0948642
-0.0897964
-0.0896832
-0.0895701
-0.0845249
-0.0794118
-0.0792308
-0.0741403
-0.0641403
-0.0541629
-0.0442081
-0.0391629
-0.0390271
-0.0388914
-0.0387557
-0.0286652
-0.0136199
-0.0085294
-0.00839366
0.0117195
0.0317873
0.0418552
0.0519457
0.0770362
0.102127
0.117217
0.132308
0.137443
0.142624
0.147805
0.153009
0.168258
0.183575
0.184005
0.184412
0.194751
0.200136
0.185656
0.17629
0.162036
0.152828
0.138665
0.114548
0.0854525
0.0611991
0.0421041
0.0225566
0.0029412
-0.0165837
-0.0410407
-0.0456561
-0.0504298
-0.0552941
-0.0602715
-0.0652715
-0.0703167
-0.0705429
-0.0609049
-0.0662217
-0.0564932
-0.0917647
-0.0971493
-0.0926697
-0.0882353
-0.098914
-0.109728
-0.100611
-0.0908597
-0.0947964
-0.0973303
-0.0883258
-0.0774434
-0.0694117
-0.0597284
-0.0489592
-0.0403393
-0.0408144
-0.0444796
-0.036018
-0.0283484
-0.0459502
-0.0483484
-0.0354298
-0.0270814
-0.0333031
-0.0343212
-0.0251583
-0.0208597
-0.0163574
-0.0164705
-0.0266063
-0.0326018
-0.0396153
-0.0429185
-0.0376018
-0.0487556
-0.0718099
-0.0822171
-0.0829185
-0.0871945
-0.0985293
-0.105995
-0.105973
-0.0941402
-0.081742
-0.0943438
-0.107149
-0.100271
-0.0937556
-0.0976017
-0.101674
-0.100928
-0.100362
-0.0999773
-0.099638
-0.104321
-0.10905
-0.0988235
-0.0886199
-0.0784163
-0.0681448
-0.0778054
-0.0874661
-0.0921493
-0.0968326
-0.0915158
-0.0861312
-0.0856561
-0.0852036
-0.0897963
-0.0893212
-0.0787782
-0.0732126
-0.0776244
-0.0819683
-0.0762443
-0.0704298
-0.0745248
-0.0786199
-0.0777149
-0.0767873
-0.0708371
-0.064819
-0.0737556
-0.0677375
-0.061742
-0.0607013
-0.0596606
-0.058733
-0.0579185
-0.0522398
-0.0466289
-0.0510859
-0.0556561
-0.0553846
-0.0553167
-0.0454298
-0.0406561
-0.0559728
-0.0664932
-0.0572398
-0.048009
-0.0488008
-0.0446832
-0.0306561
-0.0166968
-0.0028054
0.00604075
0.0048869
0.00377831
0.00278283
0.0265837
0.065362
0.0792987
0.0833485
0.0973304
0.11129
0.0954299
0.0597059
0.0390272
0.0183711
0.0278055
0.0473304
0.0219005
0.0515159
-0.0338009
-0.0490724
-0.0393438
-0.0296153
-0.0498416
-0.0700226
-0.0752715
-0.0805203
-0.0806787
-0.0807692
-0.0758824
-0.0709955
-0.056086
-0.0611765
-0.126244
-0.10129
0.0885973
0.313439
0.598235
0.903054
1.23294
1.65781
2.1726
2.23238
1.92717
1.28699
0.426787
-0.128484
-0.523801
-0.644072
-0.639299
-0.589593
-0.519955
-0.440317
-0.360679
-0.310995
-0.266335
-0.221719
-0.182127
-0.172511
-0.162873
-0.148258
-0.138665
-0.129005
-0.119276
-0.124502
-0.129683
-0.124887
-0.120136
-0.120453
-0.120814
-0.126131
-0.131403
-0.121697
-0.111968
-0.107195
-0.102443
-0.0976923
-0.0929186
-0.0831674
-0.0734163
-0.0786199
-0.0837783
-0.0789367
-0.0741629
-0.0744344
-0.0746606
-0.074819
-0.07
-0.0602715
-0.0554978
-0.0556787
-0.0508371
-0.0409729
-0.0261539
-0.0113801
-0.00658372
-0.00676472
-0.00694571
-0.00212671
0.0176697
0.0374434
0.0422851
0.0421719
0.066991
0.0917647
0.0915611
0.0913122
0.105973
0.120633
0.130339
0.14009
0.149887
0.159683
0.144434
0.129005
0.138394
0.137851
0.107421
0.0871267
0.0919231
0.0869457
0.0571946
0.0373077
0.0221946
0.0120362
-0.0031448
-0.0181448
-0.0279412
-0.0377828
-0.0524208
-0.0624887
-0.0676471
-0.0726471
-0.0725113
-0.0725113
-0.0726471
-0.0728054
-0.0780091
-0.0832805
-0.0835747
-0.0837783
-0.078914
-0.0739593
-0.0746606
-0.0817195
-0.0799774
-0.0788235
-0.0784842
-0.0888462
-0.0996154
-0.105588
-0.107195
-0.098009
-0.0852489
-0.0756109
-0.0677829
-0.0529865
-0.0408824
-0.0403394
-0.0412217
-0.0424661
-0.0438235
-0.0401584
-0.0363122
-0.0522851
-0.0531222
-0.0438461
-0.0393665
-0.0447059
-0.0500226
-0.0503167
-0.0505882
-0.0558597
-0.061086
-0.061267
-0.0614706
-0.0666968
-0.0669231
-0.0571493
-0.0523529
-0.0575566
-0.0628281
-0.0581448
-0.0633937
-0.0785973
-0.0738462
-0.0641176
-0.0643665
-0.0645927
-0.0697964
-0.0749774
-0.0801584
-0.085362
-0.0755882
-0.0658145
-0.0760181
-0.0862217
-0.0764706
-0.0667195
-0.0719457
-0.0772398
-0.0826018
-0.0879638
-0.0783032
-0.0686199
-0.068914
-0.0692308
-0.0745928
-0.0800453
-0.0755656
-0.0709955
-0.0763349
-0.0817195
-0.082172
-0.0825566
-0.0778733
-0.0582127
-0.0385747
-0.033914
-0.0292308
-0.0245023
-0.0197285
-0.00988689
4.52474e-05
0.0399548
0.0798643
0.0899095
0.105023
0.0900905
0.0751358
0.0402941
0.00554299
0.0207692
0.0359502
0.0260634
0.0111765
-0.0187104
-0.0436425
-0.0585973
-0.0735746
-0.0636199
-0.0586651
-0.0836425
-0.103665
-0.0937104
-0.083733
-0.0837331
-0.078733
-0.0637557
-0.0588235
-0.073914
-0.0840045
-0.0890724
0.0509276
0.285973
0.57595
0.895905
1.30093
1.741
2.13597
2.51088
1.97079
1.2057
0.475634
-0.244412
-0.48448
-0.67457
-0.634638
-0.684683
-0.489706
-0.404729
-0.329796
-0.264887
-0.224932
-0.184932
-0.165
-0.145068
-0.145091
-0.14509
-0.140113
-0.135158
-0.125226
-0.115294
-0.115407
-0.115452
-0.115498
-0.115543
-0.110611
-0.105656
-0.110633
-0.110588
-0.100566
-0.0955656
-0.100543
-0.10052
-0.085543
-0.0755882
-0.0756335
-0.0756335
-0.0705882
-0.0655882
-0.0706335
-0.070724
-0.0608597
-0.0558823
-0.0608597
-0.0609276
-0.0510633
-0.0461312
-0.0411312
-0.0211538
-0.00619908
-0.00128958
0.00357467
0.0134842
0.0234616
0.0334842
0.0434615
0.0633258
0.0831448
0.0829864
0.0827828
0.0974661
0.112127
0.121833
0.131493
0.136109
0.140679
0.150204
0.159683
0.159118
0.15862
0.15319
0.142941
0.132828
0.117964
0.0983484
0.083733
0.0641629
0.0496154
0.0300905
0.00552036
-0.0191403
-0.0288009
-0.0283937
-0.0378959
-0.0523756
-0.056991
-0.0617195
-0.0665158
-0.0664027
-0.0762896
-0.0961991
-0.091267
-0.086267
-0.0909502
-0.096086
-0.0970362
-0.0992308
-0.0977376
-0.0978507
-0.104683
-0.113756
-0.135136
-0.154593
-0.151403
-0.142828
-0.148688
-0.146063
-0.119864
-0.0970362
-0.0827149
-0.0712896
-0.0637783
-0.0599774
-0.0547738
-0.0508371
-0.0479186
-0.0448869
-0.0521493
-0.0535973
-0.0447285
-0.0404751
-0.0458824
-0.0511539
-0.0512896
-0.0513349
-0.0512896
-0.0513122
-0.0513575
-0.0514027
-0.046448
-0.0464254
-0.0413349
-0.0612217
-0.0611086
-0.0610407
-0.0609955
-0.0659276
-0.0708371
-0.0707692
-0.0707014
-0.0706109
-0.0705204
-0.0754751
-0.0804751
-0.0704525
-0.0604072
-0.070362
-0.0802941
-0.0752262
-0.070181
-0.0652036
-0.0602489
-0.0752715
-0.0753167
-0.0654299
-0.0606109
-0.0658145
-0.0710181
-0.0712443
-0.0714706
-0.0666968
-0.0619457
-0.0622172
-0.0674887
-0.0777828
-0.0680996
-0.0484163
-0.0436425
-0.0438009
-0.0290045
-0.00923077
-0.00941177
-0.0195475
-0.00963801
0.00533936
0.0353846
0.0655204
0.0807692
0.0961765
0.0867195
0.0773529
0.0480317
0.0288009
0.0146606
0.000497729
0.0112896
0.0171041
-0.00208146
-0.021267
-0.0454978
-0.059819
-0.0442308
-0.0437104
-0.0732127
-0.0927149
-0.0922398
-0.09181
-0.0914253
-0.0860181
-0.0755656
-0.0651584
-0.0548416
-0.0895023
-0.14914
-0.0387783
0.141584
0.421923
0.72724
1.08758
1.45294
1.9383
2.44367
2.15896
1.80919
0.90948
-0.000180995
-0.364932
-0.714729
-0.67948
-0.634208
-0.533914
-0.43362
-0.343371
-0.268145
-0.227896
-0.192624
-0.177308
-0.161946
-0.146629
-0.131335
-0.14095
-0.150543
-0.140158
-0.129774
-0.129367
-0.128982
-0.11362
-0.108258
-0.102896
-0.0975113
-0.102081
-0.106606
-0.111063
-0.110656
-0.100294
-0.0948869
-0.0944344
-0.0940498
-0.093733
-0.093371
-0.0879638
-0.0825792
-0.0772172
-0.0669005
-0.056629
-0.0512896
-0.0508824
-0.0555204
-0.0502036
-0.0398869
-0.0295701
-0.0242081
-0.0188009
-0.00848416
0.00180995
0.0171493
0.0325113
0.0378507
0.0481448
0.0683937
0.0836425
0.0938914
0.104253
0.114615
0.129955
0.145249
0.155588
0.156018
0.161471
0.171923
0.177376
0.182851
0.188258
0.188552
0.183869
0.174231
0.159706
0.145271
0.120769
0.0912443
0.0716063
0.0568778
0.0269457
-0.0030543
-0.013009
-0.0229186
-0.0426471
-0.0623303
-0.077172
-0.0871041
-0.0920815
-0.0970588
-0.0918778
-0.0866516
-0.0965385
-0.106471
-0.101357
-0.0961765
-0.105928
-0.115656
-0.115385
-0.115091
-0.114751
-0.114638
-0.119864
-0.124412
-0.117986
-0.110701
-0.107557
-0.103914
-0.099819
-0.0950452
-0.0847058
-0.07819
-0.0849772
-0.0902487
-0.0879184
-0.0879637
-0.0861537
-0.0821945
-0.0868777
-0.0862443
-0.0753845
-0.0694796
-0.0685972
-0.0679411
-0.0724208
-0.0770362
-0.071742
-0.0664932
-0.0762217
-0.0760181
-0.0758823
-0.080724
-0.085543
-0.080362
-0.075181
-0.0749547
-0.0747285
-0.0795023
-0.084276
-0.0940724
-0.103891
-0.0937557
-0.0836425
-0.0934842
-0.103326
-0.09319
-0.0830317
-0.0928507
-0.102715
-0.0976018
-0.0924887
-0.0873756
-0.0822398
-0.0870814
-0.0918778
-0.0916516
-0.0915158
-0.0864253
-0.0812443
-0.0859955
-0.0907919
-0.0856109
-0.0803846
-0.0801357
-0.0798869
-0.079638
-0.0744118
-0.0641855
-0.063914
-0.0585973
-0.0782579
-0.0779638
-0.0777375
-0.0774887
-0.0771946
-0.0769231
-0.0767195
-0.0765385
-0.0613575
-0.0461765
-0.0309955
-0.0158824
-0.0108597
-0.00588235
-0.000950232
0.00898189
0.0388688
0.0586878
0.0734163
0.0831674
0.0979638
0.0926923
0.067353
0.0421041
0.0119005
0.00671946
0.0215158
0.021267
0.00601811
-0.00918552
-0.0293665
-0.0394796
-0.0445249
-0.0546154
-0.0647511
-0.0797964
-0.0947964
-0.0948642
-0.085
-0.0801131
-0.0802036
-0.0653168
-0.0504525
-0.0905882
-0.125724
-0.0358597
0.0790271
0.328959
0.593914
0.928846
1.30876
1.86871
2.24869
2.1186
1.73848
0.793439
0.0334163
-0.406606
-0.661629
-0.631697
-0.581765
-0.501787
-0.421787
-0.331787
-0.26681
-0.221878
-0.186946
-0.161968
-0.151968
-0.147014
-0.142059
-0.137104
-0.132149
-0.132195
-0.132262
-0.127353
-0.122398
-0.117398
-0.112421
-0.112466
-0.112557
-0.10767
-0.102692
-0.102647
-0.0976697
-0.0927602
-0.0977828
-0.102738
-0.0927376
-0.0828054
-0.0778959
-0.0729864
-0.0680543
-0.0630769
-0.0680769
-0.0730769
-0.0580995
-0.0431448
-0.0531222
-0.0580995
-0.0431222
-0.0331448
-0.0331222
-0.0280995
-0.0130995
0.00187784
0.0118326
0.02181
0.0318326
0.0368779
0.0419684
0.0619457
0.0869005
0.0969005
0.101946
0.116946
0.1319
0.141878
0.151878
0.156923
0.161968
0.181968
0.201968
0.206991
0.207036
0.192127
0.18724
0.177398
0.167511
0.142557
0.117534
0.102489
0.0874887
0.0574887
0.0374887
0.0124661
-0.00257917
-0.00760181
-0.0176018
-0.0327149
-0.042647
-0.0525565
-0.0624887
-0.0624208
-0.0623529
-0.0772851
-0.0822398
-0.0772172
-0.0721946
-0.0771267
-0.0820362
-0.0769683
-0.0719231
-0.0768552
-0.0818778
-0.0769909
-0.0766516
-0.0861765
-0.0905882
-0.085
-0.0792987
-0.0837331
-0.0829186
-0.0721041
-0.0681674
-0.0740045
-0.0750226
-0.0713348
-0.0669683
-0.0625565
-0.0623982
-0.0620588
-0.0616742
-0.0612896
-0.055905
-0.0504751
-0.0550679
-0.0597738
-0.0596606
-0.0595475
-0.059457
-0.0594118
-0.0643891
-0.0693439
-0.0592986
-0.049276
-0.0592534
-0.0692082
-0.0691403
-0.069095
-0.069095
-0.0740498
-0.0839367
-0.0888462
-0.0838009
-0.0787557
-0.0837104
-0.0886652
-0.0886199
-0.0835747
-0.0735294
-0.0684842
-0.0684389
-0.073371
-0.0832805
-0.0882353
-0.0832353
-0.07819
-0.0880995
-0.0830769
-0.0780995
-0.0830769
-0.0880316
-0.0829864
-0.0779412
-0.0728733
-0.0677828
-0.0676923
-0.0676018
-0.0725113
-0.0774434
-0.0723982
-0.067285
-0.077104
-0.0869683
-0.0769004
-0.0668099
-0.0716968
-0.0765611
-0.0714027
-0.056267
-0.0311538
-0.0159728
-0.015724
-0.0154751
-0.0202489
-0.0151131
0.00497739
0.0350679
0.0651584
0.0901584
0.110113
0.0951358
0.0702036
0.0452036
0.020181
0.0201131
0.0300453
0.025
0.035
-0.0199547
-0.0449095
-0.0499321
-0.0549773
-0.0649547
-0.0749095
-0.0849547
-0.0950452
-0.0950905
-0.0950905
-0.0951131
-0.0901583
-0.0702036
-0.0602489
-0.0803167
-0.0953846
-0.105452
-0.0204977
0.204434
0.469367
0.779344
1.18932
1.69425
2.07414
2.35903
1.92894
1.02382
0.328688
-0.261448
-0.526561
-0.661652
-0.651742
-0.581833
-0.501968
-0.412149
-0.357285
-0.307376
-0.247489
-0.182624
-0.17276
-0.162896
-0.148032
-0.138167
-0.138326
-0.138507
-0.133643
-0.12871
-0.128778
-0.128891
-0.11905
-0.109231
-0.119389
-0.129548
-0.119751
-0.109977
-0.105181
-0.100385
-0.105633
-0.110928
-0.101244
-0.0915158
-0.0867195
-0.0818552
-0.0819457
-0.0820815
-0.0772851
-0.0725113
-0.067715
-0.062896
-0.0581222
-0.0533484
-0.0485747
-0.0438462
-0.0441629
-0.0395023
-0.0298643
-0.0202037
-0.010543
-0.000927635
0.00866512
0.0182126
0.0277149
0.0322172
0.0416289
0.0608371
0.0799095
0.0889819
0.0980995
0.10224
0.106425
0.115701
0.125068
0.12957
0.134185
0.138846
0.143643
0.148552
0.153529
0.143665
0.133937
0.129344
0.114955
0.0857466
0.0614253
0.0469457
0.0323076
0.0175113
0.00271488
-0.00703625
-0.02681
-0.0514933
-0.0612218
-0.0562218
-0.062172
-0.0792761
-0.0878734
-0.0881448
-0.0902942
-0.104457
-0.120747
-0.131312
-0.138597
-0.137466
-0.132805
-0.131199
-0.133733
-0.126267
-0.129253
-0.132195
-0.134434
-0.13586
-0.126267
-0.115023
-0.0966516
-0.0767195
-0.0656335
-0.0565158
-0.0465158
-0.0396833
-0.0405204
-0.0425566
-0.0452489
-0.047896
-0.0402263
-0.0321946
-0.0387557
-0.0450905
-0.0462218
-0.0471041
-0.047715
-0.0482806
-0.048801
-0.0492987
-0.0497964
-0.0502942
-0.0507919
-0.056267
-0.0667195
-0.0671946
-0.0576924
-0.0531222
-0.0585068
-0.063982
-0.0645249
-0.0650453
-0.0655656
-0.0611086
-0.0566516
-0.0522398
-0.0478733
-0.0534842
-0.0590724
-0.0696154
-0.080181
-0.0758371
-0.0715159
-0.072172
-0.0728733
-0.0736426
-0.0744118
-0.070181
-0.0659955
-0.0618326
-0.0577376
-0.048733
-0.0397059
-0.0406335
-0.0364932
-0.0272851
-0.0230769
-0.0188688
-0.0146154
-0.0103168
0.0140498
0.0485068
0.0681448
0.0779412
0.0778733
0.0679186
0.0530317
0.0382579
0.0336425
0.0291629
0.0197737
0.0104525
-0.0188235
-0.0480317
-0.057172
-0.071267
-0.0703846
-0.0695249
-0.0886652
-0.107851
-0.0971493
-0.0865611
-0.076086
-0.0656787
-0.0652941
-0.0649548
-0.064638
-0.0744118
-0.119344
-0.0843439
0.120724
0.370724
0.690611
1.0505
1.45543
1.89036
2.36025
2.20009
1.47491
0.724706
-0.0354978
-0.455656
-0.665792
-0.681018
-0.59129
-0.516539
-0.446765
-0.362059
-0.277421
-0.232738
-0.198009
-0.163258
-0.133484
-0.12871
-0.123937
-0.11914
-0.119299
-0.119412
-0.109525
-0.109683
-0.109819
-0.109842
-0.109796
-0.104796
-0.0998417
-0.0948869
-0.0899321
-0.0899774
-0.0900453
-0.0801584
-0.0702715
-0.0704073
-0.0704525
-0.0704978
-0.070543
-0.0656109
-0.0606788
-0.0657014
-0.065724
-0.0557919
-0.0510181
-0.0463349
-0.0366742
-0.0270362
-0.0224208
-0.0178507
-0.0133258
-0.00884617
-0.00445702
-0.0101584
-0.000995485
0.0180769
0.0222851
0.0216063
0.0360181
0.0554977
0.0600226
0.0645701
0.0791176
0.0887557
0.108552
0.128416
0.128348
0.128394
0.123507
0.118665
0.128891
0.139163
0.13948
0.139842
0.130204
0.120633
0.101176
0.0867421
0.0673077
0.0530543
0.0438914
0.0240271
-0.00165159
-0.0236199
-0.0419457
-0.0569457
-0.0687783
-0.0881448
-0.109072
-0.12362
-0.135995
-0.144299
-0.149367
-0.15276
-0.155249
-0.152896
-0.140769
-0.138959
-0.147443
-0.151244
-0.155317
-0.154615
-0.14414
-0.138982
-0.148733
-0.137602
-0.125362
-0.126652
-0.126312
-0.114186
-0.100136
-0.0840045
-0.0686199
-0.0565158
-0.0477828
-0.0524434
-0.0590271
-0.0466289
-0.0342986
-0.0464932
-0.0584163
-0.0500905
-0.0413575
-0.0472172
-0.0529186
-0.0485068
-0.0439819
-0.0443665
-0.0447512
-0.0451358
-0.0504525
-0.060724
-0.0610634
-0.0514254
-0.0567874
-0.072172
-0.0776245
-0.0731222
-0.0685973
-0.0690724
-0.0695928
-0.0701584
-0.0657692
-0.0564254
-0.0571041
-0.0528054
-0.0735521
-0.0743892
-0.0803394
-0.0863349
-0.0873077
-0.0883258
-0.084457
-0.0806109
-0.0517421
-0.0328959
-0.0290724
-0.0252263
-0.0163575
-0.00246607
0.0114253
0.0255204
0.0397285
0.0540498
0.0734389
0.0829864
0.0577376
0.0376018
0.0175566
0.00266968
-0.00701358
-0.0115611
-0.00599548
-0.020362
-0.0496606
-0.0588009
-0.0628054
-0.0767873
-0.0907466
-0.0947511
-0.0988009
-0.102738
-0.106606
-0.110475
-0.104344
-0.0932353
-0.0821493
-0.0661765
-0.0552941
-0.0945023
-0.123778
0.0169004
0.182511
0.463054
0.758484
1.11878
1.51405
2.04437
2.35962
2.04475
1.54984
0.649932
-0.0650226
-0.455045
-0.675091
-0.630158
-0.570249
-0.490317
-0.415362
-0.34543
-0.285566
-0.235769
-0.19595
-0.171063
-0.156154
-0.14629
-0.14138
-0.146425
-0.146493
-0.136584
-0.126674
-0.116765
-0.11181
-0.11181
-0.116765
-0.126674
-0.121584
-0.106493
-0.106335
-0.121109
-0.105905
-0.090724
-0.0955204
-0.100294
-0.0900679
-0.0798643
-0.0696833
-0.0595023
-0.0542986
-0.0490724
-0.0588462
-0.0686425
-0.0534842
-0.0383032
-0.0380091
-0.0327828
-0.0176697
-0.00755655
-0.00739818
-0.00226244
0.0128281
0.0279186
0.038009
0.0480996
0.0632127
0.0782806
0.0883258
0.108235
0.1331
0.142986
0.142828
0.157489
0.177036
0.181584
0.186109
0.195656
0.205294
0.210045
0.21491
0.214955
0.220113
0.180362
0.160701
0.141109
0.121652
0.0973982
0.0732805
0.0541176
0.0348869
0.015543
-0.00884615
-0.0332127
-0.0525792
-0.0519457
-0.0564027
-0.0709955
-0.0806335
-0.0853394
-0.0900905
-0.0848869
-0.0795701
-0.094276
-0.0999774
-0.101742
-0.104955
-0.114706
-0.126538
-0.130385
-0.136109
-0.146833
-0.153824
-0.157308
-0.161991
-0.168801
-0.158643
-0.136923
-0.133914
-0.139502
-0.1231
-0.0956109
-0.0797964
-0.076448
-0.0673756
-0.0566743
-0.0578281
-0.0600227
-0.0570136
-0.0537104
-0.06
-0.0659502
-0.056629
-0.0470588
-0.0522624
-0.0572851
-0.0572172
-0.0571041
-0.0569457
-0.0567873
-0.0566742
-0.056629
-0.0516063
-0.0464932
-0.0512896
-0.0560633
-0.0608371
-0.0656561
-0.070543
-0.0754072
-0.0752036
-0.075
-0.0798642
-0.0847511
-0.0796154
-0.0745022
-0.0794344
-0.0794118
-0.0694118
-0.0643439
-0.0692081
-0.0740724
-0.0739593
-0.0739593
-0.0740498
-0.079095
-0.0941176
-0.0842308
-0.0743891
-0.0795475
-0.0847285
-0.0749774
-0.0652941
-0.0656335
-0.0659276
-0.0611765
-0.0564027
-0.0466063
-0.0368099
-0.0270362
-0.0171946
-0.0271946
-0.0221719
0.0178281
0.0429638
0.0482579
0.0586426
0.0841177
0.0847512
0.0655656
0.0465159
0.0176018
0.00880092
0.00511314
0.00128961
0.00244346
-0.0113801
-0.0352036
-0.0541403
-0.06819
-0.0723077
-0.0664932
-0.0707692
-0.0851584
-0.0896606
-0.0842534
-0.0788461
-0.0784389
-0.0780543
-0.0676923
-0.0723756
-0.0771041
-0.106787
-0.106425
0.108869
0.33914
0.654412
0.999683
1.46991
1.92509
2.35527
2.36545
1.50063
0.695814
-0.0040045
-0.473869
-0.628801
-0.67871
-0.603552
-0.518416
-0.428348
-0.353281
-0.298167
-0.248009
-0.202851
-0.172715
-0.152579
-0.142421
-0.14224
-0.147014
-0.156742
-0.156516
-0.146335
-0.141041
-0.140679
-0.140362
-0.135091
-0.129796
-0.12948
-0.124186
-0.118914
-0.103665
-0.0884389
-0.0981674
-0.107828
-0.107466
-0.107127
-0.101855
-0.0966063
-0.0963348
-0.096086
-0.0958824
-0.0956787
-0.0754525
-0.0652489
-0.0650453
-0.0598642
-0.0397511
-0.0246154
-0.0294118
-0.0341629
-0.028914
-0.0187104
-0.00352939
0.00667423
0.0119005
0.0220815
0.042172
0.0573077
0.0724887
0.0876471
0.102783
0.122919
0.143032
0.148077
0.148077
0.153077
0.163077
0.178122
0.193167
0.198167
0.1881
0.192873
0.197579
0.182376
0.16733
0.152443
0.13767
0.113054
0.0834616
0.0588009
0.0341177
0.00936654
-0.0103393
-0.0199774
-0.0345701
-0.0590724
-0.0786651
-0.0783936
-0.0781221
-0.082828
-0.0875792
-0.0873303
-0.0871493
-0.0870814
-0.0870588
-0.0870362
-0.0919683
-0.101855
-0.106629
-0.101561
-0.0973982
-0.104321
-0.11276
-0.117738
-0.123552
-0.130271
-0.137624
-0.13767
-0.132353
-0.12181
-0.106176
-0.0936877
-0.0840723
-0.0778959
-0.0701357
-0.0648189
-0.0655203
-0.0667873
-0.0680769
-0.0692081
-0.0651357
-0.0608371
-0.0663801
-0.0717647
-0.0620136
-0.0521041
-0.0571493
-0.0620588
-0.0670136
-0.0719909
-0.0670135
-0.0620588
-0.0770814
-0.0821041
-0.0771493
-0.0721719
-0.0771493
-0.0821267
-0.0771267
-0.0721493
-0.0671946
-0.0621493
-0.0670136
-0.0769457
-0.0869457
-0.0869683
-0.0770136
-0.0770136
-0.086991
-0.0870362
-0.0771267
-0.0772172
-0.0873303
-0.0873982
-0.0824434
-0.0725113
-0.0626018
-0.0676471
-0.0726471
-0.0776697
-0.0827602
-0.0778959
-0.073009
-0.0780317
-0.0831221
-0.0783484
-0.073552
-0.0736651
-0.0738009
-0.0739592
-0.0741176
-0.064276
-0.0493665
-0.0343891
-0.0244118
-0.019457
-0.0145249
-0.0145927
-0.00457012
0.015543
0.040724
0.065905
0.0861538
0.106493
0.0968778
0.0672851
0.0526697
0.0430769
0.0384842
0.0338461
0.0191629
0.004457
-0.0152715
-0.0350453
-0.0498417
-0.0696833
-0.0646154
-0.0596154
-0.0795928
-0.0995475
-0.0945249
-0.0895475
-0.0796154
-0.0697059
-0.0647738
-0.059819
-0.0648416
-0.0748642
-0.0999321
-0.055
0.140023
0.375023
0.679955
1.01989
1.41984
1.84973
2.30455
2.13937
1.42421
0.72405
0.0288914
-0.371199
-0.601244
-0.646335
-0.591471
-0.521561
-0.451629
-0.376765
-0.296946
-0.247104
-0.20224
-0.177376
-0.157511
-0.14267
-0.127851
-0.132986
-0.123077
-0.143167
-0.133281
-0.133462
-0.133688
-0.128869
-0.124005
-0.119208
-0.114434
-0.119638
-0.124819
-0.120045
-0.115317
-0.105566
-0.0957918
-0.100995
-0.106154
-0.101312
-0.0965158
-0.0917647
-0.0870136
-0.0922172
-0.0924434
-0.0777376
-0.068009
-0.0682127
-0.0633937
-0.0536199
-0.0489366
-0.0442986
-0.0345701
-0.0247511
-0.0199321
-0.0201131
-0.010362
0.00432128
0.00904978
0.00380091
0.0284842
0.0631222
0.0677602
0.0673529
0.0868552
0.106312
0.120769
0.135226
0.139706
0.144163
0.148597
0.152964
0.162195
0.171425
0.165633
0.159977
0.149548
0.139321
0.129299
0.114344
0.0894344
0.0696154
0.0597964
0.0399548
0.0151131
-0.00472851
-0.0195701
-0.039457
-0.0593891
-0.0693439
-0.0743213
-0.0794344
-0.0847059
-0.0899774
-0.0952489
-0.100633
-0.101041
-0.0961991
-0.0864932
-0.0824208
-0.0893213
-0.0975566
-0.107262
-0.118597
-0.127036
-0.142986
-0.168394
-0.166018
-0.159344
-0.162443
-0.161855
-0.137919
-0.111878
-0.0990045
-0.0871493
-0.0738009
-0.0640271
-0.0728054
-0.0836425
-0.0757466
-0.0681448
-0.0754072
-0.0774208
-0.0641855
-0.0556334
-0.0617421
-0.0676244
-0.0633031
-0.058914
-0.0594796
-0.06
-0.0604751
-0.0609276
-0.0662896
-0.0668099
-0.0573529
-0.0528733
-0.058371
-0.0638914
-0.0644344
-0.0649321
-0.0653846
-0.0659276
-0.0615158
-0.0570814
-0.0576471
-0.0582127
-0.0587557
-0.0643213
-0.0699095
-0.0704977
-0.071086
-0.0716516
-0.0722172
-0.0678507
-0.0635068
-0.0691177
-0.0747285
-0.0803846
-0.0810634
-0.0617421
-0.0474208
-0.0580769
-0.0687783
-0.0744796
-0.0802263
-0.0710407
-0.0618326
-0.0675792
-0.0683258
-0.0591177
-0.0548416
-0.0504525
-0.0360634
-0.0166968
-0.0073077
-0.00789594
-0.00839368
-0.00380091
0.0158371
0.0355204
0.0602715
0.0951357
0.100158
0.105317
0.0854977
0.055724
0.0359955
0.0162896
0.0216063
0.0319004
0.00210406
-0.0277602
-0.0376471
-0.047534
-0.0524435
-0.0574435
-0.0625566
-0.0677149
-0.0828733
-0.0980769
-0.0833484
-0.0686652
-0.0639819
-0.0593213
-0.0547059
-0.0701358
-0.120588
-0.0859955
0.0636652
0.288371
0.588077
0.917715
1.27229
1.72686
2.25645
2.181
1.76045
1.04493
0.194434
-0.281086
-0.621652
-0.657217
-0.60776
-0.548258
-0.48871
-0.39914
-0.309548
-0.255023
-0.205566
-0.186041
-0.161448
-0.1469
-0.132376
-0.12776
-0.123077
-0.123394
-0.123733
-0.114095
-0.104457
-0.0997964
-0.0951131
-0.105407
-0.115679
-0.100973
-0.086267
-0.0914706
-0.0966968
-0.086991
-0.0772624
-0.0824887
-0.0877376
-0.073009
-0.0682579
-0.0684615
-0.0636878
-0.0539593
-0.0491629
-0.0492987
-0.0495023
-0.0447738
-0.04
-0.0402036
-0.0354751
-0.0257918
-0.0211086
-0.016448
-0.00687782
0.00262444
0.0120815
0.0214932
0.0259276
0.0253167
0.0445475
0.0536425
0.0676471
0.0816063
0.0856109
0.0897511
0.0940045
0.0983484
0.107805
0.117308
0.12181
0.126425
0.141222
0.156176
0.151041
0.146131
0.141244
0.136516
0.126946
0.107511
0.0832579
0.0639819
0.0546833
0.0402715
0.0207014
0.00599547
-0.00880091
-0.0183937
-0.0230317
-0.028552
-0.0352036
-0.0582805
-0.0828959
-0.0891855
-0.0874208
-0.107919
-0.138891
-0.148665
-0.145656
-0.143462
-0.148439
-0.146493
-0.138914
-0.131403
-0.124231
-0.127647
-0.131267
-0.13457
-0.137149
-0.123665
-0.108801
-0.107421
-0.10405
-0.0883484
-0.0730091
-0.0595475
-0.0493213
-0.0479638
-0.0438009
-0.0312217
-0.0238236
-0.0362217
-0.0483258
-0.0501358
-0.0515837
-0.0476697
-0.0434615
-0.0489819
-0.0544344
-0.0497964
-0.0451131
-0.0503846
-0.0556561
-0.0609276
-0.0612443
-0.0516063
-0.0469005
-0.0521267
-0.0573529
-0.0625792
-0.0678733
-0.0682353
-0.0685294
-0.0787557
-0.0690272
-0.0593665
-0.0697059
-0.0800453
-0.0754525
-0.0709729
-0.0765158
-0.0820588
-0.0726244
-0.06319
-0.078733
-0.0943665
-0.0851131
-0.0758824
-0.0866742
-0.0925339
-0.0784842
-0.0694118
-0.0652941
-0.0562443
-0.0422624
-0.0332579
-0.0292308
-0.020181
-0.00608596
0.0181222
0.0423982
0.06181
0.0763575
0.0811086
0.0810407
0.0610634
0.0312217
0.0115611
-0.00298642
-0.00742081
-0.00178733
-0.0111086
-0.030362
-0.0544796
-0.0334615
-0.0823982
-0.0813122
-0.0952715
-0.109253
-0.113235
-0.117285
-0.106471
-0.0957692
-0.0900905
-0.084457
-0.073914
-0.0734615
-0.113122
-0.0928054
0.0724434
0.292805
0.598145
0.928371
1.29348
1.71862
2.21382
2.31394
2.03391
1.40389
0.493914
-0.116063
-0.536086
-0.671154
-0.651244
-0.591312
-0.511357
-0.43138
-0.35138
-0.286448
-0.221584
-0.196606
-0.176561
-0.161561
-0.146606
-0.141606
-0.146584
-0.146584
-0.141584
-0.131584
-0.121538
-0.11638
-0.111154
-0.11595
-0.120769
-0.110611
-0.100452
-0.110226
-0.119955
-0.114729
-0.109548
-0.104321
-0.0990724
-0.0938688
-0.0887104
-0.0785973
-0.0684615
-0.0732579
-0.0780091
-0.0727602
-0.0675792
-0.0624661
-0.0573303
-0.0571493
-0.056991
-0.0519005
-0.0417647
-0.0315837
-0.0214253
-0.0112896
0.00882352
0.028914
0.0340045
0.039095
0.0442308
0.0494118
0.0745475
0.099638
0.104751
0.114842
0.134796
0.154661
0.154547
0.154457
0.174389
0.194276
0.199095
0.203891
0.208665
0.208394
0.1881
0.172964
0.163032
0.143348
0.113914
0.0894796
0.0750226
0.0504977
0.0158597
-0.00375567
-0.0183258
-0.0228959
-0.0274208
-0.036991
-0.051629
-0.0662896
-0.0807919
-0.090543
-0.0853168
-0.0851584
-0.0950905
-0.100113
-0.0952036
-0.0902263
-0.0951131
-0.0997738
-0.0997964
-0.0957014
-0.0878281
-0.0965837
-0.091991
-0.128575
-0.136222
-0.139661
-0.139661
-0.144434
-0.143824
-0.122557
-0.0995475
-0.0870136
-0.0775339
-0.0675792
-0.0607919
-0.0513348
-0.0427376
-0.0438235
-0.0453394
-0.0566968
-0.0677602
-0.0585294
-0.0489819
-0.0641177
-0.0691629
-0.0641403
-0.0590498
-0.0638914
-0.0637104
-0.0535521
-0.0484616
-0.0484163
-0.0533032
-0.0631222
-0.0679186
-0.0726923
-0.0775113
-0.0723756
-0.072172
-0.0819005
-0.0866968
-0.0815611
-0.0764027
-0.0812443
-0.0811086
-0.0759955
-0.070905
-0.0658145
-0.0706561
-0.0754299
-0.0802263
-0.0850905
-0.075
-0.0649095
-0.0747738
-0.084638
-0.0795701
-0.0745249
-0.0744796
-0.0744797
-0.0795023
-0.0845475
-0.0746154
-0.064638
-0.0696154
-0.0745928
-0.0745701
-0.0746154
-0.0797285
-0.0847738
-0.0797511
-0.0647738
-0.044819
-0.0297964
-0.0197059
-0.0146606
-0.0146833
0.00531673
0.0353846
0.0505656
0.0608823
0.0813122
0.101833
0.0923529
0.0729185
0.038552
-0.000814497
0.00477374
0.010362
0.00599547
0.0015837
-0.0229412
-0.047534
-0.0521946
-0.0568326
-0.0564254
-0.0610181
-0.0806335
-0.0952941
-0.0900453
-0.084819
-0.0844797
-0.0791855
-0.0639819
-0.0537557
-0.0584616
-0.0781901
-0.122986
-0.0378054
0.167376
0.437579
0.757828
1.1431
1.56846
2.02364
2.50378
2.07398
1.28425
0.519457
-0.235407
-0.520226
-0.695
-0.649796
-0.559638
-0.469502
-0.374367
-0.319163
-0.368891
-0.21362
-0.168348
-0.153122
-0.137941
-0.142715
-0.147443
-0.14224
-0.137059
-0.136855
-0.136629
-0.136425
-0.136222
-0.120995
-0.105769
-0.110543
-0.115271
-0.115023
-0.114796
-0.109593
-0.104389
-0.10914
-0.113891
-0.108688
-0.103507
-0.103303
-0.0980769
-0.0878733
-0.0777149
-0.0675792
-0.0623982
-0.0671719
-0.0719457
-0.0717194
-0.0615385
-0.0464027
-0.0411991
-0.0459276
-0.040724
-0.0255882
-0.0204072
-0.015181
0.00502264
0.0202036
0.0353394
0.0504299
0.0605656
0.0707693
0.0759955
0.0811991
0.101357
0.121516
0.131697
0.141833
0.156923
0.172081
0.177376
0.182738
0.193122
0.208552
0.224005
0.229525
0.210158
0.185792
0.166403
0.147036
0.127692
0.103326
0.0788688
0.0591403
0.0391177
0.0140046
-0.0111991
-0.0264932
-0.0368325
-0.0422172
-0.0426244
-0.0529185
-0.0681448
-0.0783484
-0.088552
-0.0938461
-0.0891403
-0.094276
-0.114321
-0.104344
-0.0943213
-0.104231
-0.11405
-0.103824
-0.0936652
-0.093733
-0.0934389
-0.0921946
-0.0897285
-0.0958597
-0.100294
-0.0828506
-0.0630995
-0.0608597
-0.0614253
-0.046448
-0.0361539
-0.0405656
-0.0479412
-0.0529185
-0.0551131
-0.0583484
-0.063733
-0.0759502
-0.0842986
-0.0849321
-0.0835746
-0.0812217
-0.0789592
-0.0768778
-0.0752262
-0.0739592
-0.0729864
-0.0722624
-0.0717873
-0.0714932
-0.0713348
-0.0662443
-0.0610633
-0.0607918
-0.0755203
-0.0802715
-0.0800678
-0.0798868
-0.0846606
-0.0894117
-0.0892307
-0.089095
-0.0889366
-0.0887556
-0.0885746
-0.0883936
-0.0782126
-0.068009
-0.0727602
-0.0774434
-0.0821493
-0.0869004
-0.0816742
-0.0764027
-0.0810633
-0.085724
-0.0804298
-0.0751583
-0.0798642
-0.0845475
-0.0792081
-0.0738009
-0.0683484
-0.0628506
-0.0623077
-0.0667194
-0.0760859
-0.0754751
-0.0648869
-0.064276
-0.0736199
-0.0679864
-0.0523529
-0.0516742
-0.0609955
-0.0603846
-0.0548416
-0.0593439
-0.0638461
-0.0583258
-0.0528054
-0.0373755
-0.022104
-0.00699092
0.00800909
0.00294123
0.00276024
0.0274209
0.051991
0.0765159
0.100973
0.115339
0.119706
0.104095
0.0835747
0.0531674
0.0328281
0.027534
0.0222625
0.0220136
0.0068326
-0.0232353
-0.0382805
-0.043371
-0.0483936
-0.0483484
-0.0583484
-0.0733937
-0.0784163
-0.0734163
-0.068371
-0.0732805
-0.0731674
-0.0630317
-0.0529638
-0.0429638
-0.0978959
-0.16776
0.0223303
0.217376
0.487489
0.77267
1.14283
1.54294
2.07803
2.39814
1.85833
1.25355
0.453778
-0.196018
-0.48086
-0.655724
-0.620543
-0.565385
-0.475249
-0.395136
-0.325045
-0.264955
-0.209864
-0.169774
-0.139683
-0.124615
-0.129548
-0.134412
-0.139231
-0.139163
-0.129163
-0.124118
-0.129027
-0.128959
-0.118914
-0.113869
-0.113824
-0.113756
-0.113688
-0.108665
-0.0986651
-0.0935973
-0.0934389
-0.103258
-0.1031
-0.098009
-0.0929638
-0.0928733
-0.0927375
-0.087647
-0.0826018
-0.0725113
-0.0623756
-0.0622851
-0.0622624
-0.0572624
-0.0522398
-0.0472172
-0.0420588
-0.0418778
-0.0417421
-0.0316742
-0.0215837
-0.00642532
0.00371043
0.0187783
0.0288688
0.0340272
0.0491855
0.0692987
0.0893892
0.10948
0.12457
0.134661
0.139751
0.139842
0.149977
0.165158
0.17043
0.165747
0.16595
0.176109
0.17638
0.166742
0.157172
0.152647
0.1381
0.123439
0.0985747
0.0735747
0.0484163
0.0231222
0.00776017
-0.00751133
-0.0275792
-0.0476923
-0.0579186
-0.0681901
-0.0734842
-0.0786878
-0.0787783
-0.0788461
-0.073914
-0.0690498
-0.0792082
-0.0892308
-0.0941629
-0.0991403
-0.0941177
-0.0890272
-0.0938688
-0.0990272
-0.0995702
-0.0992761
-0.103032
-0.105294
-0.0963349
-0.0813122
-0.0654072
-0.0533258
-0.0511764
-0.0529638
-0.0595248
-0.0671493
-0.0683031
-0.075
-0.0945927
-0.0949321
-0.0923529
-0.0873529
-0.08138
-0.0799773
-0.0785294
-0.0772172
-0.0760633
-0.0701357
-0.0643891
-0.0739366
-0.0836877
-0.0736425
-0.0636425
-0.0736651
-0.0837104
-0.0838235
-0.083914
-0.0839366
-0.0839819
-0.0890724
-0.0892081
-0.0793891
-0.0745475
-0.0796606
-0.0897285
-0.0997737
-0.0999321
-0.0901584
-0.0853167
-0.0904073
-0.095543
-0.090724
-0.0858824
-0.0910407
-0.0962217
-0.0914028
-0.0815611
-0.0716968
-0.0718326
-0.0669683
-0.0920588
-0.0971267
-0.0922398
-0.0873756
-0.0924887
-0.0976018
-0.0926923
-0.0877602
-0.0877602
-0.0877149
-0.0876697
-0.0876697
-0.0826923
-0.0776471
-0.0825113
-0.0873982
-0.0822851
-0.077172
-0.0720814
-0.0669683
-0.07181
-0.0666968
-0.0466742
-0.0366742
-0.0366516
-0.031629
-0.0216516
-0.00678734
0.0129864
0.0427376
0.0724887
0.0821946
0.0868326
0.0963801
0.10586
0.0803846
0.0349095
0.0294118
0.023914
0.0185068
0.0180995
-0.00730769
-0.0326923
-0.0480317
-0.0633484
-0.0536425
-0.0438461
-0.0690045
-0.0942081
-0.0844796
-0.0747511
-0.0799321
-0.0850905
-0.0703167
-0.0555882
-0.0508371
-0.0660633
-0.126312
-0.111629
0.0230317
0.22776
0.502557
0.807398
1.13724
1.58701
2.12672
2.25645
2.09124
1.45104
0.545769
-0.0444796
-0.489706
-0.624932
-0.650158
-0.600407
-0.515679
-0.440928
-0.361154
-0.306357
-0.246538
-0.206765
-0.167036
-0.157262
-0.142443
-0.13267
-0.122941
-0.12819
-0.133416
-0.123643
-0.113869
-0.10414
-0.0944344
-0.0946606
-0.0948416
-0.100045
-0.105294
-0.0905882
-0.0758597
-0.0860181
-0.0961991
-0.086448
-0.0766968
-0.0769005
-0.0721041
-0.057353
-0.0476245
-0.0528733
-0.058077
-0.0532353
-0.0483711
-0.0534616
-0.0536878
-0.0439593
-0.0391629
-0.0342987
-0.0245023
-0.0147738
-0.01
-0.010181
-0.0103847
-0.0056109
0.0191629
0.043914
0.0486425
0.0483484
0.0679638
0.0775113
0.0820588
0.0866063
0.0911991
0.0957692
0.110226
0.124593
0.128937
0.133235
0.132443
0.131652
0.145905
0.160362
0.149774
0.134683
0.119774
0.109887
0.105
0.0953394
0.070905
0.0563801
0.0416742
0.0219005
-0.00791854
-0.0176471
-0.0222851
-0.0320814
-0.0420362
-0.0470588
-0.0471493
-0.0621946
-0.0821946
-0.0823303
-0.0725113
-0.0773982
-0.0926018
-0.0937783
-0.0861991
-0.0849548
-0.0952262
-0.107172
-0.116312
-0.118077
-0.11871
-0.131154
-0.139118
-0.141968
-0.141652
-0.123597
-0.103484
-0.0961539
-0.0886652
-0.072353
-0.0592761
-0.0556109
-0.0548643
-0.0513575
-0.0485748
-0.0460182
-0.0432806
-0.0502037
-0.0567421
-0.0578733
-0.058801
-0.0595023
-0.0600227
-0.0603621
-0.0606788
-0.0609503
-0.0611765
-0.0663575
-0.0715838
-0.0718553
-0.0721267
-0.0673982
-0.0626019
-0.0677376
-0.0728733
-0.0730091
-0.0731901
-0.0734163
-0.0785747
-0.0936652
-0.0838236
-0.0740498
-0.0792534
-0.084457
-0.0797059
-0.0749774
-0.0752263
-0.0754525
-0.0757014
-0.0759729
-0.0812217
-0.0864706
-0.0817873
-0.0771267
-0.0874661
-0.0978959
-0.0884163
-0.078914
-0.0843892
-0.0899321
-0.0855656
-0.0812444
-0.0819457
-0.0775792
-0.0681448
-0.0586652
-0.0441855
-0.0347059
-0.0302489
-0.0257466
-0.0311991
-0.0216742
-0.00214934
0.0225113
0.0472851
0.0671041
0.0869909
0.0919457
0.0919909
0.0622398
0.0926697
0.0131674
0.00368777
0.00920813
0.0147511
-0.0246607
-0.064095
-0.0686199
-0.0731674
-0.0627376
-0.0573756
-0.0821493
-0.101968
-0.0918326
-0.0817421
-0.0817195
-0.0816064
-0.0814706
-0.0814027
-0.0764253
-0.091448
-0.146425
-0.0664254
0.143507
0.413462
0.723484
1.07351
1.44848
1.91837
2.43819
2.20308
1.63303
0.847986
-0.00705883
-0.402149
-0.677285
-0.682353
-0.632376
-0.537489
-0.44267
-0.367805
-0.297896
-0.243009
-0.193145
-0.168281
-0.143416
-0.133529
-0.123597
-0.133643
-0.143688
-0.133756
-0.123801
-0.123778
-0.123778
-0.118846
-0.113937
-0.114005
-0.11405
-0.109118
-0.104208
-0.0942986
-0.0843892
-0.089457
-0.0944796
-0.0945023
-0.0945928
-0.0897285
-0.0847964
-0.0847964
-0.0848643
-0.0800453
-0.0751584
-0.0702036
-0.0602715
-0.050362
-0.0404751
-0.0306109
-0.025724
-0.0258145
-0.025905
-0.0259955
-0.0211086
-0.0112443
-0.00633484
0.00361991
0.0285068
0.0533258
0.0581674
0.0630091
0.0827828
0.102443
0.112036
0.121629
0.131244
0.140905
0.135588
0.135181
0.154706
0.169253
0.163778
0.158235
0.167579
0.172127
0.156923
0.1469
0.142059
0.132262
0.117511
0.0978733
0.0683484
0.0438235
0.0195475
-0.000158373
-0.0149321
-0.0295475
-0.0440498
-0.0487557
-0.0536652
-0.0635973
-0.0735747
-0.0786199
-0.0786878
-0.0788462
-0.0739593
-0.0738235
-0.0690724
-0.0951358
-0.102308
-0.105701
-0.110407
-0.116448
-0.124502
-0.134932
-0.145679
-0.160814
-0.171312
-0.166312
-0.156991
-0.133348
-0.107014
-0.0987557
-0.0910407
-0.0862896
-0.0854751
-0.0788914
-0.0743439
-0.0812896
-0.0834389
-0.0705204
-0.0622172
-0.0685294
-0.0745475
-0.0702941
-0.0658145
-0.0611312
-0.0563349
-0.0564254
-0.0614706
-0.0714706
-0.0765158
-0.0716064
-0.0766516
-0.0916742
-0.0867421
-0.0718326
-0.0668778
-0.0719005
-0.0769683
-0.0770588
-0.0771493
-0.0772398
-0.0772851
-0.0772851
-0.0822851
-0.0873303
-0.0774434
-0.0675792
-0.0826697
-0.0977602
-0.0879186
-0.0780995
-0.0832579
-0.0884389
-0.0886425
-0.0888688
-0.0791176
-0.0693213
-0.0744796
-0.079638
-0.079819
-0.0800679
-0.0803846
-0.0807466
-0.0861312
-0.0915385
-0.0869683
-0.0823756
-0.0777376
-0.0681222
-0.058552
-0.0389819
-0.0193891
-0.0147285
-0.02
-0.0252489
-0.0204751
0.00927602
0.0390724
0.0440498
0.0541855
0.0743891
0.0946833
0.0601358
0.025724
0.0113575
-0.00298643
0.0076923
0.0184389
-0.000769234
-0.0250226
-0.0543665
-0.0788009
-0.0633258
-0.0578959
-0.0874661
-0.107127
-0.101878
-0.0966063
-0.0963122
-0.091086
-0.0659276
-0.0558145
-0.060724
-0.0906109
-0.135452
-0.0402489
0.140023
0.385158
0.655249
0.945362
1.2455
1.67559
2.14563
2.29572
2.37086
1.61591
0.710882
0.105837
-0.474208
-0.599186
-0.504095
-0.619005
-0.533914
-0.448869
-0.368869
-0.313824
-0.258756
-0.218756
-0.183778
-0.17371
-0.163575
-0.153462
-0.143371
-0.138281
-0.133167
-0.133054
-0.132828
-0.132602
-0.132421
-0.132308
-0.132195
-0.132036
-0.126878
-0.116765
-0.111652
-0.116493
-0.116267
-0.106018
-0.10086
-0.0957692
-0.0906335
-0.0904525
-0.0902715
-0.0950905
-0.0899547
-0.0748643
-0.0696606
-0.0744118
-0.069276
-0.0542308
-0.0491176
-0.0489367
-0.0387783
-0.0286425
-0.0135294
0.00156109
0.00169684
0.00187783
0.00705883
0.0122398
0.0273982
0.0425339
0.0576923
0.0728507
0.0829412
0.0980317
0.118213
0.133371
0.143484
0.158575
0.178643
0.193778
0.188982
0.184186
0.189344
0.194389
0.194367
0.184389
0.164457
0.14448
0.12448
0.0995928
0.0748643
0.0501131
0.0252941
0.0104299
0.000520369
-0.0243439
-0.0491176
-0.0588688
-0.0686425
-0.0735068
-0.0784615
-0.0883484
-0.103167
-0.0980317
-0.0929412
-0.102828
-0.112692
-0.107557
-0.102466
-0.0973529
-0.0922172
-0.0971041
-0.101923
-0.111674
-0.121652
-0.116538
-0.111538
-0.116561
-0.121855
-0.112443
-0.103484
-0.114344
-0.12276
-0.103756
-0.0893439
-0.0756561
-0.0680996
-0.066991
-0.0665838
-0.0709729
-0.0762896
-0.0716063
-0.0668778
-0.0720815
-0.0722851
-0.0624208
-0.0574661
-0.0624208
-0.0673529
-0.0672624
-0.0671493
-0.0620136
-0.0618552
-0.0566742
-0.0764932
-0.0763122
-0.0711538
-0.0660181
-0.0708824
-0.0757692
-0.0807014
-0.0856335
-0.0804978
-0.0753168
-0.0851584
-0.0950453
-0.0799548
-0.0648643
-0.0747511
-0.0845928
-0.084457
-0.0843439
-0.079276
-0.0741855
-0.0890272
-0.0888688
-0.0787557
-0.0736425
-0.0784842
-0.0833032
-0.0831222
-0.0829638
-0.0778281
-0.0726471
-0.0724208
-0.0722172
-0.0770588
-0.0819683
-0.0769231
-0.0718778
-0.07681
-0.0767421
-0.0666742
-0.0716063
-0.0865159
-0.0763801
-0.0612444
-0.0461312
-0.0309955
-0.0258145
-0.0205882
-0.015362
-0.0101584
0.0100226
0.0302715
0.0506108
0.0709276
0.0861765
0.101425
0.0966742
0.0819231
0.0521493
0.0323529
0.0275339
0.0227376
0.0229864
0.0132127
-0.0115837
-0.0314027
-0.0412444
-0.0460407
-0.0457919
-0.0556335
-0.0755882
-0.0854751
-0.0852941
-0.085181
-0.0851358
-0.0700453
-0.0499095
-0.0447511
-0.0445701
-0.0894118
-0.149276
-0.00416291
0.155928
0.426041
0.701177
1.05127
1.41631
1.94638
2.37649
1.98661
1.52665
0.681697
-0.0632353
-0.4181
-0.677919
-0.647738
-0.597557
-0.507421
-0.42233
-0.347172
-0.282014
-0.2269
-0.186787
-0.166629
-0.151448
-0.14629
-0.141176
-0.136086
-0.130995
-0.130882
-0.130724
-0.130498
-0.130385
-0.125294
-0.120136
-0.119909
-0.114728
-0.10457
-0.0993665
-0.104163
-0.109005
-0.108869
-0.0988009
-0.0838009
-0.0787104
-0.0785294
-0.083371
-0.0782579
-0.07319
-0.0681221
-0.0679864
-0.0678054
-0.0626923
-0.0575792
-0.0524434
-0.0473077
-0.0471719
-0.0470588
-0.0319909
-0.0169231
-0.0118552
-0.00665158
-0.00142533
0.00875567
0.0288688
0.0439819
0.0591403
0.0693213
0.0844796
0.099638
0.109842
0.12
0.130045
0.145023
0.159977
0.17
0.180091
0.185204
0.180317
0.180385
0.19043
0.180498
0.160566
0.155588
0.150588
0.130566
0.110633
0.0857919
0.0659955
0.0461765
0.0263122
0.00640272
-0.0135294
-0.0334163
-0.0532353
-0.058009
-0.0628507
-0.0777376
-0.0926018
-0.0823982
-0.0722172
-0.0821041
-0.0919683
-0.0867873
-0.0816969
-0.0866968
-0.0916516
-0.0915385
-0.0913801
-0.0911765
-0.0909955
-0.0961312
-0.101629
-0.102534
-0.103575
-0.0999548
-0.0968326
-0.0940045
-0.0954525
-0.104434
-0.0964027
-0.0770588
-0.0686199
-0.0717647
-0.0758371
-0.0759276
-0.0761765
-0.0715158
-0.0667647
-0.0769683
-0.0721493
-0.067285
-0.0673755
-0.0674208
-0.0674887
-0.0675339
-0.0625565
-0.0575792
-0.0576244
-0.0576697
-0.0676923
-0.0776923
-0.0727149
-0.0677602
-0.0777375
-0.0877602
-0.0828507
-0.0829186
-0.0979412
-0.102964
-0.0880317
-0.0781674
-0.0733484
-0.0684842
-0.073552
-0.0785521
-0.0835068
-0.083552
-0.0736425
-0.0736878
-0.0836878
-0.088733
-0.0888235
-0.088914
-0.0840045
-0.079095
-0.0842081
-0.0843891
-0.0746154
-0.0747737
-0.0698643
-0.0949321
-0.1
-0.0900905
-0.0801584
-0.0851584
-0.090181
-0.0902262
-0.0902715
-0.0902941
-0.0902941
-0.0852941
-0.0753167
-0.050362
-0.030362
-0.0302941
-0.030181
-0.0300679
-0.0249321
-0.00981899
0.000339374
0.0155883
0.0358145
0.0659729
0.0911765
0.111425
0.106629
0.0817873
0.0568778
0.0319683
0.0221267
0.0273077
0.0274434
0.0175339
-0.00746605
-0.0425339
-0.0475113
-0.047466
-0.0575113
-0.072647
-0.0777375
-0.0827828
-0.0978733
-0.108009
-0.0881448
-0.0682805
-0.0634163
-0.0585294
-0.0635973
-0.0736651
-0.113778
-0.103914
0.120928
0.370747
0.670543
1.02032
1.48009
1.90986
2.27966
2.16448
1.32928
0.579072
-0.066086
-0.461199
-0.611312
-0.646493
-0.581719
-0.511923
-0.442081
-0.367262
-0.297534
-0.242783
-0.198009
-0.16819
-0.143326
-0.133484
-0.133665
-0.128801
-0.118891
-0.113959
-0.119027
-0.124186
-0.119389
-0.114525
-0.124615
-0.109774
-0.095
-0.0952036
-0.0954073
-0.0906561
-0.085905
-0.0761086
-0.0662896
-0.0664254
-0.0665159
-0.076629
-0.0867648
-0.0719458
-0.0571494
-0.0622625
-0.0673756
-0.057534
-0.0477376
-0.0429638
-0.0381901
-0.0333937
-0.0236199
-0.00891406
0.000837073
0.000678699
0.000520319
0.000361949
0.00499995
0.0145475
0.0191629
0.0238461
0.0434615
0.063009
0.0725113
0.0819004
0.0911312
0.100226
0.114231
0.128235
0.132398
0.131787
0.131357
0.140995
0.140633
0.140294
0.130045
0.119955
0.115068
0.110317
0.095724
0.081267
0.0719004
0.0625113
0.0530317
0.0335068
-0.00117648
-0.0257692
-0.0353394
-0.0449548
-0.0446607
-0.0495023
-0.0745023
-0.084276
-0.0789593
-0.0744797
-0.0759955
-0.0789819
-0.0835068
-0.0898416
-0.0931222
-0.098552
-0.114661
-0.133959
-0.150566
-0.153303
-0.14319
-0.136493
-0.133982
-0.130634
-0.121425
-0.111176
-0.0997059
-0.0865611
-0.0767647
-0.070543
-0.0650227
-0.0534163
-0.0452489
-0.05
-0.0565611
-0.0488462
-0.0413122
-0.0484616
-0.0552715
-0.0467874
-0.0380091
-0.0389593
-0.0397059
-0.0502715
-0.060724
-0.056086
-0.0514027
-0.0567195
-0.0620136
-0.0672625
-0.0675113
-0.0578055
-0.0581222
-0.0684163
-0.0736878
-0.0690046
-0.0642987
-0.0645702
-0.0648643
-0.0702036
-0.0755883
-0.0709955
-0.0663349
-0.0716064
-0.0769005
-0.0772172
-0.0776018
-0.0730769
-0.0685294
-0.0789593
-0.079457
-0.0800226
-0.0755883
-0.0711765
-0.07181
-0.0724661
-0.0631448
-0.0538235
-0.0644796
-0.0751131
-0.0757466
-0.0714253
-0.052172
-0.0379186
-0.0436199
-0.0493439
-0.0400905
-0.030724
-0.0212444
0.00330316
0.0379185
0.067647
0.0924887
0.102443
0.0925339
0.0627828
0.0231448
0.00855203
0.00907239
0.00970588
0.00542986
-0.0188688
-0.04819
-0.0574887
-0.0617647
-0.0661086
-0.0655204
-0.0649548
-0.0694118
-0.0839367
-0.0735521
-0.103281
-0.103122
-0.0930543
-0.0830091
-0.0778959
-0.0778054
-0.132873
-0.153009
0.0219004
0.226855
0.546787
0.881697
1.26658
1.68645
2.18133
2.35124
1.95613
1.36593
0.505633
-0.134638
-0.524842
-0.695045
-0.655272
-0.59552
-0.525769
-0.44595
-0.356063
-0.291199
-0.23638
-0.196584
-0.16681
-0.156991
-0.157127
-0.152308
-0.142534
-0.137647
-0.142692
-0.147783
-0.142919
-0.133009
-0.123054
-0.1131
-0.108145
-0.103258
-0.0984389
-0.0985747
-0.0986652
-0.0987557
-0.0988688
-0.0940498
-0.0892081
-0.0892534
-0.089276
-0.0893665
-0.0895023
-0.0795928
-0.0696833
-0.064819
-0.0549548
-0.0401131
-0.0302941
-0.0354525
-0.0405656
-0.0356787
-0.0308824
-0.0261538
-0.0164706
-0.00680996
0.00285068
0.0124434
0.0219909
0.0314706
0.0458597
0.0601358
0.0692986
0.0783937
0.0875566
0.0968552
0.101244
0.100679
0.110181
0.124751
0.129389
0.12914
0.138982
0.148891
0.143937
0.139072
0.134231
0.129502
0.114977
0.100656
0.0915158
0.0774435
0.0483032
0.0239819
0.0144344
-0.000203611
-0.0248869
-0.0443439
-0.0486199
-0.053733
-0.0647738
-0.0771493
-0.080905
-0.0864027
-0.0987783
-0.11362
-0.119955
-0.129683
-0.146991
-0.150317
-0.140339
-0.143507
-0.155611
-0.152986
-0.140679
-0.133982
-0.13776
-0.141131
-0.133891
-0.12543
-0.115611
-0.104186
-0.095905
-0.0853846
-0.074095
-0.0546154
-0.0378281
-0.0399095
-0.0448869
-0.0416742
-0.0392534
-0.0366742
-0.0338462
-0.0456788
-0.0571946
-0.0483937
-0.0392987
-0.0399774
-0.0403846
-0.0456561
-0.0508824
-0.0461086
-0.0413122
-0.0564706
-0.0616516
-0.0569005
-0.0521946
-0.0524887
-0.0527375
-0.0529412
-0.0531674
-0.0484389
-0.0436878
-0.048914
-0.0541403
-0.0593665
-0.059638
-0.0499548
-0.0552489
-0.070543
-0.075905
-0.0713348
-0.0668326
-0.0723982
-0.0679638
-0.058552
-0.0592081
-0.0599095
-0.0606109
-0.0612896
-0.066991
-0.0727828
-0.0586425
-0.0445023
-0.0353167
-0.0261086
-0.0219231
-0.0176923
-0.00837104
0.0060181
0.0304525
0.0600453
0.0847964
0.0996833
0.0947059
0.0748869
0.0452262
0.0256561
0.0111765
0.00187782
0.00776018
-0.0012896
-0.0252941
-0.0442082
-0.0630317
-0.0718552
-0.0656787
-0.0645475
-0.0734616
-0.0873982
-0.101357
-0.105362
-0.0994344
-0.0886199
-0.0778959
-0.0721946
-0.0615385
-0.110995
-0.155543
0.00486424
0.180226
0.465566
0.76586
1.14611
1.56133
2.10654
2.43174
2.06201
1.53729
0.627466
-0.102376
-0.502127
-0.726946
-0.661878
-0.591787
-0.511629
-0.426493
-0.341425
-0.271403
-0.22138
-0.186335
-0.156267
-0.146154
-0.146018
-0.145905
-0.140814
-0.135633
-0.140362
-0.140158
-0.130023
-0.124819
-0.119548
-0.114276
-0.119005
-0.108801
-0.0886425
-0.0883937
-0.0830769
-0.102738
-0.102376
-0.102059
-0.101787
-0.101471
-0.101109
-0.0908145
-0.080543
-0.0752489
-0.0699321
-0.0696154
-0.0693439
-0.0541403
-0.0389367
-0.038733
-0.0383937
-0.0380543
-0.0377602
-0.0275113
-0.0172398
-0.0169005
-0.0116063
0.00359729
0.0188009
0.0340498
0.0492986
0.0595023
0.0746606
0.0947738
0.114819
0.129819
0.134842
0.134887
0.149864
0.169751
0.174593
0.169412
0.174186
0.188937
0.188665
0.178439
0.173348
0.173416
0.153665
0.134072
0.114593
0.0952489
0.0709729
0.0466742
0.0323077
0.0129186
-0.0164706
-0.0408824
-0.0502715
-0.0596606
-0.069095
-0.0786199
-0.0832579
-0.0880091
-0.0828054
-0.0776018
-0.0874434
-0.0973077
-0.0971946
-0.0970588
-0.102059
-0.107986
-0.114932
-0.123213
-0.128032
-0.135204
-0.13948
-0.144548
-0.158235
-0.161968
-0.151018
-0.140475
-0.131244
-0.123801
-0.119706
-0.107624
-0.0882353
-0.0782805
-0.0869457
-0.0777149
-0.0697511
-0.0766968
-0.0834615
-0.0749547
-0.0661086
-0.061923
-0.0574434
-0.0577149
-0.0577828
-0.0626696
-0.0675339
-0.062466
-0.0574208
-0.0673077
-0.0772171
-0.0671945
-0.0571493
-0.0670362
-0.0769457
-0.0718778
-0.0667873
-0.0617194
-0.0616289
-0.0714706
-0.0762895
-0.0810633
-0.0859954
-0.0809954
-0.0759502
-0.0808597
-0.0858144
-0.0858144
-0.0857692
-0.0857013
-0.0856787
-0.0856787
-0.0757013
-0.0607692
-0.0608145
-0.0558145
-0.0808145
-0.0858597
-0.0809728
-0.0761086
-0.0812217
-0.0863801
-0.0816289
-0.0769004
-0.0821493
-0.0873982
-0.082647
-0.0778733
-0.0630995
-0.0432805
-0.028371
-0.0184389
-0.0234615
-0.0285068
-0.0185973
-0.00355202
0.0216516
0.0419231
0.0622172
0.0776019
0.0881448
0.0838009
0.0645023
0.0452489
0.031086
0.0269458
0.0278281
0.0136878
-0.00549769
-0.0197737
-0.0341176
-0.0484615
-0.0628506
-0.0673755
-0.0670135
-0.0766968
-0.0914253
-0.0911764
-0.0859502
-0.0707692
-0.0556334
-0.0554751
-0.0552714
-0.0650678
-0.0749095
-0.0847964
-0.0496606
0.16552
0.400656
0.700701
1.05072
1.52079
1.94086
2.27593
2.14597
1.33595
0.600928
-0.0340498
-0.433982
-0.598891
-0.638846
-0.563869
-0.493869
-0.423801
-0.353756
-0.288801
-0.233778
-0.188688
-0.15862
-0.138575
-0.128529
-0.118484
-0.113371
-0.11819
-0.128009
-0.137805
-0.132579
-0.117353
-0.112104
-0.121833
-0.111629
-0.101493
-0.106312
-0.111086
-0.100928
-0.0908371
-0.090724
-0.0905882
-0.0854299
-0.0802262
-0.085
-0.0897964
-0.0746606
-0.0595475
-0.0693439
-0.0791629
-0.0690498
-0.058914
-0.058733
-0.053552
-0.038371
-0.0282353
-0.0231448
-0.0130091
-0.00280543
0.00242083
0.00269232
0.0128054
0.0278733
0.0330317
0.0382579
0.0584389
0.0785747
0.088733
0.098914
0.11405
0.12914
0.139253
0.149389
0.15457
0.154842
0.170226
0.175656
0.186018
0.196312
0.181606
0.166923
0.157308
0.14776
0.133303
0.113846
0.0893439
0.0696607
0.0547285
0.0346154
0.00950228
-0.0157466
-0.0309276
-0.0410181
-0.0460407
-0.0560859
-0.0711538
-0.0813348
-0.0816063
-0.0817647
-0.0818099
-0.0818778
-0.0869909
-0.0921041
-0.0871719
-0.0820814
-0.0818552
-0.0866063
-0.0963348
-0.0961538
-0.0860633
-0.0910407
-0.105882
-0.0997511
-0.082466
-0.0786425
-0.083733
-0.0776697
-0.0659955
-0.0492534
-0.035
-0.0364706
-0.0430543
-0.0592307
-0.0745475
-0.0767873
-0.0761765
-0.082353
-0.0872172
-0.0760181
-0.0646606
-0.0682579
-0.071991
-0.0708824
-0.0699548
-0.0592534
-0.0487104
-0.0583258
-0.0680317
-0.0678733
-0.0727828
-0.0827602
-0.087715
-0.0876018
-0.0874661
-0.0823756
-0.0772398
-0.0770588
-0.0769231
-0.0718326
-0.0667421
-0.0666516
-0.0665385
-0.0664027
-0.0762443
-0.091086
-0.0909955
-0.0809276
-0.0807466
-0.0954977
-0.0853394
-0.0752489
-0.0851131
-0.0949547
-0.0948416
-0.0947511
-0.084638
-0.0744796
-0.0742534
-0.0739819
-0.0787104
-0.0834389
-0.07319
-0.0679185
-0.0825792
-0.0922851
-0.0870362
-0.0816742
-0.0811991
-0.0807692
-0.0753846
-0.07
-0.0696154
-0.0692534
-0.063914
-0.0635521
-0.0732127
-0.0728959
-0.0626245
-0.0522625
-0.0418326
-0.0315611
-0.0214254
-0.0162896
-0.0161539
-0.00115387
0.018733
0.0534841
0.0881448
0.107805
0.0924434
0.117036
0.101584
0.0661086
0.0306561
0.0202941
0.00997736
0.0196832
0.0243665
-0.00592762
-0.0311765
-0.0363801
-0.0415611
-0.0417873
-0.0470136
-0.0672625
-0.0823303
-0.0873756
-0.0924434
-0.0825566
-0.0726697
-0.0677376
-0.062828
-0.0629864
-0.0831222
-0.12319
-0.0132805
0.201561
0.486403
0.806267
1.22618
1.68113
2.07611
2.45611
1.86604
1.02091
0.35086
-0.284163
-0.504276
-0.669457
-0.634593
-0.579683
-0.494819
-0.415
-0.345204
-0.27543
-0.230588
-0.185656
-0.160724
-0.135837
-0.130995
-0.126176
-0.126357
-0.126561
-0.12681
-0.127081
-0.127308
-0.127489
-0.12267
-0.117896
-0.108145
-0.0983484
-0.103529
-0.10871
-0.108891
-0.104095
-0.0943439
-0.0945475
-0.104661
-0.104819
-0.0950905
-0.0902715
-0.090362
-0.0855204
-0.0757466
-0.0659955
-0.056267
-0.0564932
-0.0666742
-0.0668552
-0.0570362
-0.0522398
-0.0474661
-0.0426471
-0.0428054
-0.0280317
-0.0133032
-0.0185747
-0.023914
-0.0043439
0.015181
0.0296833
0.0441855
0.0587104
0.0732127
0.0726697
0.076991
0.0961313
0.110204
0.0992308
0.0933937
0.112692
0.127172
0.116833
0.106471
0.121063
0.125769
0.130634
0.130814
0.11629
0.101833
0.0872851
0.0728959
0.0635068
0.0490498
0.0245023
0.0048869
-0.0147964
-0.019457
-0.0241403
-0.0340272
-0.0440271
-0.0489593
-0.0438462
-0.0486878
-0.0392081
-0.075905
-0.0839593
-0.0884615
-0.0947738
-0.102964
-0.112941
-0.124729
-0.13414
-0.140181
-0.142986
-0.137624
-0.130611
-0.126697
-0.121697
-0.115
-0.107308
-0.102919
-0.0970815
-0.074819
-0.0554073
-0.0650226
-0.0628281
-0.0486426
-0.0404525
-0.0430091
-0.0454073
-0.0425566
-0.0393892
-0.0359276
-0.0321268
-0.0379865
-0.0486426
-0.0590951
-0.0594797
-0.0497964
-0.0500679
-0.0602941
-0.060543
-0.0508145
-0.0461086
-0.0514253
-0.0567647
-0.0571493
-0.0475566
-0.0379638
-0.0433258
-0.0486199
-0.0488914
-0.0492082
-0.0545928
-0.0599774
-0.0702941
-0.0806109
-0.0710181
-0.061448
-0.0718326
-0.0822851
-0.0778281
-0.0733937
-0.0689593
-0.0644796
-0.0649548
-0.0654525
-0.0660181
-0.0666516
-0.0673077
-0.0679638
-0.0686199
-0.0693213
-0.0700905
-0.0708145
-0.0664932
-0.0472172
-0.0280091
-0.0188009
-0.00957016
-0.00524889
-0.0108371
-0.00633486
0.0082579
0.0378733
0.0675792
0.0824661
0.102466
0.0824434
0.062466
0.0326697
0.00303166
0.0134163
0.0237783
0.0142308
-0.000226259
-0.0345928
-0.063914
-0.0582579
-0.0526471
-0.0620815
-0.0765385
-0.0959729
-0.110498
-0.105158
-0.0998869
-0.0946833
-0.0845249
-0.0694118
-0.0693665
-0.0893892
-0.104434
-0.114457
0.030543
0.270633
0.555498
0.870272
1.26509
1.68995
2.09477
2.49955
1.97934
1.23416
0.498914
-0.241358
-0.496629
-0.701901
-0.657195
-0.712511
-0.512805
-0.4331
-0.358462
-0.293824
-0.254072
-0.209253
-0.174525
-0.144819
-0.145045
-0.145226
-0.145407
-0.145588
-0.130769
-0.11595
-0.121109
-0.126199
-0.126312
-0.126471
-0.116674
-0.106878
-0.112036
-0.117172
-0.11233
-0.107466
-0.102534
-0.0976018
-0.0927149
-0.0828959
-0.0731222
-0.0682579
-0.0683032
-0.073371
-0.0834616
-0.078552
-0.0636425
-0.0587557
-0.0638914
-0.064095
-0.0543665
-0.0495701
-0.0497738
-0.0301357
-0.0106109
-0.00110859
0.00839367
0.00791856
0.0073982
0.0117873
0.0160634
0.0302262
0.0443665
0.0484842
0.0525792
0.0666968
0.0809502
0.0853394
0.0897737
0.0942534
0.103801
0.123416
0.13819
0.133122
0.12819
0.123348
0.118462
0.113597
0.0990045
0.0796606
0.070362
0.0661312
0.0518099
0.0323982
0.0128054
-0.00196835
-0.0067421
-0.0114027
-0.0258371
-0.0405883
-0.0513349
-0.0633711
-0.0717874
-0.0819231
-0.0990498
-0.123439
-0.130249
-0.135498
-0.14724
-0.15543
-0.150068
-0.143235
-0.135498
-0.127896
-0.125747
-0.124118
-0.132964
-0.141471
-0.124186
-0.105769
-0.111109
-0.114751
-0.0965611
-0.0765385
-0.0696833
-0.0652036
-0.0441177
-0.0363575
-0.0319457
-0.0287104
-0.0264253
-0.023914
-0.031629
-0.0335068
-0.0250905
-0.0312896
-0.0471493
-0.0528733
-0.0484389
-0.0438235
-0.0440498
-0.0443439
-0.0446606
-0.0449547
-0.0402262
-0.0354525
-0.0356335
-0.0458371
-0.046086
-0.0463801
-0.0466968
-0.0469457
-0.0471493
-0.0524208
-0.0577376
-0.0630317
-0.0683484
-0.0637104
-0.0591177
-0.0495701
-0.04
-0.0503846
-0.0608145
-0.061267
-0.06181
-0.0624661
-0.0631448
-0.0638009
-0.0645023
-0.0602941
-0.0561539
-0.0620362
-0.0528959
-0.0287783
-0.0146607
-0.00552038
-0.00133486
-0.00210409
0.0121719
0.0314932
0.0558597
0.0803167
0.0849547
0.0897737
0.0947059
0.0897511
0.0599547
0.0303393
0.0208597
0.0164706
0.0221493
0.0279412
0.00389138
-0.0200226
-0.0438914
-0.0677602
-0.0516516
-0.0405204
-0.0693439
-0.0932353
-0.0872625
-0.0813349
-0.0803846
-0.0795023
-0.0687331
-0.0580769
-0.0475113
-0.0619683
-0.121448
-0.0659502
0.119525
0.374932
0.685272
1.07061
1.50095
1.98622
2.5014
2.14158
1.37176
0.591923
-0.187964
-0.502896
-0.687851
-0.657738
-0.577557
-0.477376
-0.382195
-0.312081
-0.247036
-0.211923
-0.171742
-0.151606
-0.131516
-0.131403
-0.131267
-0.126154
-0.121063
-0.120905
-0.120724
-0.11552
-0.110271
-0.114955
-0.119593
-0.104253
-0.088914
-0.0984842
-0.1081
-0.0978054
-0.0875113
-0.0921719
-0.0968326
-0.0815158
-0.0761991
-0.0808824
-0.0855656
-0.0802263
-0.074819
-0.0743665
-0.0690045
-0.0586878
-0.0533258
-0.0579186
-0.0575566
-0.0472398
-0.0419231
-0.0416063
-0.0313348
-0.0161086
-0.000882361
0.0143439
0.0196154
0.0199548
0.0352941
0.0406109
0.055905
0.0711765
0.0814706
0.0917647
0.107014
0.122195
0.13733
0.152443
0.152489
0.157534
0.177647
0.19276
0.192964
0.192964
0.182873
0.17276
0.167647
0.152805
0.128235
0.103756
0.0843665
0.0649774
0.045543
0.0210181
-0.00357467
-0.0181222
-0.0276244
-0.0420588
-0.0564253
-0.0708824
-0.0854072
-0.0899774
-0.0896154
-0.0991855
-0.113733
-0.113462
-0.103326
-0.10319
-0.112986
-0.11267
-0.107421
-0.102308
-0.0979638
-0.099638
-0.102647
-0.117262
-0.13371
-0.136606
-0.139593
-0.15224
-0.159548
-0.150679
-0.136765
-0.11776
-0.10009
-0.090656
-0.0801131
-0.0634841
-0.0536651
-0.0650678
-0.0765837
-0.0779864
-0.0791402
-0.0750452
-0.0706108
-0.0708597
-0.0709955
-0.0709955
-0.070905
-0.065724
-0.060543
-0.060362
-0.0602036
-0.0600679
-0.0599321
-0.0597964
-0.064638
-0.074457
-0.0793213
-0.0792308
-0.0790724
-0.0888462
-0.0836878
-0.0785973
-0.0834842
-0.0883258
-0.0831448
-0.0780091
-0.0778733
-0.0777376
-0.0776244
-0.077534
-0.0874208
-0.0973077
-0.0872398
-0.0771719
-0.0870588
-0.0969683
-0.0869457
-0.0769683
-0.081991
-0.0870136
-0.0820588
-0.0771267
-0.0721946
-0.0672398
-0.0672625
-0.0722851
-0.082353
-0.0874661
-0.0826471
-0.0777602
-0.0828281
-0.0829186
-0.0730091
-0.0580543
-0.0430769
-0.0330995
-0.0230995
-0.0131222
-0.00314479
0.0119231
0.0021041
0.0523756
0.0727376
0.0931222
0.113552
0.0790724
0.0446154
0.0301131
0.0155882
0.0210633
0.0265384
0.0170136
0.00239818
-0.0173077
-0.0320362
-0.0418326
-0.0515611
-0.0563122
-0.0661312
-0.0810181
-0.090905
-0.0907692
-0.0856561
-0.0755882
-0.070543
-0.0654751
-0.0754072
-0.100385
-0.0853846
-0.0453846
0.134661
0.369751
0.649864
0.945
1.40509
1.91014
2.1852
2.42027
1.62527
0.690226
0.0602262
-0.549751
-0.614751
-0.669751
-0.589774
-0.504796
-0.419751
-0.334638
-0.279525
-0.224457
-0.179434
-0.139412
-0.144321
-0.149185
-0.139072
-0.128982
-0.128869
-0.128756
-0.128642
-0.128507
-0.118371
-0.108235
-0.1081
-0.107919
-0.107692
-0.107511
-0.102398
-0.097285
-0.0971493
-0.0970362
-0.0919909
-0.0869231
-0.0818326
-0.081742
-0.0916742
-0.0866516
-0.0716289
-0.0665384
-0.0664027
-0.0662443
-0.066086
-0.0610181
-0.0510181
-0.0459502
-0.0458145
-0.0357013
-0.0256109
-0.0154751
-0.00529412
-0.000158362
0.00488689
0.0198869
0.0349095
0.045
0.0551358
0.0602941
0.0704525
0.095543
0.115588
0.115701
0.120792
0.135814
0.145792
0.150769
0.160769
0.175792
0.185814
0.190837
0.195882
0.195928
0.185928
0.165769
0.145701
0.130634
0.110747
0.0860408
0.066267
0.0514254
0.0315837
0.0117195
-0.00814479
-0.0279412
-0.0326471
-0.0373529
-0.0471267
-0.0419457
-0.0717873
-0.0816516
-0.0815158
-0.0813801
-0.086267
-0.0911765
-0.0961086
-0.101041
-0.0959502
-0.0908597
-0.090724
-0.0905429
-0.0853846
-0.0810181
-0.0855882
-0.0925113
-0.0997511
-0.107579
-0.11095
-0.114231
-0.116516
-0.10948
-0.0932579
-0.0823529
-0.0828959
-0.0801584
-0.0694344
-0.0643212
-0.0597738
-0.0551583
-0.0554751
-0.0607692
-0.0709728
-0.0711538
-0.0612443
-0.0612443
-0.0711086
-0.0759728
-0.0708597
-0.0657466
-0.0706334
-0.0705656
-0.0655203
-0.0654977
-0.0654977
-0.0654751
-0.0654298
-0.075362
-0.0852941
-0.0802715
-0.0752715
-0.0802489
-0.0852036
-0.080181
-0.075181
-0.0751357
-0.0750679
-0.08
-0.0799547
-0.0649774
-0.0600226
-0.0750452
-0.0850226
-0.0899774
-0.0899774
-0.0800226
-0.0750226
-0.0799547
-0.0849321
-0.0899773
-0.0949547
-0.0948869
-0.0948416
-0.089819
-0.0748416
-0.0598869
-0.0598642
-0.0697963
-0.0747511
-0.0797285
-0.0847285
-0.0797285
-0.0746606
-0.0845475
-0.0744796
-0.0644117
-0.054276
-0.044095
-0.033914
-0.0237782
-0.0136651
-0.00352937
0.00165163
0.0118779
0.0371267
0.0623756
0.0925792
0.112783
0.0930317
0.073258
0.053439
0.03362
0.0188236
0.00895932
0.0140272
0.00407244
-0.0259049
-0.0408823
-0.0458597
-0.0508144
-0.0556787
-0.0607013
-0.0657692
-0.0757692
-0.085724
-0.0907466
-0.0858371
-0.0809276
-0.0760181
-0.071086
-0.0761312
-0.0961991
-0.116312
0.073552
-0.121561
0.578348
0.883258
1.29312
1.70796
2.14785
2.43272
1.75251
1.06231
0.337149
-0.277986
-0.528167
-0.693416
-0.623688
-0.553937
-0.489186
-0.419299
-0.339389
-0.274525
-0.224729
-0.189932
-0.165091
-0.155249
-0.160453
-0.160701
-0.15095
-0.141154
-0.131357
-0.126606
-0.121878
-0.117127
-0.112353
-0.107557
-0.112738
-0.112986
-0.103303
-0.0985294
-0.0987104
-0.0989367
-0.0942081
-0.089457
-0.0946833
-0.0949321
-0.0902036
-0.0855204
-0.0808371
-0.0710407
-0.0611991
-0.066448
-0.0717647
-0.0620814
-0.0523756
-0.0576244
-0.0628733
-0.04819
-0.033552
-0.038914
-0.0392986
-0.0247059
-0.0101131
0.00450227
0.0141855
0.0139366
0.0186425
0.0332579
0.0477602
0.0571493
0.0665385
0.0759502
0.0852941
0.0945023
0.0986652
0.0977828
0.0968326
0.100837
0.119864
0.138982
0.143303
0.137805
0.132443
0.127149
0.116878
0.106765
0.0869457
0.0623077
0.0476696
0.0329411
0.0130769
-0.00683262
-0.0116969
-0.0165611
-0.0314028
-0.0462896
-0.0513123
-0.0564028
-0.0715385
-0.0867421
-0.0820136
-0.0821493
-0.0970815
-0.107353
-0.0980317
-0.0899095
-0.0979638
-0.107421
-0.113394
-0.121652
-0.126946
-0.128326
-0.129525
-0.135679
-0.148937
-0.151222
-0.140091
-0.131584
-0.131018
-0.113869
-0.0858145
-0.0711538
