ekg
0
0
0
0.00714286
0.0294444
0.0472727
0.03
0.0156667
0.0126471
0.0192105
0.0197619
0.0219565
-0.00219999
-0.052963
-0.106207
-0.148548
-0.181818
-0.196
-0.18973
-0.178846
-0.167683
-0.154767
-0.148667
-0.15883
-0.138878
-0.124706
-0.0216038
0.0662728
0.143333
0.181695
0.194918
0.190476
0.159769
0.111045
0.0869565
0.0333099
-0.0239041
-0.0934667
-0.150519
-0.201329
-0.216543
-0.245663
-0.230471
-0.210402
-0.176067
-0.157582
-0.159086
-0.156526
-0.155155
-0.143939
-0.12406
-0.106068
-0.109333
-0.114439
-0.101193
-0.0944145
-0.0997345
-0.136478
-0.169273
-0.12416
0.0792975
0.431463
0.9072
1.45213
1.95636
2.25023
2.19038
1.76193
1.20044
0.581187
0.00382978
-0.487238
-0.847655
-1.02806
-0.972618
-0.930795
-0.608464
-0.485774
-0.442612
-0.479528
-0.541739
-0.579448
-0.582515
-0.58006
-0.577752
-0.599415
-0.620723
-0.644543
-0.655734
-0.663073
-0.683315
-0.697159
-0.687811
-0.676952
-0.646773
-0.620262
-0.613523
-0.621872
-0.614975
-0.572588
-0.544925
-0.477488
-0.45522
-0.422705
-0.380311
-0.328341
-0.277042
-0.231581
-0.19182
-0.158333
-0.101267
-0.038982
0.0180995
0.0598642
0.0913574
0.122737
0.163642
0.239072
0.30905
0.358575
0.407873
0.447149
0.50138
0.550385
0.604095
0.622556
0.665905
0.684299
0.727851
0.756561
0.740498
0.709615
0.658846
0.623145
0.592398
0.521719
0.456267
0.381448
0.312194
0.248394
0.199774
0.156312
0.123077
0.104955
0.0920361
0.0992759
0.10638
0.0731673
0.0146152
-0.0492987
-0.0685069
-0.0930318
-0.107783
-0.122511
-0.142082
-0.176516
-0.170905
-0.175407
-0.170023
-0.164615
-0.144231
-0.128801
-0.108281
-0.0878282
-0.0973304
-0.12172
-0.156154
-0.160747
-0.100611
0.0644343
0.344842
0.761335
1.32939
1.94459
2.40222
2.52213
2.37835
1.9843
1.47835
0.949909
0.418665
-0.135181
-0.55638
-0.69948
-0.618688
-0.427874
-0.291969
-0.279638
-0.346787
-0.438846
-0.471109
-0.503688
-0.48638
-0.493846
-0.515973
-0.532738
-0.559208
-0.59543
-0.626493
-0.652534
-0.658643
-0.654955
-0.646358
-0.642692
-0.658914
-0.684977
-0.70095
-0.696968
-0.698077
-0.679186
-0.66009
-0.630928
-0.596425
-0.556674
-0.516719
-0.491629
-0.452715
-0.385339
-0.310158
-0.23767
-0.187556
-0.153439
-0.11862
-0.0564479
-0.00135738
0.0217195
0.122625
0.190996
0.251109
0.321742
0.356923
0.346539
0.34586
0.360385
0.370385
0.380905
0.376674
0.34767
0.313733
0.295068
0.256561
0.223122
0.204593
0.19086
0.186923
0.187896
0.148665
0.109208
0.0694119
0.0442535
0.0386426
0.0178056
-0.013303
-0.0146379
-0.0411537
-0.0578053
-0.0745474
-0.0812895
-0.103326
-0.100837
-0.098846
-0.0571492
-0.0505881
-0.0541854
-0.0830089
-0.0919682
-0.0966061
-0.0864478
-0.0715383
-0.0867872
-0.082285
-0.0829185
-0.0936651
-0.0895021
-0.110407
-0.126651
-0.113303
-0.0853845
-0.0627148
-0.0749094
-0.106448
-0.136878
-0.120656
-0.107013
-0.0808144
-0.0626017
-0.0388912
-0.0209953
-0.0149545
-0.0161989
-0.00981879
-0.0107237
0.0159052
0.0706563
0.129955
0.174774
0.190747
0.192602
0.194683
0.211607
0.213281
0.214955
0.196697
0.138733
0.0608372
-0.0219908
-0.109706
-0.177466
-0.215339
-0.208439
-0.186697
-0.160023
-0.16319
-0.181199
-0.204163
-0.217217
-0.220656
-0.214344
-0.213213
-0.217194
-0.231176
-0.230204
-0.249163
-0.292986
-0.316652
-0.315158
-0.0134841
0.36862
0.891425
1.52009
2.07448
2.34939
2.25459
1.79002
1.18577
0.55681
-0.0370361
-0.540385
-0.848439
-0.891176
-0.738575
-0.560882
-0.453348
-0.440905
-0.493484
-0.550995
-0.583394
-0.585747
-0.578167
-0.590724
-0.593529
-0.62224
-0.632466
-0.639615
-0.634072
-0.650995
-0.685068
-0.709932
-0.718982
-0.715882
-0.685
-0.686312
-0.670362
-0.652783
-0.629276
-0.610724
-0.583054
-0.576312
-0.545136
-0.499163
-0.453032
-0.406652
-0.399887
-0.378009
-0.341086
-0.329321
-0.212647
-0.161018
-0.109299
-0.0673983
-0.00538465
0.046742
0.0888461
0.130928
0.168054
0.235045
0.301991
0.363959
0.416018
0.448235
0.47043
0.507466
0.559231
0.590905
0.637398
0.643869
0.645294
0.671697
0.677896
0.668801
0.659389
0.629796
0.62
0.615113
0.575294
0.545452
0.485566
0.43052
0.395204
0.364638
0.328824
0.297738
0.251493
0.205045
0.183213
0.145996
0.103077
0.0845702
0.0706336
0.0865611
0.092534
0.0986879
0.0649548
0.0362444
0.027534
0.0288236
0.0851358
0.121561
0.1631
0.184796
0.20172
0.228801
0.241063
0.243326
0.245498
0.247647
0.23
0.173959
0.0898644
-0.016742
-0.090475
-0.136448
-0.146041
-0.140973
-0.132941
-0.132579
-0.13
-0.140023
-0.142195
-0.160724
-0.174412
-0.167489
-0.149909
-0.136923
-0.124004
-0.136538
-0.159547
-0.182896
-0.206425
-0.220022
-0.193801
-0.0426469
0.248349
0.644344
1.13052
1.66183
2.12873
2.25581
2.02805
1.5055
0.858145
0.226086
-0.30095
-0.697941
-0.909955
-0.951946
-0.778891
-0.595679
-0.482376
-0.463914
-0.500294
-0.556516
-0.602534
-0.623552
-0.639525
-0.635385
-0.626199
-0.62138
-0.63129
-0.65638
-0.696538
-0.719027
-0.718688
-0.730769
-0.745023
-0.74543
-0.760181
-0.757851
-0.752466
-0.763891
-0.767647
-0.759299
-0.724434
-0.683688
-0.627896
-0.597489
-0.572738
-0.548507
-0.489276
-0.419977
-0.350543
-0.301041
-0.251493
-0.196878
-0.147285
-0.0728959
-0.00866508
0.0502942
0.119027
0.182602
0.261154
0.329525
0.372806
0.40595
0.438914
0.45181
0.529457
0.576833
0.609073
0.606312
0.60862
0.595883
0.603032
0.599842
0.586335
0.567692
0.553914
0.530226
0.516539
0.487851
0.439208
0.395294
0.361267
0.347082
0.32767
0.313032
0.273258
0.223236
0.17776
0.151607
0.14457
0.0868781
0.0537106
0.0303169
0.0118101
-0.00687766
-0.0257238
-0.0496379
-0.0836423
-0.0976695
-0.111832
-0.101108
-0.0752712
-0.0642532
-0.0429409
-0.00149295
0.0400229
0.076403
0.10776
0.124208
0.145905
0.152964
0.15586
0.145272
0.101607
0.0852491
-0.0486197
-0.105158
-0.145973
-0.182556
-0.211221
-0.237579
-0.241606
-0.237941
-0.221018
-0.210022
-0.209027
-0.222081
-0.239298
-0.245927
-0.237511
-0.229253
-0.231244
-0.228416
-0.220746
-0.21328
-0.21604
-0.243846
-0.256764
-0.169909
-0.118416
0.452602
0.978326
1.549
2.06471
2.3505
2.26654
1.86781
1.2495
0.591629
0.029095
-0.418235
-0.72043
-0.867466
-0.849389
-0.721063
-0.572602
-0.45905
-0.435475
-0.446674
-0.487511
-0.512964
-0.553122
-0.578145
-0.578054
-0.572806
-0.567217
-0.566222
-0.569864
-0.56819
-0.591674
-0.585837
-0.596335
-0.613552
-0.622896
-0.634412
-0.622398
-0.609932
-0.600453
-0.612851
-0.609276
-0.58586
-0.545407
-0.493394
-0.440792
-0.408643
-0.367466
-0.322263
-0.277579
-0.228032
-0.208552
-0.124208
-0.0649322
-0.0107241
0.0485067
0.10767
0.146765
0.190701
0.239412
0.307941
0.396357
0.464706
0.517805
0.550792
0.573756
0.616697
0.649434
0.666946
0.679276
0.68638
0.703416
0.720339
0.707172
0.688937
0.640566
0.627172
0.603801
0.615475
0.602104
0.563733
0.500362
0.451991
0.423416
0.384547
0.360317
0.340611
0.325656
0.279887
0.248597
0.191855
0.129841
0.0772622
0.0343889
0.0164025
0.00337085
-0.00468346
-0.0477603
-0.0858372
-0.0889594
-0.107149
-0.10043
-0.103665
-0.106788
-0.114683
-0.102353
-0.0747739
-0.0219911
-0.00411779
0.0237555
0.0617419
0.115339
0.179434
0.226244
0.245566
0.242715
0.227285
0.193394
0.149208
0.0732804
-0.00529426
-0.0866291
-0.135294
-0.16086
-0.16776
-0.160407
-0.167964
-0.174978
-0.176312
-0.162104
-0.157805
-0.173597
-0.194616
-0.21586
-0.202489
-0.179547
-0.1719
-0.179344
-0.211855
-0.239321
-0.246878
-0.15448
0.0676471
0.424842
0.84224
1.33995
1.84808
2.18147
2.15523
1.75428
1.09342
0.872534
-0.198394
-0.664231
-1.00491
-1.14023
-1.05532
-0.860249
-0.660158
-0.569932
-0.55457
-0.568959
-0.588258
-0.617172
-0.635814
-0.65405
-0.656991
-0.654729
-0.658009
-0.657602
-0.664027
-0.667489
-0.662873
-0.669864
-0.682466
-0.704457
-0.719299
-0.691244
-0.654932
-0.630792
-0.604502
-0.591787
-0.568552
-0.525837
-0.474027
-0.423054
-0.387647
-0.342262
-0.301742
-0.245927
-0.205045
-0.179321
-0.148982
-0.0888686
-0.013914
0.0610182
0.125928
0.165792
0.210611
0.265159
0.319593
0.338846
0.432851
0.471606
0.495136
0.51362
0.542149
0.565588
0.573756
0.576652
0.579367
0.596923
0.599457
0.5869
0.539208
0.49629
0.453348
0.420158
0.401991
0.37871
0.345294
0.301923
0.248597
0.225385
0.202127
0.153552
0.139593
0.0902262
0.0754072
0.0651583
0.0342759
-0.0122173
-0.0593213
-0.0868327
-0.0945476
-0.0773531
-0.080249
-0.0732581
-0.0763576
-0.0843893
-0.08224
-0.0750227
-0.0677829
-0.045611
-0.00355211
0.063733
0.126335
0.149208
0.167217
0.155226
0.168258
0.17638
0.210136
0.200068
0.14681
0.0656334
-0.0230996
-0.0792986
-0.128846
-0.163416
-0.159774
-0.159118
-0.139412
-0.139457
-0.141493
-0.180091
-0.189276
-0.20319
-0.17629
-0.168665
-0.160905
-0.173281
-0.180905
-0.18871
-0.196719
-0.239955
-0.253484
-0.247081
-0.0955656
0.231267
0.67853
1.19118
1.69923
2.11756
2.30115
2.19473
1.73826
1.13672
0.445294
-0.165882
-0.631878
-0.942738
-1.04364
-0.914638
-0.730566
-0.566267
-0.491652
-0.5019
-0.556968
-0.611742
-0.641244
-0.645452
-0.624661
-0.62448
-0.620362
-0.657896
-0.682647
-0.699819
-0.713846
-0.707873
-0.719932
-0.738937
-0.744909
-0.737896
-0.723688
-0.722964
-0.73681
-0.715362
-0.689615
-0.659683
-0.61509
-0.590407
-0.570362
-0.544977
-0.509593
-0.459525
-0.434706
-0.345136
-0.290611
-0.241086
-0.176561
-0.142149
-0.0928958
-0.0488234
0.0102038
0.09905
0.177625
0.246064
0.304344
0.347647
0.405928
0.459073
0.511765
0.554118
0.576267
0.593303
0.625317
0.64715
0.663824
0.650272
0.626471
0.617285
0.597806
0.593055
0.59819
0.563326
0.51853
0.468733
0.433711
0.40353
0.373055
0.347263
0.301222
0.265091
0.223824
0.182263
0.140294
0.0877379
0.0547288
0.0314031
0.0229641
0.0196609
0.00647092
-0.0166286
-0.0445924
-0.0424431
-0.050339
-0.0281218
-0.015882
0.0216293
0.0793669
0.122421
0.160634
0.17896
0.192331
0.220792
0.264276
0.272874
0.246629
0.171222
0.0773985
-0.00932091
-0.093529
-0.135339
-0.185226
-0.174298
-0.168778
-0.155294
-0.144547
-0.162081
-0.182692
-0.195678
-0.185294
-0.155497
-0.140271
-0.149389
-0.177873
-0.181018
-0.184163
-0.217398
-0.230611
-0.26362
-0.246289
-0.0885744
0.199389
0.632444
1.19034
1.78305
2.22572
2.2633
1.87597
1.24869
0.591358
0.0190952
-0.433122
-0.750317
-0.832647
-0.875271
-0.702873
-0.520339
-0.447534
-0.469366
-0.536018
-0.612828
-0.630339
-0.614163
-0.609774
-0.607692
-0.642738
-0.674299
-0.710362
-0.730747
-0.746538
-0.764276
-0.779547
-0.762805
-0.749412
-0.729955
-0.740181
-0.75586
-0.757262
-0.753891
-0.695385
-0.661448
-0.637081
-0.612489
-0.582783
-0.537986
-0.488054
-0.432964
-0.377964
-0.283122
-0.203326
-0.128484
-0.0735746
-0.0236651
0.0361087
0.105498
0.184638
0.24371
0.302557
0.391222
0.459751
0.517919
0.540882
0.55353
0.560837
0.597828
0.634344
0.645588
0.626539
0.592308
0.562873
0.558009
0.527851
0.502262
0.476471
0.445498
0.42948
0.398213
0.356946
0.29586
0.249638
0.218281
0.201742
0.174978
0.128235
0.0916291
0.0650001
0.0332128
0.010973
-0.00678724
-0.0499999
-0.0735745
-0.0823076
-0.0812217
-0.100068
-0.10871
-0.107172
-0.075475
-0.00877815
0.0478055
0.0944571
0.12138
0.153733
0.191425
0.214186
0.212036
0.200068
0.163235
0.101448
0.024819
-0.0568325
-0.123213
-0.178733
-0.192783
-0.189796
-0.164253
-0.156063
-0.130792
-0.125181
-0.131222
-0.13009
-0.146991
-0.151606
-0.148394
-0.126787
-0.0857692
-0.080181
-0.0939819
-0.132059
-0.174864
-0.1981
-0.15181
0.0190724
0.335113
0.771674
1.2988
1.8514
2.23416
2.16701
2.07484
1.08767
0.455475
-0.0519004
-0.444344
-0.726629
-0.888756
-0.895837
-0.743122
-0.545565
-0.443054
-0.425566
-0.472692
-0.529683
-0.561493
-0.57319
-0.564638
-0.575905
-0.597692
-0.595769
-0.590724
-0.597805
-0.637059
-0.667805
-0.673597
-0.687421
-0.653213
-0.650656
-0.670181
-0.647443
-0.632941
-0.622036
-0.580769
-0.564819
-0.529638
-0.490045
-0.455679
-0.396063
-0.361063
-0.310792
-0.270543
-0.220475
-0.130588
-0.0807692
-0.00610852
0.0485521
0.0882127
0.12776
0.202285
0.246652
0.270837
0.349706
0.423281
0.486652
0.554932
0.583122
0.601154
0.618937
0.631425
0.658643
0.680634
0.692466
0.684073
0.670453
0.651606
0.637715
0.588394
0.553846
0.524073
0.504208
0.509389
0.484638
0.439955
0.380249
0.325498
0.305679
0.260656
0.220453
0.19
0.149208
0.102964
0.0761991
0.0339141
0.00119913
-0.0368552
-0.0550452
-0.0632579
-0.056448
-0.0745249
-0.112421
-0.135271
-0.138032
-0.125815
-0.0986652
-0.0713802
-0.033801
0.014095
0.0674208
0.10586
0.129434
0.142986
0.216561
0.255158
0.269095
0.219004
0.125566
0.0143665
-0.0744345
-0.125656
-0.155091
-0.164729
-0.164661
-0.163959
-0.136041
-0.135498
-0.156765
-0.184525
-0.183032
-0.156629
-0.144683
-0.142036
-0.139027
-0.170973
-0.173213
-0.195882
-0.203891
-0.237217
-0.240656
-0.0840724
0.247602
0.709661
1.26719
1.82005
2.21803
2.27618
1.88452
1.26792
0.591516
0.0200905
-0.426425
-0.762828
-0.989073
-1.00529
-0.881471
-0.692602
-0.553643
-0.49948
-0.520045
-0.570317
-0.62043
-0.63543
-0.630294
-0.619864
-0.608959
-0.603032
-0.627557
-0.653303
-0.660973
-0.676041
-0.678484
-0.68776
-0.687308
-0.674955
-0.664547
-0.660679
-0.66552
-0.670928
-0.64457
-0.597398
-0.560362
-0.523959
-0.498326
-0.483077
-0.447896
-0.397579
-0.377081
-0.291561
-0.24129
-0.181222
-0.121222
-0.0561765
-0.00604075
0.0340045
0.0738009
0.123281
0.182557
0.256833
0.300928
0.349864
0.393688
0.437376
0.480882
0.519163
0.552127
0.574796
0.59224
0.599593
0.616878
0.594118
0.571018
0.557534
0.523756
0.524842
0.52086
0.48681
0.427624
0.383394
0.334095
0.319751
0.280362
0.250701
0.205792
0.180973
0.156199
0.116312
0.0710859
0.014932
0.0129864
-0.00454754
-0.0174435
-0.0405883
-0.0688915
-0.0922851
-0.110656
-0.0938689
-0.0870589
-0.0403394
-0.0386878
-0.0267422
0.00552034
0.0480317
0.0707014
0.0784841
0.0962443
0.134185
0.177262
0.23552
0.26871
0.252081
0.211403
0.132308
0.0406108
-0.0235521
-0.0751358
-0.119864
-0.149186
-0.155158
-0.153846
-0.140588
-0.139932
-0.146267
-0.174253
-0.178416
-0.157896
-0.161991
-0.155362
-0.168145
-0.200815
-0.213778
-0.222172
-0.205837
-0.204435
-0.227692
-0.250588
-0.2131
-0.0454752
0.27267
0.730905
1.29421
1.88744
2.3307
2.40905
2.06247
1.45597
0.749547
0.528054
-0.42853
-0.805113
-0.971516
-0.932783
-0.768846
-0.579797
-0.485566
-0.481244
-0.526742
-0.587059
-0.607647
-0.603665
-0.595724
-0.614502
-0.64871
-0.672104
-0.68724
-0.687285
-0.685339
-0.700226
-0.721584
-0.724774
-0.725611
-0.72491
-0.728824
-0.728122
-0.69819
-0.663869
-0.624615
-0.605
-0.594977
-0.579796
-0.554525
-0.489434
-0.43448
-0.384525
-0.349729
-0.314864
-0.265023
-0.200272
-0.145701
-0.0762897
-0.0071494
0.0468778
0.135679
0.209389
0.267941
0.301267
0.344321
0.371968
0.484299
0.546267
0.583145
0.604751
0.621109
0.637172
0.647851
0.63819
0.628122
0.622828
0.622285
0.611765
0.551131
0.510407
0.469774
0.438801
0.417647
0.39129
0.349819
0.298235
0.251516
0.234842
0.193213
0.141493
0.124548
0.0571268
0.054095
0.0356562
0.0220137
-0.0117193
-0.0404977
-0.059276
-0.0630543
-0.0616289
-0.0700678
-0.043371
-0.0116062
0.0402263
0.0772851
0.104434
0.111923
0.13957
0.182082
0.224683
0.232466
0.200566
0.129005
0.0575339
-0.0189819
-0.0452715
-0.185724
-0.229593
-0.246154
-0.235068
-0.226176
-0.235249
-0.228959
-0.219185
-0.212172
-0.188326
-0.170588
-0.182262
-0.205724
-0.20009
-0.219344
-0.21828
-0.241606
-0.254683
-0.267828
-0.266222
-0.19491
-0.0236199
0.247828
0.679525
0.826493
1.80873
2.23615
2.24873
1.84143
1.18421
0.457014
-0.175181
-0.657375
-0.954728
-1.00215
-0.879547
-0.671946
-0.504163
-0.461222
-0.523145
-0.599977
-0.631833
-0.638665
-0.62543
-0.62181
-0.637873
-0.63862
-0.654661
-0.656561
-0.675
-0.700407
-0.718167
-0.718009
-0.718642
-0.718122
-0.734864
-0.748077
-0.723054
-0.685565
-0.631267
-0.600792
-0.569434
-0.543122
-0.492376
-0.441787
-0.392104
-0.327579
-0.267964
-0.188235
-0.113371
-0.0434162
0.00660643
0.0415838
0.0812897
0.100815
0.225204
0.29448
0.353643
0.402625
0.471448
0.550136
0.603643
0.632127
0.640407
0.653326
0.681041
0.723371
0.745679
0.732873
0.699977
0.671697
0.658122
0.654276
0.620294
0.591177
0.556901
0.517557
0.503077
0.478688
0.459253
0.394729
0.349955
0.350068
0.320226
0.275407
0.22543
0.155023
0.113982
0.102398
0.0902942
0.0729639
0.0399095
-0.013552
-0.0371493
-0.0657465
-0.0744344
-0.0781674
-0.0919683
-0.0907919
-0.0995475
-0.0779637
-0.0610406
-0.0440271
-0.0119456
0.000316769
0.0926924
0.145181
0.182715
0.200294
0.207986
0.210973
0.19448
0.163937
0.119706
0.0475114
-0.0388461
-0.0854977
-0.115
-0.119344
-0.120543
-0.129615
-0.146946
-0.152104
-0.124389
-0.118032
-0.136923
-0.145226
-0.162602
-0.169276
-0.166041
-0.173394
-0.166335
-0.164548
-0.162805
-0.191063
-0.214366
-0.242873
-0.151516
0.0648417
0.44638
0.938122
1.50511
2.02742
2.26511
2.05796
1.53615
0.824299
0.162353
-0.354548
-0.716244
-0.952625
-1.03887
-0.969977
-0.811018
-0.756968
-0.542715
-0.493235
-0.503484
-0.538416
-0.578032
-0.602285
-0.616154
-0.614683
-0.613054
-0.611584
-0.620973
-0.626358
-0.623484
-0.612873
-0.622851
-0.650996
-0.664344
-0.681312
-0.680837
-0.652466
-0.621154
-0.59733
-0.586335
-0.568824
-0.550995
-0.488733
-0.442466
-0.392082
-0.357104
-0.317172
-0.282082
-0.231901
-0.16181
-0.121787
-0.0669684
-0.0122173
0.0573755
0.116878
0.156448
0.200882
0.250068
0.319005
0.39267
0.446199
0.489706
0.51819
0.541606
0.589887
0.602964
0.610905
0.633597
0.626109
0.638575
0.645928
0.633326
0.580611
0.522805
0.494887
0.461878
0.433846
0.395679
0.37776
0.349864
0.331923
0.299005
0.240837
0.202489
0.168801
0.154729
0.140068
0.104864
0.0490724
0.00285077
-0.0187782
-0.0157918
-0.0380768
-0.0456107
-0.0533031
-0.0660858
-0.0637781
-0.0564931
-0.0642759
-0.062104
-0.0499772
0.0121946
0.0794345
0.131742
0.159321
0.162104
0.174932
0.187964
0.215882
0.24371
0.227104
0.186765
0.128371
0.0573983
-0.0158596
-0.0816289
-0.0961311
-0.15138
-0.143891
-0.129547
-0.113099
-0.123914
-0.146199
-0.154412
-0.162986
-0.161312
-0.138982
-0.141403
-0.147851
-0.149004
-0.16543
-0.162059
-0.174321
-0.196878
-0.229615
-0.237421
-0.170317
0.0316065
0.368394
0.815226
1.36726
1.53964
2.30224
2.42
2.16301
1.64627
1.00991
0.368892
-0.162036
-0.602986
-0.919004
-1.005
-0.915882
-0.726448
-0.546878
-0.462104
-0.487172
-0.552127
-0.606923
-0.626516
-0.62586
-0.605136
-0.609095
-0.637647
-0.660769
-0.673756
-0.67224
-0.661697
-0.657556
-0.670158
-0.684751
-0.696403
-0.709366
-0.717036
-0.722941
-0.730973
-0.721018
-0.688326
-0.648235
-0.631629
-0.609389
-0.607059
-0.581018
-0.531108
-0.4819
-0.437783
-0.393507
-0.344118
-0.299683
-0.245362
-0.191176
-0.172081
-0.103099
-0.0543664
0.00918561
0.0676472
0.156131
0.204683
0.248122
0.291222
0.344095
0.416833
0.46957
0.512263
0.529909
0.547466
0.55991
0.57724
0.579457
0.586425
0.583145
0.569728
0.561448
0.543326
0.495271
0.457081
0.453507
0.384683
0.390588
0.386357
0.356923
0.297172
0.251923
0.211244
0.180045
0.153167
0.110633
0.0677375
0.0443891
0.0259275
0.00244337
-0.0160182
-0.0545703
-0.0882128
-0.0968781
-0.0855204
-0.0740725
-0.0773983
-0.080611
-0.0985748
-0.051448
-0.0442535
0.0529864
0.0903167
0.112692
0.12509
0.142579
0.180543
0.199547
0.185294
0.148326
0.0940497
0.0456107
0.000746548
-0.0484389
-0.103575
-0.175973
-0.216131
-0.204231
-0.179797
-0.162421
-0.161403
-0.180769
-0.199819
-0.193213
-0.196041
-0.20371
-0.196697
-0.205068
-0.208869
-0.202896
-0.186991
-0.210996
-0.254887
-0.288778
-0.267557
-0.126063
0.125814
0.478099
0.925633
1.43312
1.93552
2.26283
2.22014
1.84758
1.25502
0.602376
-0.000248969
-0.512738
-0.86
-0.992285
-1.00948
-0.741742
-0.548914
-0.455747
-0.467217
-0.538575
-0.595136
-0.647534
-0.646267
-0.651765
-0.659412
-0.679299
-0.695317
-0.70586
-0.728937
-0.755928
-0.787466
-0.796358
-0.773326
-0.763959
-0.748756
-0.738484
-0.743756
-0.734615
-0.71586
-0.697014
-0.662941
-0.623643
-0.569253
-0.504774
-0.455272
-0.415769
-0.376244
-0.331878
-0.267738
-0.17371
-0.0996606
-0.020837
0.0429865
0.121742
0.180385
0.253733
0.291855
0.334683
0.407172
0.479412
0.536425
0.573235
0.599887
0.61629
0.627376
0.638258
0.638824
0.639073
0.629073
0.613892
0.588484
0.562874
0.502082
0.481018
0.449864
0.443439
0.412127
0.380792
0.344457
0.318145
0.281561
0.254932
0.208235
0.151312
0.10905
0.0964029
0.0684164
0.0351585
-0.0132351
-0.0318097
-0.0606785
-0.0546831
-0.0436876
-0.0325337
-0.051131
-0.0545247
-0.0377375
0.00411773
0.0561087
0.10319
0.145407
0.162873
0.200475
0.228235
0.241086
0.239344
0.20767
0.176018
0.124254
0.0478055
-0.0378053
-0.117036
-0.164525
-0.159955
-0.143054
-0.118891
-0.11319
-0.132624
-0.123665
-0.102285
-0.0938008
-0.0931221
-0.11
-0.0987329
-0.108393
-0.103348
-0.107149
-0.140181
-0.177805
-0.165498
-0.0838234
0.142511
0.473643
0.910023
1.43174
1.93889
2.25131
2.18898
1.70181
1.51473
0.392602
-0.149706
-0.537081
-0.794276
-0.931493
-0.878642
-0.710724
-0.542851
-0.445023
-0.452217
-0.494321
-0.531312
-0.553077
-0.569615
-0.580882
-0.59672
-0.612263
-0.597715
-0.59862
-0.615611
-0.629231
-0.654977
-0.658032
-0.658009
-0.673348
-0.677376
-0.678756
-0.657036
-0.612172
-0.579344
-0.56405
-0.552353
-0.530317
-0.483959
-0.428439
-0.393507
-0.353756
-0.308846
-0.253643
-0.193371
-0.123032
-0.0729186
-0.0279639
0.0217873
0.0965837
0.171357
0.251154
0.300814
0.330362
0.344796
0.42905
0.482964
0.521652
0.560136
0.598394
0.626493
0.649457
0.657172
0.629593
0.606629
0.593484
0.580045
0.59147
0.58276
0.549072
0.510113
0.455905
0.426493
0.406991
0.387443
0.352964
0.308461
0.273801
0.239027
0.229163
0.159253
0.124072
0.0785292
0.0726921
0.026493
-0.0150907
-0.0671722
-0.0997061
-0.107602
-0.115611
-0.113552
-0.126267
-0.138824
-0.156425
-0.179005
-0.191358
-0.173507
-0.120566
-0.0575114
0.0156786
0.0640044
0.0776244
0.101493
0.105362
0.109208
0.178213
0.197738
0.193484
0.14595
0.0755882
-0.0122398
-0.0726924
-0.121697
-0.145973
-0.172398
-0.174706
-0.162104
-0.156923
-0.178439
-0.171086
-0.179525
-0.192987
-0.195973
-0.183416
-0.16552
-0.172715
-0.170226
-0.187986
-0.190882
-0.193869
-0.246787
-0.279525
-0.267036
-0.12914
0.16914
0.617647
1.15631
1.73991
2.22339
2.37692
2.14052
1.62421
0.972964
0.316855
-0.269072
-0.744796
-1.00045
-1.04122
-0.866991
-0.66767
-0.528009
-0.477986
-0.512625
-0.577149
-0.602059
-0.632896
-0.610158
-0.604525
-0.626267
-0.665113
-0.7
-0.71905
-0.725973
-0.735226
-0.74672
-0.730566
-0.686719
-0.655792
-0.648801
-0.646538
-0.645272
-0.619751
-0.584593
-0.544344
-0.498869
-0.468281
-0.42267
-0.377172
-0.326629
-0.311109
-0.260679
-0.200385
-0.130339
-0.0604073
0.00954747
0.0495475
0.104457
0.16414
0.233575
0.287805
0.316946
0.380814
0.434548
0.472964
0.506312
0.519389
0.547195
0.569661
0.601765
0.628642
0.625385
0.592036
0.553461
0.534638
0.530407
0.495724
0.455769
0.435701
0.395679
0.380611
0.345588
0.290498
0.235181
0.204728
0.173959
0.152941
0.122013
0.081086
0.035113
-0.0061087
-0.042896
-0.0602716
-0.0680092
-0.0710409
-0.084163
-0.0773305
-0.0754753
-0.0833938
-0.0961766
-0.103846
-0.0663802
-0.00882363
0.0536877
0.101357
0.124321
0.137624
0.166063
0.184593
0.193235
0.197036
0.171018
0.114909
0.0487555
-0.0272173
-0.112512
-0.176267
-0.217874
-0.216946
-0.178394
-0.167715
-0.176245
-0.180769
-0.182534
-0.182285
-0.17534
-0.191312
-0.199683
-0.174299
-0.164163
-0.148303
-0.176697
-0.22957
-0.272285
-0.260159
-0.12819
0.128846
0.506018
1.01367
1.57679
2.085
2.38348
2.2669
1.87014
1.32328
0.736493
0.159706
-0.356946
-0.768439
-0.969842
-0.996244
-0.74267
-0.554186
-0.455634
-0.472014
-0.55319
-0.604027
-0.624548
-0.614751
-0.614977
-0.620611
-0.637285
-0.650294
-0.655181
-0.667353
-0.700113
-0.740611
-0.765633
-0.768462
-0.753235
-0.744751
-0.733597
-0.74043
-0.740633
-0.709842
-0.693959
-0.67362
-0.649118
-0.619932
-0.565588
-0.515769
-0.485611
-0.455452
-0.410475
-0.360701
-0.280973
-0.196199
-0.141561
-0.0921041
-0.0427149
0.0365158
0.105792
0.174932
0.243733
0.30224
0.380588
0.443846
0.497104
0.520181
0.527919
0.535249
0.587217
0.623937
0.635453
0.64181
0.627941
0.603824
0.589616
0.550226
0.525588
0.480566
0.460181
0.434661
0.434231
0.398982
0.348892
0.29353
0.257919
0.242149
0.201222
0.165091
0.123665
0.0918553
0.069638
0.0420815
0.0290498
-0.0144796
-0.0434163
-0.0676472
-0.0669456
-0.0560632
-0.0800678
-0.099027
-0.123009
-0.116991
-0.0459502
0.0102488
0.0615611
0.0780316
0.0897737
0.101629
0.133823
0.156018
0.168099
0.165158
0.132443
0.0904298
0.0297962
-0.0488688
-0.14
-0.168439
-0.249434
-0.248959
-0.208891
-0.180385
-0.194253
-0.200724
-0.214751
-0.211063
-0.209118
-0.212987
-0.216878
-0.204661
-0.20172
-0.188484
-0.200339
-0.237851
-0.285815
-0.319095
-0.277602
-0.146267
0.0899772
0.426108
0.892149
1.45817
1.64921
2.31538
2.24181
1.80364
1.18088
0.523394
-0.0189141
-0.441177
-0.743416
-0.915679
-0.902896
-0.755068
-0.56224
-0.469208
-0.486063
-0.562692
-0.614072
-0.62043
-0.616765
-0.612941
-0.623801
-0.639276
-0.644299
-0.643982
-0.648394
-0.65267
-0.677082
-0.682353
-0.664027
-0.65767
-0.658552
-0.676358
-0.705
-0.702828
-0.673462
-0.63138
-0.591471
-0.569027
-0.534751
-0.499095
-0.443054
-0.391267
-0.355045
-0.304683
-0.250113
-0.171018
-0.092172
-0.0182806
0.0257692
0.0549321
0.0739819
0.16276
0.236199
0.304502
0.362828
0.421086
0.494276
0.55733
0.595226
0.607964
0.640588
0.668145
0.69552
0.717715
0.729864
0.721991
0.69914
0.671109
0.662896
0.654389
0.645724
0.617353
0.579118
0.540996
0.51276
0.504321
0.450747
0.427172
0.403529
0.369706
0.335543
0.316041
0.271176
0.215928
0.165045
0.133462
0.10138
0.0736425
0.0456786
-0.00723988
-0.0301132
-0.0434163
-0.0569457
-0.0706788
-0.0993893
-0.123122
-0.146901
-0.140656
-0.114389
-0.0830318
-0.0815612
-0.0200906
0.0263348
0.0726018
0.128869
0.160452
0.172851
0.181561
0.191923
0.19948
0.194661
0.145837
0.0702488
-0.0253847
-0.10276
-0.137873
-0.165815
-0.166063
-0.183077
-0.186267
-0.175136
-0.178891
-0.166946
-0.193982
-0.19543
-0.1969
-0.20871
-0.19086
-0.173145
-0.17043
-0.197715
-0.210158
-0.232873
-0.26086
-0.279095
-0.267534
-0.166018
0.0852488
0.456403
0.952579
1.49882
1.99543
2.23729
2.10437
1.63679
1.03962
0.417941
-0.0933032
-0.464367
-0.760249
-0.841109
-1.02179
-0.922308
-0.74767
-0.612806
-0.53267
-0.522217
-0.55138
-0.610249
-0.633982
-0.642624
-0.631222
-0.609457
-0.612195
-0.629457
-0.651403
-0.668846
-0.67724
-0.672195
-0.659163
-0.663507
-0.664977
-0.67276
-0.665091
-0.680453
-0.672828
-0.662127
-0.638778
-0.608416
-0.55672
-0.504729
-0.488235
-0.45267
-0.417987
-0.368778
-0.304593
-0.255181
-0.215837
-0.171516
-0.11233
-0.0333259
0.0156107
0.0595248
0.0882352
0.151697
0.214909
0.293122
0.35129
0.394412
0.417443
0.430226
0.507873
0.55043
0.582896
0.585271
0.597443
0.609457
0.606403
0.618303
0.605181
0.597036
0.588642
0.565294
0.557059
0.528846
0.505837
0.462534
0.414027
0.390294
0.376357
0.367262
0.342941
0.297964
0.237285
0.185837
0.168756
0.136267
0.103303
0.0700904
0.0266515
0.00321263
-0.0101584
-0.0186879
-0.0522625
-0.0910408
-0.104864
-0.108643
-0.0873982
-0.065905
-0.0642534
-0.0625566
-0.0407014
0.00122166
0.0531674
0.104977
0.14181
0.143937
0.171742
0.190973
0.207036
0.20552
0.136584
0.0800452
0.0197737
-0.0358824
-0.0835521
-0.143824
-0.196833
-0.217081
-0.228869
-0.207014
-0.200475
-0.194729
-0.203394
-0.211222
-0.223416
-0.220452
-0.232738
-0.23052
-0.223801
-0.222262
-0.220814
-0.219344
-0.262851
-0.306403
-0.325023
-0.163597
0.112964
0.514819
0.992082
1.5248
2.02285
2.33604
2.25921
1.84233
1.19043
0.498507
-0.113371
-0.590181
-0.896855
-0.973348
-0.874593
-0.700792
-0.546833
-0.482873
-0.508778
-0.569367
-0.609615
-0.629547
-0.624367
-0.61957
-0.640566
-0.658009
-0.662149
-0.668371
-0.671561
-0.710996
-0.739615
-0.760837
-0.768846
-0.763778
-0.751244
-0.736674
-0.72086
-0.704502
-0.6781
-0.657602
-0.657828
-0.633575
-0.594367
-0.55
-0.48543
-0.425792
-0.396177
-0.346561
-0.327036
-0.222557
-0.158326
-0.0943439
-0.0354525
0.00843886
0.0524434
0.146403
0.220136
0.288484
0.346538
0.399548
0.477421
0.535136
0.572647
0.574932
0.576946
0.613846
0.640656
0.66224
0.673416
0.664344
0.650045
0.615679
0.601267
0.596606
0.536674
0.511606
0.486516
0.491538
0.471674
0.421787
0.376606
0.316267
0.285724
0.249932
0.228937
0.197421
0.160452
0.113032
0.0902488
0.0670813
0.0485293
0.0296153
-0.00441188
-0.00352949
-0.017534
-0.0263801
-0.0601131
-0.0738009
-0.0824661
-0.0411765
0.0202489
0.0967647
0.143507
0.15552
0.162715
0.165091
0.177602
0.180113
0.172647
0.135272
0.0837331
0.00868785
-0.0742986
-0.155
-0.222941
-0.238552
-0.22267
-0.187036
-0.183167
-0.162036
-0.158937
-0.153597
-0.160385
-0.158507
-0.171878
-0.174864
-0.182149
-0.153823
-0.140362
-0.152217
-0.184547
-0.222398
-0.210543
-0.0738687
0.172783
0.534321
0.945815
1.42733
1.91889
2.25088
2.14319
1.66586
0.993665
0.331516
-0.205633
-0.58276
-0.819842
-0.911787
-0.923665
-0.715385
-0.547014
-0.438643
-0.420204
-0.471606
-0.527896
-0.553959
-0.574774
-0.585475
-0.595996
-0.611448
-0.601357
-0.595837
-0.600226
-0.61448
-0.650679
-0.668914
-0.669434
-0.65224
-0.646493
-0.66052
-0.667625
-0.666403
-0.651607
-0.63862
-0.593235
-0.571471
-0.549231
-0.522376
-0.461244
-0.410679
-0.355453
-0.310362
-0.270339
-0.205272
-0.135068
-0.0750905
-0.020181
0.0145701
0.0493665
0.0991176
0.17371
0.243145
0.312262
0.386222
0.430023
0.473778
0.512376
0.545837
0.563937
0.596833
0.619593
0.647172
0.654661
0.666878
0.668937
0.645837
0.632556
0.619027
0.610181
0.61095
0.586719
0.557624
0.51371
0.464955
0.43086
0.396516
0.372013
0.33233
0.287421
0.252217
0.231606
0.180633
0.12923
0.102194
0.0245246
0.0062893
-0.0121722
-0.0356112
-0.0638916
-0.112127
-0.135294
-0.138484
-0.146629
-0.159706
-0.18267
-0.170634
-0.153462
-0.136064
-0.103439
-0.06043
-0.0172626
0.0558369
0.0988686
0.142194
0.151425
0.156991
0.154366
0.15371
0.150452
0.0695247
-0.0198418
-0.109661
-0.146584
-0.156539
-0.149344
-0.144457
-0.146245
-0.169073
-0.177421
-0.195928
-0.20353
-0.210407
-0.206991
-0.208575
-0.195815
-0.188462
-0.191335
-0.194412
-0.192692
-0.196018
-0.219253
-0.257104
-0.219525
-0.196584
0.271538
0.759638
1.35287
1.92627
2.30986
2.31353
1.93722
1.27588
0.539615
-0.131561
-0.662783
-0.968914
-1.03998
-0.930883
-0.751652
-0.617059
-0.552263
-0.537285
-0.55715
-0.581788
-0.616131
-0.625634
-0.636086
-0.628009
-0.636946
-0.6531
-0.676403
-0.695905
-0.695046
-0.696991
-0.700702
-0.710973
-0.703145
-0.702987
-0.661358
-0.629276
-0.612512
-0.581561
-0.571245
-0.536086
-0.490928
-0.460543
-0.420091
-0.389616
-0.324276
-0.239005
-0.188756
-0.148484
-0.103168
-0.0829413
0.0120587
0.0818324
0.126403
0.185882
0.245339
0.309615
0.368778
0.402828
0.426561
0.48509
0.543439
0.596357
0.624118
0.626742
0.619253
0.606584
0.608642
0.615339
0.611787
0.593009
0.574027
0.564796
0.53543
0.480905
0.461199
0.391403
0.346629
0.331787
0.312014
0.262104
0.202104
0.156923
0.121471
0.100747
0.0547284
0.033371
0.02138
0.0138461
0.000791788
-0.00248879
-0.035973
-0.0644797
-0.0729638
-0.0814254
-0.0598869
-0.0383258
-0.0317646
-0.0251357
0.0166064
0.0335521
0.125634
0.157896
0.180272
0.202806
0.235588
0.233643
0.196878
0.120136
0.0283938
-0.0579863
-0.114118
-0.143009
-0.184638
-0.208461
-0.219638
-0.208891
-0.208054
-0.193914
-0.197828
-0.200113
-0.180385
-0.163054
-0.167217
-0.191878
-0.206335
-0.235113
-0.238462
-0.231606
-0.229864
-0.248281
-0.256674
-0.159977
0.102036
0.474321
0.946946
1.4648
1.98281
2.316
2.29914
1.87733
1.23048
0.508597
-0.138235
-0.620023
-0.916833
-1.00353
-0.905158
-0.706674
-0.543032
-0.504367
-0.495634
-0.546697
-0.587647
-0.608326
-0.593824
-0.589457
-0.585973
-0.619231
-0.665
-0.698597
-0.709412
-0.705498
-0.705113
-0.716968
-0.75767
-0.76319
-0.771176
-0.762195
-0.737217
-0.737127
-0.717489
-0.693349
-0.669276
-0.649977
-0.640407
-0.620588
-0.600792
-0.536063
-0.476358
-0.426584
-0.386742
-0.346901
-0.297059
-0.237353
-0.172896
-0.113529
-0.0693665
-0.00538462
0.0585521
0.137421
0.206154
0.25957
0.32776
0.385656
0.448371
0.515769
0.567986
0.590023
0.606878
0.613552
0.645023
0.656131
0.656855
0.652172
0.632172
0.622014
0.606765
0.586312
0.555566
0.514661
0.483507
0.457534
0.441448
0.405271
0.349118
0.292692
0.251086
0.224163
0.186787
0.143869
0.110498
0.0818325
0.068009
0.0390271
0.025
-0.0190724
-0.03819
-0.0423303
-0.0313122
-0.0252036
-0.0388914
-0.0423982
-0.0207466
0.0159728
0.0776923
0.104525
0.14138
0.158371
0.195611
0.207964
0.175679
0.118552
0.0369231
-0.033439
-0.0970362
-0.148326
-0.187149
-0.233529
-0.223416
-0.213394
-0.190226
-0.179977
-0.1981
-0.204299
-0.207873
-0.202986
-0.198575
-0.218778
-0.233213
-0.237104
-0.225928
-0.234706
-0.238597
-0.267376
-0.286154
-0.199231
0.073077
0.500747
1.08851
1.75115
2.25353
2.40088
2.13835
1.56597
1.36362
0.271131
-0.231425
-0.614118
-0.806833
-0.814434
-0.662014
-0.499434
-0.436855
-0.464253
-0.526538
-0.593756
-0.605837
-0.592964
-0.58543
-0.607964
-0.648145
-0.675633
-0.695588
-0.707421
-0.719525
-0.729977
-0.762692
-0.772376
-0.779299
-0.784163
-0.80233
-0.78914
-0.780068
-0.745792
-0.721923
-0.693416
-0.669955
-0.63629
-0.597263
-0.563054
-0.513869
-0.45957
-0.395272
-0.305882
-0.236471
-0.172036
-0.122624
-0.0632806
0.0159728
0.100136
0.179163
0.238054
0.301833
0.350498
0.37405
0.472376
0.515475
0.553235
0.580656
0.612828
0.629706
0.641403
0.647805
0.638937
0.619729
0.610385
0.620724
0.61586
0.585679
0.555453
0.504887
0.484027
0.467896
0.451584
0.430113
0.393688
0.362195
0.330792
0.284344
0.262805
0.166041
0.123891
0.111357
0.0934163
0.0751809
0.036629
0.00780547
-0.0161086
-0.0152262
-0.0142986
-0.0283936
-0.0323981
-0.0112669
0.0200001
0.0613123
0.102987
0.119842
0.131878
0.159027
0.201199
0.223552
0.221109
0.193801
0.126584
0.10448
-0.037466
-0.118801
-0.193778
-0.241584
-0.251538
-0.208326
-0.192715
-0.191335
-0.206154
-0.208552
-0.206878
-0.195136
-0.175611
-0.167783
-0.175814
-0.188959
-0.211629
-0.193891
-0.181176
-0.193756
-0.206719
-0.224932
-0.203326
-0.0717873
-0.00527146
0.621244
1.16294
1.73993
2.19733
2.31
2.0029
1.45088
0.818824
0.266719
-0.130498
-0.43276
-0.670068
-0.817217
-0.799254
-0.656109
-0.518054
-0.444955
-0.44181
-0.50353
-0.530023
-0.52138
-0.517557
-0.508416
-0.528846
-0.539072
-0.564887
-0.572104
-0.576516
-0.583484
-0.602738
-0.623258
-0.632828
-0.64
-0.633914
-0.644661
-0.647715
-0.648213
-0.606968
-0.549977
-0.522805
-0.491538
-0.476018
-0.430928
-0.37595
-0.320837
-0.295656
-0.260385
-0.225023
-0.149683
-0.119548
-0.0295248
0.030362
0.0951585
0.164932
0.24457
0.30414
0.35362
0.378054
0.412398
0.476403
0.545181
0.603416
0.636425
0.649412
0.64733
0.655
0.662285
0.639321
0.631177
0.622941
0.629593
0.625973
0.602195
0.553439
0.539661
0.46086
0.432036
0.403054
0.363891
0.349661
0.31052
0.281312
0.246855
0.226991
0.176606
0.125928
0.0794118
0.0523756
-0.00018096
-0.0430317
-0.0811086
-0.108982
-0.131923
-0.129977
-0.133258
-0.131606
-0.134864
-0.147919
-0.155814
-0.158484
-0.141086
-0.0936878
-0.0212217
0.0465384
0.0845475
0.107692
0.0958824
0.124163
0.152738
0.167104
0.146833
0.0745474
-0.00515836
-0.0970136
-0.146697
-0.18552
-0.195634
-0.203303
-0.193778
-0.171765
-0.166471
-0.177466
-0.20448
-0.227172
-0.239706
-0.201606
-0.187941
-0.179163
-0.180611
-0.197534
-0.199729
-0.196991
-0.219389
-0.256923
-0.219729
-0.0276698
0.339276
0.866335
1.48357
2.06086
2.41855
2.28161
1.805
1.14364
0.487421
-0.0887558
-0.56
-0.906199
-1.03722
-1.05292
-0.823575
-0.644208
-0.539864
-0.510339
-0.550543
-0.585362
-0.615068
-0.624638
-0.624163
-0.608394
-0.612466
-0.630996
-0.629163
-0.637036
-0.619683
-0.623326
-0.638213
-0.66
-0.674186
-0.650769
-0.628733
-0.611403
-0.606878
-0.614344
-0.613756
-0.570656
-0.515588
-0.479005
-0.451539
-0.41905
-0.38224
-0.326312
-0.286063
-0.261131
-0.216267
-0.161312
-0.106629
-0.047059
0.0124207
0.0617419
0.0911764
0.135475
0.194615
0.263552
0.317421
0.366109
0.414683
0.453122
0.496425
0.514457
0.55233
0.545023
0.567557
0.584887
0.612172
0.619344
0.596538
0.563643
0.550588
0.51233
0.493914
0.485385
0.451946
0.408733
0.370769
0.332557
0.314163
0.280452
0.241651
0.202715
0.193575
0.164072
0.13905
0.0885519
0.0673302
-0.00945711
-0.0318553
-0.0196381
-0.0326924
-0.0308146
-0.0489368
-0.0671721
-0.0805205
-0.0791404
-0.0978733
-0.096629
-0.0851585
-0.0385521
0.0131899
0.0549547
0.0868099
0.108778
0.140882
0.177964
0.215023
0.232556
0.231154
0.201629
0.16457
0.160452
0.0690949
-0.01043
-0.0754073
-0.122421
-0.137263
-0.15491
-0.145023
-0.162014
-0.170588
-0.194842
-0.189208
-0.172557
-0.159977
-0.161833
-0.173552
-0.210701
-0.218235
-0.221086
-0.204186
-0.202444
-0.215769
-0.254299
-0.283009
-0.291742
-0.280453
0.0109955
0.337579
0.799389
1.34652
1.904
2.26692
2.26514
1.83348
1.1969
0.530271
-0.0314027
-0.462851
-0.794095
-1.0152
-1.03122
-0.892036
-0.69267
-0.5481
-0.503507
-0.539005
-0.574344
-0.594321
-0.598914
-0.608145
-0.611991
-0.650882
-0.660317
-0.655882
-0.648213
-0.657806
-0.674842
-0.708688
-0.732941
-0.73586
-0.731493
-0.739616
-0.735113
-0.723258
-0.694186
-0.674434
-0.643009
-0.637036
-0.612082
-0.583009
-0.539231
-0.50043
-0.451471
-0.417398
-0.388439
-0.369638
-0.271018
-0.202579
-0.139231
-0.0860182
-0.0229413
0.0400677
0.103145
0.146199
0.16914
0.231832
0.299366
0.386606
0.453756
0.501063
0.523348
0.545543
0.577647
0.59457
0.631357
0.638009
0.634457
0.625882
0.612195
0.593642
0.590068
0.556425
0.532534
0.508462
0.494321
0.46509
0.400747
0.361267
0.316584
0.301516
0.270973
0.240113
0.193439
0.156063
0.128145
0.089932
0.0513574
0.0174886
-0.0415385
-0.0408146
-0.0252717
-0.0197287
-0.0191177
-0.0483259
-0.0724209
-0.0764933
-0.0255205
0.0204298
0.0564932
0.0976018
0.128914
0.155498
0.192149
0.208778
0.210362
0.192014
0.168756
0.132013
0.0669908
-0.0206788
-0.105792
-0.1631
-0.188643
-0.184072
-0.181358
-0.171358
-0.159208
-0.16957
-0.166787
-0.170407
-0.174932
-0.199525
-0.213462
-0.211584
-0.184163
-0.146719
-0.14457
-0.177715
-0.216109
-0.244706
-0.278529
-0.227511
-0.0867648
0.198869
0.639525
1.20025
1.78624
2.22758
2.35919
2.09611
1.62828
1.08552
0.537873
0.00533929
-0.467104
-0.604389
-0.951652
-0.848869
-0.651109
-0.493168
-0.445023
-0.49172
-0.548235
-0.584593
-0.595837
-0.606923
-0.607987
-0.60862
-0.608846
-0.613688
-0.623258
-0.647896
-0.673258
-0.700045
-0.703778
-0.704977
-0.698258
-0.717466
-0.725317
-0.750385
-0.756991
-0.730498
-0.721629
-0.691154
-0.664774
-0.623145
-0.586946
-0.571516
-0.526629
-0.502036
-0.437579
-0.373032
-0.278507
-0.209027
-0.154615
-0.0902715
-0.0209728
0.0330769
0.0820135
0.140769
0.20948
0.273032
0.356425
0.424661
0.47276
0.485724
0.548484
0.595973
0.643213
0.685113
0.721923
0.703711
0.70043
0.682059
0.673462
0.669661
0.650611
0.621539
0.592466
0.583371
0.559412
0.50534
0.481086
0.451697
0.437149
0.417444
0.412489
0.37224
0.321561
0.265385
0.248552
0.186086
0.158122
0.129842
0.106358
0.0678281
0.0293666
0.0209729
-0.00239813
-0.0257466
-0.0490497
-0.0522397
-0.0603845
-0.0434162
-0.0212895
0.0160408
0.0438915
0.0719911
0.105068
0.143054
0.181018
0.208982
0.227421
0.241742
0.242625
0.240656
0.18138
0.104932
0.0306336
-0.0429637
-0.0826923
-0.0793891
-0.103416
-0.119842
-0.128756
-0.139932
-0.13181
-0.120181
-0.117964
-0.139864
-0.161086
-0.157421
-0.164208
-0.156493
-0.154163
-0.167127
-0.160249
-0.163484
-0.191674
-0.219751
-0.232624
-0.160226
0.0573756
0.430204
0.898167
1.46124
1.97937
2.24762
2.03091
1.47923
0.757466
0.0905882
-0.416244
-0.743077
-0.929797
-0.951425
-0.852896
-0.689208
-0.580498
-0.531584
-0.522534
-0.548145
-0.578439
-0.593439
-0.603688
-0.604932
-0.627805
-0.642851
-0.665317
-0.679729
-0.694842
-0.699072
-0.700747
-0.714118
-0.719163
-0.711335
-0.696358
-0.664729
-0.632557
-0.605701
-0.573892
-0.543054
-0.512579
-0.482104
-0.451584
-0.421041
-0.360475
-0.294955
-0.239457
-0.189072
-0.168643
-0.103394
-0.0283712
0.046561
0.106448
0.151289
0.196041
0.245769
0.310362
0.359751
0.418869
0.472828
0.521312
0.559547
0.602692
0.610724
0.603575
0.601086
0.588371
0.590362
0.582104
0.55862
0.529887
0.495905
0.46681
0.452692
0.37862
0.329457
0.305136
0.290701
0.271154
0.241584
0.192036
0.142375
0.0874887
0.0573303
0.0268552
-0.00911766
-0.0405883
-0.0625792
-0.0750227
-0.107873
-0.135724
-0.15371
-0.136742
-0.109864
-0.0931222
-0.111244
-0.139095
-0.136765
-0.129366
-0.0569909
-0.00447956
0.0480996
0.0959277
0.148982
0.172195
0.195543
0.18405
0.157624
0.106267
0.0350001
-0.0358143
-0.110543
-0.163371
-0.184004
-0.181946
-0.187489
-0.191923
-0.192376
-0.185294
-0.16138
-0.145452
-0.1419
-0.144955
-0.14905
-0.153439
-0.162466
-0.16095
-0.169095
-0.182217
-0.200385
-0.213597
-0.191923
-0.0751809
0.191787
0.609163
1.1519
1.735
2.20817
2.41634
2.2845
1.77776
1.12604
0.454299
-0.137534
-0.604389
-0.911176
-0.987738
-0.874163
-0.825475
-0.576787
-0.518054
-0.524231
-0.555226
-0.570973
-0.581561
-0.591833
-0.617104
-0.6231
-0.645385
-0.634593
-0.646018
-0.659615
-0.689661
-0.704819
-0.712964
-0.718281
-0.730249
-0.734072
-0.725362
-0.699796
-0.648394
-0.612217
-0.611765
-0.6019
-0.592376
-0.547873
-0.498167
-0.448416
-0.408643
-0.373823
-0.314095
-0.25948
-0.21
-0.175701
-0.141448
-0.0874434
-0.0185746
0.0452263
0.113959
0.162625
0.191222
0.239615
0.307692
0.370453
0.437987
0.485339
0.512602
0.544706
0.561561
0.603213
0.59948
0.60043
0.591063
0.601561
0.621946
0.60224
0.55733
0.522059
0.486471
0.470588
0.444729
0.423824
0.377896
0.332081
0.286199
0.265068
0.228824
0.187285
0.145475
0.113281
0.0856562
0.0625792
0.0141403
-0.00450227
-0.0382806
-0.0520815
-0.0309277
-0.0247512
-0.0334389
-0.0569458
-0.0652942
-0.0484842
-0.0215612
0.0205203
0.0627601
0.0801584
0.122647
0.155362
0.1981
0.216199
0.199457
0.19276
0.161222
0.100294
0.0107692
-0.0866742
-0.171493
-0.193597
-0.188507
-0.182376
-0.186878
-0.178665
-0.178484
-0.161448
-0.152149
-0.16
-0.189344
-0.199208
-0.208778
-0.188281
-0.176833
-0.175226
-0.193688
-0.227285
-0.240882
-0.259321
-0.202511
0.00459272
0.332036
0.769638
1.31749
1.86534
2.25324
2.33109
1.92389
1.33663
0.639321
0.00199094
-0.515339
-0.872602
-1.0098
-0.916833
-0.723733
-0.555634
-0.477489
-0.484389
-0.536086
-0.562511
-0.568688
-0.590113
-0.597398
-0.606244
-0.617127
-0.615294
-0.630543
-0.661674
-0.691448
-0.708439
-0.711946
-0.717263
-0.730317
-0.732082
-0.708054
-0.688801
-0.664706
-0.650973
-0.662398
-0.653801
-0.61491
-0.575815
-0.516425
-0.467014
-0.407579
-0.353168
-0.293643
-0.248937
-0.214321
-0.154932
-0.0757693
0.00321254
0.0771945
0.146154
0.210068
0.238823
0.312308
0.395543
0.448507
0.506199
0.543529
0.580566
0.607353
0.638982
0.645385
0.636335
0.641946
0.642081
0.636968
0.616765
0.576538
0.535928
0.519977
0.498733
0.477398
0.441018
0.404638
0.36819
0.341538
0.294887
0.283235
0.191561
0.139819
0.117805
0.105588
0.08819
0.0455656
0.00257915
-0.0358145
-0.0545928
-0.0684615
-0.0922624
-0.0859955
-0.0895927
-0.0730995
-0.0516063
-0.0397963
-0.0327374
-0.010475
0.0268553
0.0742082
0.106629
0.144276
0.167217
0.17543
0.173756
0.157036
0.110362
0.0437784
-0.0473755
-0.127466
-0.18095
-0.217376
-0.216176
-0.222398
-0.221787
-0.205837
-0.181765
-0.165407
-0.167127
-0.171719
-0.183552
-0.182104
-0.176538
-0.180837
-0.189547
-0.197602
-0.185475
-0.193484
-0.21181
-0.225226
-0.138575
0.0780544
0.474796
0.971765
1.519
2.00667
2.22964
1.97765
1.42559
0.713416
0.0711991
-0.386041
-0.648281
-0.78052
-0.76767
-0.674706
-0.531674
-0.453575
-0.435634
-0.472738
-0.504774
-0.531652
-0.543213
-0.549548
-0.555543
-0.571357
-0.592398
-0.594253
-0.592489
-0.582534
-0.584502
-0.60819
-0.637647
-0.656222
-0.672692
-0.661787
-0.653258
-0.612104
-0.583733
-0.539525
-0.508281
-0.476878
-0.461041
-0.425747
-0.365905
-0.301199
-0.221244
-0.171176
-0.121063
-0.100995
-0.0161086
0.0435973
0.108235
0.152828
0.197376
0.246878
0.311335
0.380633
0.429796
0.468642
0.522376
0.560633
0.608665
0.651674
0.664615
0.657398
0.649864
0.642036
0.638914
0.63052
0.611946
0.593213
0.549344
0.530385
0.526425
0.472285
0.427941
0.378416
0.338778
0.329118
0.309479
0.284751
0.234932
0.180068
0.140068
0.119909
0.0994569
0.0635745
0.0271718
0.00031659
-0.0271495
-0.0449096
-0.0780091
-0.101244
-0.119615
-0.117987
-0.111267
-0.0994571
-0.117534
-0.120588
-0.143575
-0.121516
-0.0642987
-0.00187784
0.0606787
0.0833484
0.121176
0.144344
0.162715
0.156131
0.134502
0.118371
0.088371
0.0353846
-0.0252489
-0.103145
-0.163688
-0.183145
-0.178575
-0.156493
-0.142602
-0.141606
-0.157625
-0.164842
-0.167534
-0.180158
-0.177398
-0.184095
-0.165633
-0.152262
-0.134231
-0.136493
-0.154005
-0.161697
-0.184638
-0.17767
-0.0758598
0.140814
0.472557
0.924366
1.42165
1.87439
2.1124
1.98054
1.57371
1.07186
0.560136
0.0585068
-0.382896
-0.514095
-0.930113
-0.931041
-0.781946
-0.632783
-0.528462
-0.508959
-0.559186
-0.58405
-0.598688
-0.608122
-0.607443
-0.606425
-0.605136
-0.613597
-0.621923
-0.646312
-0.672059
-0.674661
-0.674321
-0.656063
-0.649118
-0.642059
-0.648145
-0.666403
-0.661448
-0.638642
-0.60371
-0.572376
-0.535498
-0.484005
-0.448235
-0.428213
-0.38362
-0.359231
-0.334796
-0.265226
-0.200769
-0.146493
-0.0924208
-0.0435294
0.00529411
0.0640724
0.127783
0.166312
0.209615
0.247715
0.300701
0.35362
0.406448
0.419208
0.476878
0.489321
0.526539
0.553575
0.570498
0.562285
0.549027
0.545634
0.532195
0.523552
0.504774
0.485724
0.456516
0.422421
0.393529
0.364683
0.325769
0.266742
0.217489
0.192986
0.19319
0.173077
0.14276
0.0971041
0.0759503
0.0192535
-0.0130768
-0.0308822
-0.0690723
-0.0725565
-0.0811538
-0.0847963
-0.0984614
-0.0971266
-0.12586
-0.129638
-0.123507
-0.102262
-0.0609049
-0.024389
0.0125114
0.0445929
0.0717648
0.0990273
0.14638
0.158801
0.176358
0.184525
0.168824
0.159887
0.0732354
-0.0159954
-0.0830769
-0.124072
-0.130543
-0.128665
-0.138846
-0.146154
-0.155679
-0.177195
-0.179299
-0.178258
-0.162217
-0.170452
-0.178009
-0.165045
-0.167059
-0.174412
-0.182104
-0.185181
-0.198575
-0.197172
-0.205837
-0.204525
-0.198235
0.0729412
0.413937
0.879864
1.39604
1.8976
2.21966
2.24208
1.86484
1.28278
0.610769
-0.0111539
-0.493077
-0.81491
-0.946629
-0.86819
-0.719434
-0.575475
-0.501516
-0.502466
-0.533439
-0.569321
-0.599887
-0.605113
-0.610091
-0.609819
-0.604299
-0.613484
-0.622579
-0.632036
-0.63767
-0.63491
-0.634231
-0.645724
-0.669073
-0.698122
-0.711177
-0.691561
-0.658665
-0.647444
-0.640181
-0.61948
-0.5981
-0.552127
-0.521946
-0.487738
-0.454005
-0.41043
-0.346697
-0.307806
-0.283914
-0.225113
-0.181539
-0.113235
-0.0351812
0.0428053
0.105814
0.158869
0.191878
0.239728
0.297421
0.355045
0.412398
0.44957
0.506652
0.568597
0.610543
0.632421
0.63914
0.625611
0.636968
0.648145
0.659276
0.640226
0.611086
0.596923
0.527738
0.508552
0.489276
0.45491
0.430339
0.395769
0.376063
0.346244
0.316154
0.260679
0.209864
0.173416
0.151335
0.148733
0.120837
0.0774888
0.0289819
-0.0147511
-0.0285973
-0.0325792
-0.0366742
-0.0457919
-0.0497963
-0.0635973
-0.0672171
-0.0807918
-0.0693213
-0.0478507
-0.00126693
0.0655204
0.122579
0.164751
0.177172
0.179661
0.172308
0.185158
0.199367
0.190158
0.138145
0.0635521
-0.0134389
-0.068733
-0.118778
-0.150385
-0.169593
-0.181674
-0.161425
-0.153235
-0.156493
-0.165362
-0.193914
-0.21181
-0.199163
-0.181335
-0.158778
-0.161606
-0.169683
-0.187964
-0.19638
-0.204955
-0.218665
-0.242398
-0.211109
-0.0745927
0.216968
0.60905
1.10152
1.62932
2.08724
2.29009
2.07771
1.54023
0.822873
0.120769
-0.0861765
-0.833054
-0.995
-0.921991
-0.753846
-0.555588
-0.462149
-0.448529
-0.504774
-0.570724
-0.606516
-0.617127
-0.597557
-0.578326
-0.584955
-0.621674
-0.656516
-0.673597
-0.692602
-0.697421
-0.716063
-0.726923
-0.724412
-0.713733
-0.705611
-0.705815
-0.699819
-0.683462
-0.642489
-0.592262
-0.557805
-0.538552
-0.524118
-0.469253
-0.419367
-0.364615
-0.315023
-0.270814
-0.211652
-0.157398
-0.0782353
-0.0240271
0.0249774
0.0738236
0.147534
0.221109
0.289457
0.342602
0.390588
0.433507
0.451425
0.539186
0.571606
0.608665
0.625362
0.646923
0.653394
0.659751
0.640996
0.617036
0.572806
0.558281
0.563552
0.563643
0.533575
0.483643
0.423643
0.388778
0.338914
0.318824
0.288439
0.25276
0.226968
0.221109
0.205
0.188439
0.116244
0.0634843
0.0303169
-0.00314462
-0.0118324
-0.0506107
-0.0844795
-0.11328
-0.116991
-0.115611
-0.109185
-0.107783
-0.08638
-0.0547737
0.00201371
0.0543441
0.0719006
0.0844571
0.106991
0.134683
0.162579
0.170611
0.15371
0.0920815
0.0712896
-0.0480769
-0.125566
-0.190747
-0.213394
-0.203778
-0.163032
-0.132986
-0.130203
-0.145588
-0.16914
-0.17862
-0.151538
-0.130203
-0.123507
-0.125995
-0.137805
-0.149321
-0.140973
-0.148122
-0.150792
-0.173846
-0.162127
-0.0503846
0.201425
0.29319
1.05475
1.6062
2.07783
2.28477
2.06724
1.505
0.812941
0.165995
-0.340815
-0.657647
-0.864502
-0.906403
-0.803303
-0.635068
-0.481561
-0.427828
-0.459005
-0.545204
-0.571222
-0.572082
-0.552692
-0.538077
-0.54819
-0.587896
-0.602398
-0.636946
-0.627534
-0.614706
-0.618982
-0.625566
-0.639073
-0.652987
-0.660498
-0.67
-0.670973
-0.658914
-0.619367
-0.578145
-0.531041
-0.503756
-0.477217
-0.446471
-0.421222
-0.371222
-0.316267
-0.246312
-0.206244
-0.146041
-0.0808372
-0.0558146
0.0339818
0.0685519
0.118032
0.18733
0.26147
0.325498
0.369344
0.40319
0.452081
0.500905
0.564547
0.607737
0.635701
0.643394
0.655905
0.653213
0.660271
0.667104
0.65862
0.639842
0.625837
0.606674
0.592376
0.563009
0.543552
0.44905
0.399502
0.394796
0.384932
0.344887
0.294706
0.254412
0.218959
0.193258
0.147059
0.12552
0.103235
0.0854525
0.0523756
0.00918546
-0.0389819
-0.0970589
-0.135091
-0.153009
-0.155928
-0.158846
-0.146765
-0.144412
-0.151742
-0.163778
-0.115611
-0.087353
-0.0441177
0.00923073
0.0578054
0.106652
0.145611
0.159728
0.16457
0.170656
0.182285
0.182489
0.140249
0.0701809
-0.0289141
-0.0938236
-0.131199
-0.14672
-0.165204
-0.155996
-0.158303
-0.151674
-0.145453
-0.144005
-0.161991
-0.184435
-0.19172
-0.179231
-0.17224
-0.165498
-0.173778
-0.181719
-0.204185
-0.241289
-0.238213
-0.154955
0.123281
0.516674
1.0252
1.60376
2.09729
2.25084
1.98937
1.36792
0.626448
-0.0300225
-0.496471
-0.837783
-0.998869
-1.02477
-0.840566
-0.66138
-0.547081
-0.512602
-0.527828
-0.572806
-0.61319
-0.639774
-0.6431
-0.638665
-0.646787
-0.666606
-0.6919
-0.710656
-0.703484
-0.711267
-0.705905
-0.727919
-0.737919
-0.731719
-0.700271
-0.664186
-0.658756
-0.623778
-0.608914
-0.563778
-0.538371
-0.512738
-0.462104
-0.391629
-0.33129
-0.28095
-0.240475
-0.194977
-0.134638
-0.0594344
0.0102941
0.0698643
0.124457
0.19405
0.258484
0.317715
0.366697
0.410543
0.464163
0.522534
0.570679
0.603597
0.601425
0.59905
0.596335
0.60819
0.619525
0.590475
0.571154
0.546697
0.537059
0.507217
0.462104
0.406697
0.36095
0.330136
0.324186
0.308145
0.252285
0.191222
0.145272
0.124231
0.0780091
0.0565159
0.029887
0.00319016
-0.00852931
-0.015475
-0.0228506
-0.0607692
-0.0790044
-0.0773755
-0.0708144
-0.0693212
-0.0527375
-0.0259954
0.0210182
0.0732807
0.115747
0.148235
0.165701
0.183281
0.206177
0.234186
0.237557
0.181041
0.0896381
-0.0018099
-0.0832126
-0.139412
-0.170068
-0.194389
-0.2069
-0.206991
-0.194321
-0.194344
-0.183733
-0.179366
-0.172783
-0.169547
-0.164253
-0.161176
-0.179909
-0.184728
-0.194887
-0.174434
-0.178281
-0.201719
-0.225023
-0.233348
-0.0816742
0.214955
0.651697
1.20389
1.78661
2.24473
2.37796
2.08113
1.93916
0.892217
0.255249
-0.286652
-0.703597
-0.925633
-0.93776
-0.799796
-0.616652
-0.493507
-0.465294
-0.517059
-0.58371
-0.630158
-0.626448
-0.602489
-0.594095
-0.611742
-0.66595
-0.692104
-0.695407
-0.695543
-0.696199
-0.720249
-0.736425
-0.749072
-0.753507
-0.755543
-0.735996
-0.735588
-0.705023
-0.689751
-0.655
-0.620634
-0.61129
-0.591833
-0.552308
-0.497715
-0.433054
-0.378326
-0.328688
-0.293959
-0.249231
-0.184593
-0.115158
-0.0509277
0.0181221
0.0870588
0.150905
0.219706
0.238394
0.336855
0.365045
0.428009
0.485724
0.553032
0.590045
0.616878
0.618575
0.620181
0.636539
0.647647
0.643348
0.628846
0.62414
0.619389
0.609231
0.573914
0.523552
0.478213
0.437851
0.417353
0.401697
0.370882
0.314977
0.29905
0.228054
0.19681
0.165091
0.152828
0.105091
0.0620362
0.023733
0.00522622
-0.00343895
-0.0321493
-0.0657919
-0.0843439
-0.0728734
-0.0614028
-0.0699322
-0.0731449
-0.0811539
-0.0589368
-0.00162908
0.0757239
0.123303
0.171063
0.194072
0.217194
0.220407
0.208733
0.162262
0.131719
0.082579
-0.0145024
-0.113937
-0.195566
-0.21991
-0.208462
-0.178326
-0.158846
-0.15414
-0.16233
-0.177896
-0.175294
-0.158688
-0.157195
-0.170249
-0.17267
-0.159706
-0.156833
-0.144434
-0.172444
-0.190747
-0.204095
-0.0174208
0.264276
0.650837
1.11226
1.62391
2.08102
2.26357
1.9714
1.3893
0.657195
0.0101131
-0.461946
-0.759072
-0.906131
-0.90319
-0.790091
-0.621878
-0.493552
-0.460158
-0.49181
-0.513507
-0.535091
-0.541312
-0.547149
-0.55767
-0.597896
-0.622896
-0.612828
-0.598054
-0.599321
-0.617172
-0.6419
-0.658575
-0.661991
-0.661357
-0.675385
-0.682308
-0.681493
-0.647376
-0.602081
-0.55233
-0.530837
-0.518552
-0.501561
-0.445407
-0.389932
-0.329842
-0.294909
-0.239909
-0.214751
-0.114434
-0.0540497
-0.00884613
0.0410407
0.105701
0.185317
0.259887
0.319434
0.363891
0.398032
0.447082
0.510815
0.56448
0.598032
0.616561
0.609774
0.612738
0.630498
0.643145
0.640724
0.623054
0.61
0.596765
0.598529
0.595271
0.526878
0.483258
0.439366
0.425294
0.40129
0.352421
0.308597
0.279842
0.256018
0.217036
0.172851
0.123303
0.0732353
0.0627602
0.0469684
0.015543
-0.0214253
-0.0690497
-0.112081
-0.120271
-0.118416
-0.111448
-0.10948
-0.127557
-0.140701
-0.143801
-0.131697
-0.094457
-0.0521945
-0.0148416
0.0326924
0.0853847
0.108394
0.126538
0.139751
0.157986
0.162195
0.177851
0.160498
0.095362
0.00785068
-0.0724209
-0.11172
-0.132195
-0.135181
-0.146516
-0.155792
-0.147127
-0.149751
-0.157896
-0.171018
-0.188643
-0.185634
-0.172149
-0.15871
-0.135588
-0.12776
-0.160249
-0.187896
-0.210656
-0.233643
-0.256968
-0.235475
-0.113778
0.178077
0.585701
1.06371
1.55688
2.00016
2.2736
2.21215
1.84075
1.25928
0.587806
0.381539
-0.539457
-0.890226
-1.04095
-0.976765
-0.792579
-0.628122
-0.533348
-0.50328
-0.533099
-0.572579
-0.611832
-0.635611
-0.629593
-0.609525
-0.604728
-0.638326
-0.654276
-0.67224
-0.69095
-0.683529
-0.683643
-0.685679
-0.699683
-0.701154
-0.700633
-0.668733
-0.646403
-0.629548
-0.613484
-0.598122
-0.5631
-0.503009
-0.472692
-0.452149
-0.426516
-0.39595
-0.340769
-0.280837
-0.211041
-0.161244
-0.106403
-0.0617647
-0.022285
0.0220815
0.0863349
0.140453
0.214344
0.287987
0.351403
0.374819
0.418167
0.43629
0.49414
0.551606
0.588778
0.600837
0.587896
0.589842
0.591606
0.593077
0.589344
0.56543
0.54138
0.52724
0.508213
0.483937
0.454683
0.400407
0.345905
0.316154
0.301131
0.276018
0.240792
0.190453
0.164819
0.0986426
0.0618553
0.0295702
-0.00307685
-0.0309502
-0.0239592
-0.0220135
-0.0400678
-0.0529185
-0.0857238
-0.0885519
-0.0864252
-0.0592307
-0.0368777
0.005611
0.0435069
0.0866517
0.134955
0.163235
0.181584
0.219955
0.253371
0.266833
0.230566
0.210068
0.0410634
-0.0559502
-0.105679
-0.133235
-0.153756
-0.157986
-0.16233
-0.138213
-0.126674
-0.133145
-0.145565
-0.15224
-0.150565
-0.129774
-0.123778
-0.13724
-0.160113
-0.172579
-0.17
-0.197692
-0.230769
-0.244118
-0.147398
0.0996381
0.202172
1.01014
1.60319
2.11638
2.33471
2.12308
1.60658
0.970091
0.358552
-0.152986
-0.564525
-0.856086
-0.962692
-0.859321
-0.670882
-0.507421
-0.438846
-0.475091
-0.541086
-0.606923
-0.627602
-0.6181
-0.603439
-0.59405
-0.610453
-0.628145
-0.667624
-0.679367
-0.698484
-0.714072
-0.724344
-0.742602
-0.742805
-0.739706
-0.738733
-0.74552
-0.740837
-0.715272
-0.684661
-0.639434
-0.609208
-0.584796
-0.575362
-0.535724
-0.485837
-0.430814
-0.39086
-0.346018
-0.296222
-0.231403
-0.206471
-0.106539
-0.0567647
0.00780541
0.087172
0.166335
0.24543
0.28948
0.323416
0.36724
0.415882
0.469412
0.512557
0.535407
0.568009
0.59043
0.612715
0.609977
0.602081
0.568869
0.560362
0.561516
0.562466
0.533235
0.503891
0.489389
0.414819
0.385158
0.360385
0.335498
0.295407
0.27009
0.239751
0.209389
0.173982
0.12819
0.0920361
0.0598868
0.0320814
0.0439593
0.0356561
0.0220361
-0.0166742
-0.0504299
-0.0640046
-0.0724435
-0.0709729
-0.0545928
-0.0431222
-0.00149319
0.0155203
0.0777601
0.11
0.112217
0.12957
0.157081
0.199683
0.217308
0.175068
0.108484
0.01819
-0.0714932
-0.117466
-0.150679
-0.181539
-0.191357
-0.19681
-0.184457
-0.16991
-0.183145
-0.188733
-0.191154
-0.159955
-0.144389
-0.15353
-0.151968
-0.169796
-0.182398
-0.185272
-0.19862
-0.222444
-0.246493
-0.260362
-0.153914
0.0728506
0.419842
0.857127
1.4045
1.96715
2.32489
2.29262
1.90536
1.27805
0.615792
0.0485747
-0.38862
-0.695882
-0.853258
-0.850543
-0.71267
-0.659548
-0.44629
-0.442986
-0.504774
-0.561448
-0.592851
-0.578823
-0.559547
-0.575136
-0.606108
-0.648031
-0.671584
-0.667014
-0.659774
-0.679525
-0.699547
-0.72457
-0.737443
-0.742692
-0.755226
-0.76509
-0.762624
-0.73819
-0.702624
-0.671855
-0.656697
-0.647285
-0.628213
-0.584118
-0.524819
-0.46552
-0.416176
-0.366855
-0.317534
-0.258213
-0.193914
-0.129615
-0.0656787
0.00803176
0.0866969
0.165294
0.238914
0.287489
0.330973
0.359299
0.412353
0.475181
0.527851
0.575453
0.592919
0.600385
0.642783
0.650045
0.647014
0.623597
0.599932
0.611041
0.617104
0.5931
0.563959
0.504729
0.465294
0.455837
0.441312
0.401493
0.371652
0.326448
0.291154
0.250747
0.204909
0.168529
0.136448
0.123597
0.105272
0.0965837
0.0827602
0.00877836
-0.0253845
-0.0445926
-0.0439592
-0.0384161
-0.0478732
-0.0372397
-0.00633469
0.0297287
0.0609051
0.0871495
0.103462
0.124842
0.16138
0.197919
0.224638
0.191471
0.133416
0.0708824
0.00438923
-0.0754977
-0.128213
-0.188213
-0.210384
-0.205679
-0.196018
-0.188009
-0.187647
-0.190158
-0.195068
-0.191832
-0.169977
-0.173869
-0.187737
-0.20586
-0.213665
-0.205475
-0.182466
-0.174932
-0.192737
-0.24095
-0.264276
-0.257737
-0.131471
0.134525
0.510249
1.01591
1.57167
2.0676
2.19882
2.27036
1.86722
1.32437
0.751674
0.198937
-0.273824
-0.661561
-0.874118
-0.901471
-0.738688
-0.555973
-0.463281
-0.475543
-0.532602
-0.569412
-0.590928
-0.587263
-0.588394
-0.619389
-0.645136
-0.66052
-0.655656
-0.635498
-0.650113
-0.660181
-0.706244
-0.724072
-0.739231
-0.741765
-0.725905
-0.729955
-0.736833
-0.755792
-0.751629
-0.734751
-0.720679
-0.694864
-0.658167
-0.596538
-0.545158
-0.495204
-0.475837
-0.436606
-0.387421
-0.318235
-0.249299
-0.175543
-0.121742
-0.0478959
-0.019095
0.0946607
0.16319
0.211493
0.269593
0.327534
0.395385
0.478077
0.535701
0.578258
0.570792
0.588281
0.615362
0.632195
0.678914
0.685634
0.682308
0.663778
0.640181
0.626516
0.597828
0.58914
0.56043
0.536561
0.502624
0.493688
0.434796
0.390792
0.356403
0.351448
0.350905
0.344819
0.303167
0.251109
0.188529
0.130656
0.107602
0.0843665
0.0409049
0.0122851
-0.0264254
-0.0553394
-0.0592308
-0.0529412
-0.0566064
-0.0852942
-0.104027
-0.112738
-0.0711991
-0.0292987
-0.0121946
0.0448869
0.0817873
0.128733
0.170928
0.198869
0.218235
0.214434
0.2031
0.189502
0.123439
0.0532353
-0.0215837
-0.0831901
-0.112127
-0.108597
-0.112285
-0.118054
-0.140498
-0.158824
-0.167285
-0.145
-0.136878
-0.133371
-0.139932
-0.141674
-0.153484
-0.150453
-0.152602
-0.140023
-0.142851
-0.165973
-0.164276
-0.17276
-0.156335
0.0149095
0.306063
0.762082
1.31819
1.87955
2.25604
2.28335
1.86097
1.26378
0.616538
0.0292533
-0.453032
-0.800159
-0.992149
-0.983982
-0.95552
-0.666923
-0.528122
-0.494276
-0.510226
-0.540996
-0.546493
-0.546787
-0.56681
-0.591448
-0.620498
-0.639276
-0.632783
-0.616787
-0.611923
-0.622308
-0.640837
-0.641448
-0.643801
-0.651855
-0.658801
-0.663326
-0.644683
-0.617919
-0.603665
-0.592353
-0.564796
-0.517036
-0.479977
-0.423914
-0.373711
-0.333982
-0.294208
-0.234389
-0.189525
-0.144751
-0.110045
-0.0506562
0.00859722
0.0827149
0.156833
0.216086
0.265317
0.30448
0.358461
0.397172
0.435566
0.478801
0.531946
0.564932
0.582873
0.625633
0.62819
0.615679
0.608122
0.605498
0.602602
0.594502
0.551176
0.497986
0.464909
0.456765
0.453665
0.425498
0.382308
0.349276
0.306199
0.283099
0.249728
0.205973
0.146833
0.0921493
0.0818778
0.0759502
0.049457
0.0375791
-0.024457
-0.036629
-0.0540271
-0.0716289
-0.0694796
-0.072466
-0.0753619
-0.0680995
-0.0657918
-0.0834388
-0.106086
-0.0937329
-0.0512442
0.00638026
0.0641404
0.102172
0.125317
0.168643
0.207149
0.230905
0.240543
0.226561
0.194774
0.135702
0.119502
-0.0248641
-0.0789818
-0.109932
-0.108507
-0.0898868
-0.0738235
-0.0998416
-0.112466
-0.120905
-0.134276
-0.122398
-0.124299
-0.120769
-0.13233
-0.12905
-0.126176
-0.108461
-0.100769
-0.138416
-0.201403
-0.239638
-0.192918
-0.0210405
0.271131
0.378643
1.12654
1.64975
2.11326
2.32195
2.11566
1.5693
0.882964
0.216833
-0.319072
-0.729909
-1.00077
-1.05163
-0.917376
-0.722919
-0.54819
-0.473235
-0.49319
-0.533054
-0.567647
-0.582014
-0.576109
-0.565023
-0.578778
-0.582692
-0.587398
-0.618575
-0.622059
-0.653122
-0.671425
-0.680656
-0.674299
-0.665747
-0.669299
-0.674638
-0.687127
-0.677353
-0.650792
-0.628529
-0.601765
-0.580271
-0.540204
-0.505362
-0.45543
-0.43543
-0.410543
-0.370837
-0.316244
-0.256606
-0.196991
-0.182443
-0.137964
-0.108597
-0.049276
0.0249095
0.0938009
0.142421
0.195837
0.259299
0.317783
0.371176
0.409434
0.437285
0.485023
0.512625
0.555136
0.582511
0.589751
0.566855
0.563869
0.550724
0.552195
0.543281
0.519163
0.490068
0.475995
0.416923
0.372715
0.338303
0.293801
0.259231
0.23948
0.22948
0.20414
0.163484
0.0922849
0.0658143
0.0384388
0.0205881
0.00246596
-0.0256789
-0.0486201
-0.0714255
-0.0643441
-0.0773758
-0.0853622
-0.113281
-0.0960409
-0.053688
-0.00119928
0.0164025
0.0742306
0.102285
0.105543
0.158914
0.207126
0.230203
0.218303
0.186923
0.136493
0.0674884
-0.0259505
-0.10586
-0.158281
-0.18353
-0.177806
-0.152896
-0.150385
-0.170905
-0.194389
-0.200317
-0.193258
-0.17767
-0.167444
-0.186765
-0.200362
-0.208303
-0.195996
-0.183892
-0.192059
-0.205408
-0.228778
-0.241991
-0.224797
-0.137127
0.106018
0.499344
1.06265
1.676
2.20425
2.45751
2.36086
1.90925
1.30767
0.646086
0.0444568
-0.442263
-0.799073
-0.955883
-0.862625
-0.814186
-0.505498
-0.461516
-0.492353
-0.552941
-0.583665
-0.579842
-0.567149
-0.586131
-0.617466
-0.656448
-0.687398
-0.718349
-0.742579
-0.753733
-0.738575
-0.738168
-0.745611
-0.761584
-0.76681
-0.767059
-0.742873
-0.709276
-0.690814
-0.672059
-0.662986
-0.623575
-0.588982
-0.554344
-0.519887
-0.475475
-0.401177
-0.331878
-0.267534
-0.223167
-0.163891
-0.0996607
-0.0257693
0.0478959
0.116425
0.174751
0.242919
0.310882
0.373756
0.411493
0.468982
0.505973
0.552647
0.594005
0.615181
0.616154
0.586855
0.57224
0.572217
0.586968
0.571516
0.54595
0.525091
0.49905
0.472851
0.436584
0.390068
0.343484
0.316719
0.299728
0.297896
0.266154
0.224547
0.15776
0.120679
0.098303
0.0804977
0.047285
0.0186877
-0.000181109
-0.00904986
-0.0378281
-0.0563349
-0.0747286
-0.0881901
-0.0867648
-0.0553168
-0.00366527
0.0233709
0.0556786
0.0880768
0.115498
0.133032
0.155769
0.173801
0.1769
0.165181
0.133484
0.0519455
-0.0692762
-0.17991
-0.224344
-0.246991
-0.252082
-0.249344
-0.249095
-0.257647
-0.241584
-0.222489
-0.216109
-0.207828
-0.202398
-0.179389
-0.163168
-0.167806
-0.192149
-0.236493
-0.269706
-0.282896
-0.296358
-0.255113
-0.138846
0.142692
0.559615
1.13186
1.76928
2.21181
2.24941
1.89204
1.26462
1.04219
-0.0551586
-0.487489
-0.764865
-0.872353
-0.81491
-0.642625
-0.480294
-0.427828
-0.450226
-0.497511
-0.534797
-0.551946
-0.558982
-0.545769
-0.542376
-0.53362
-0.53491
-0.557082
-0.590769
-0.606493
-0.619502
-0.614525
-0.620317
-0.635159
-0.642466
-0.646969
-0.623711
-0.6131
-0.605566
-0.58638
-0.540611
-0.489299
-0.438213
-0.407806
-0.373009
-0.333575
-0.279231
-0.204729
-0.140113
-0.100407
-0.0758373
-0.0313576
0.0331899
0.117737
0.192194
0.271493
0.350565
0.424412
0.483167
0.506878
0.540611
0.539208
0.572579
0.610611
0.628348
0.655814
0.653054
0.655068
0.657013
0.623891
0.600656
0.557059
0.528077
0.518801
0.519412
0.509909
0.47543
0.410995
0.366448
0.331855
0.317262
0.287647
0.257828
0.20785
0.187737
0.137421
0.1119
0.0660405
0.0145247
-0.0277831
-0.0508147
-0.0540499
-0.057421
-0.0709052
-0.0994572
-0.113145
-0.126946
-0.145701
-0.149276
-0.127828
-0.101154
-0.0543666
-0.0173305
0.0149772
0.0423754
0.0897963
0.147195
0.184615
0.212262
0.21509
0.178258
0.122059
0.0521944
-0.0306336
-0.0906788
-0.13767
-0.162466
-0.176946
-0.172964
-0.171742
-0.161471
-0.166154
-0.167806
-0.165792
-0.164276
-0.137353
-0.129548
-0.13095
-0.147195
-0.158778
-0.15586
-0.153394
-0.151177
-0.179118
-0.192104
-0.235181
-0.158258
0.0986651
0.490475
0.977127
1.53387
2.03595
2.27355
2.13163
1.63498
1.06842
0.52181
0.0652941
-0.301176
-0.632602
-0.928824
-1.01489
-0.920769
-0.731448
-0.577014
-0.497398
-0.507647
-0.55776
-0.582579
-0.587036
-0.571199
-0.575204
-0.608982
-0.632421
-0.635701
-0.634231
-0.628575
-0.624095
-0.630973
-0.639457
-0.649909
-0.657014
-0.654774
-0.651131
-0.626742
-0.587353
-0.549932
-0.525158
-0.52862
-0.521176
-0.49405
-0.432896
-0.357715
-0.303145
-0.283665
-0.24905
-0.214208
-0.164412
-0.104887
-0.0556108
-0.0164931
0.0226019
0.0916516
0.155634
0.209502
0.263349
0.301901
0.350294
0.418394
0.47629
0.52914
0.531946
0.539774
0.557511
0.570068
0.592466
0.599797
0.596923
0.568824
0.565588
0.522421
0.504299
0.476199
0.438077
0.419864
0.396561
0.363349
0.330294
0.272285
0.22414
0.195679
0.176765
0.167353
0.137398
0.0969911
0.0608825
0.0192535
-0.0126922
-0.029932
-0.0473754
-0.0600225
-0.0628279
-0.0608143
-0.043846
-0.0418777
-0.0748868
-0.0977602
-0.110611
-0.0935067
-0.0414479
0.0206788
0.0829639
0.120475
0.148145
0.17086
0.193665
0.201471
0.199683
0.204186
0.21052
0.184253
0.110747
0.0197738
-0.0699094
-0.125136
-0.137534
-0.122421
-0.114615
-0.113688
-0.119231
-0.151267
-0.149615
-0.148348
-0.151629
-0.153982
-0.165679
-0.162013
-0.143484
-0.140271
-0.162285
-0.194502
-0.211878
-0.224525
-0.242557
-0.200769
-0.0790723
0.172602
0.504276
0.870996
1.27772
1.72959
2.12176
2.2593
1.97729
1.84557
0.754186
0.108122
-0.417692
-0.808439
-1.00928
-0.975204
-0.786086
-0.616652
-0.51181
-0.501719
-0.531606
-0.591471
-0.61629
-0.620973
-0.610362
-0.609299
-0.617919
-0.63638
-0.649502
-0.672602
-0.686312
-0.671335
-0.663462
-0.648009
-0.659932
-0.698552
-0.717421
-0.730226
-0.715701
-0.6881
-0.67733
-0.668756
-0.628032
-0.586312
-0.549751
-0.533982
-0.509254
-0.460091
-0.411131
-0.352308
-0.298167
-0.263937
-0.234774
-0.200701
-0.137014
-0.0585521
0.00984159
0.0681674
0.121538
0.139842
0.233032
0.296109
0.333959
0.376719
0.419412
0.462081
0.504683
0.542285
0.554909
0.56267
0.565385
0.567738
0.574819
0.586742
0.583688
0.560792
0.533054
0.490385
0.462647
0.429706
0.401674
0.363462
0.354977
0.331267
0.32233
0.283235
0.233778
0.17862
0.132624
0.110814
0.0934389
0.0757692
0.0380091
-0.00490949
-0.0479638
-0.0511086
-0.059457
-0.0628507
-0.0713122
-0.0897964
-0.0832353
-0.0865611
-0.0697285
-0.0526471
-0.0304525
0.00674203
0.0539366
0.106176
0.153484
0.165905
0.178665
0.182127
0.186855
0.183235
0.181357
0.146471
0.0837782
0.0130316
-0.0668327
-0.11276
-0.149231
-0.175634
-0.195023
-0.19181
-0.185339
-0.169502
-0.163371
-0.181358
-0.203665
-0.210679
-0.202851
-0.180475
-0.163665
-0.152149
-0.165769
-0.224367
-0.262964
-0.266697
-0.280543
-0.229367
-0.0479865
0.288756
0.785995
1.36357
1.95149
2.37952
2.48249
2.24538
1.73317
1.066
0.374004
-0.227851
-0.699683
-0.926312
-0.922896
-0.754367
-0.570792
-0.467014
-0.452964
-0.463688
-0.55414
-0.599299
-0.619253
-0.634208
-0.609706
-0.611244
-0.629367
-0.639457
-0.666765
-0.690769
-0.714841
-0.731787
-0.725633
-0.736131
-0.735475
-0.740973
-0.73009
-0.723529
-0.717014
-0.721063
-0.70086
-0.646222
-0.601833
-0.572308
-0.552511
-0.527489
-0.492489
-0.43767
-0.378167
-0.298801
-0.249615
-0.180407
-0.106267
-0.052104
0.00687793
0.0509504
0.104751
0.183326
0.271539
0.354502
0.417217
0.464819
0.497353
0.539638
0.571561
0.588145
0.604593
0.620905
0.642172
0.648213
0.63905
0.604684
0.575113
0.540407
0.520521
0.500453
0.470362
0.445362
0.420521
0.380702
0.350656
0.320362
0.294796
0.264027
0.248168
0.217082
0.185679
0.148756
0.0913349
0.0433938
0.0301132
0.0265838
0.0379639
0.0392762
0.0307693
-0.0325564
-0.065656
-0.0735971
-0.0565158
-0.0194343
0.0228281
0.0903168
0.153077
0.191018
0.21414
0.217353
0.215475
0.23362
0.236878
0.215159
0.143846
0.0485522
-0.0449772
-0.105973
-0.154231
-0.174774
-0.178326
-0.161403
-0.130407
-0.111629
-0.11586
-0.13328
-0.133439
-0.145633
-0.123801
-0.121968
-0.124547
-0.151516
-0.168213
-0.175022
-0.182036
-0.199706
-0.217828
-0.196222
-0.0497283
0.236923
0.65862
1.15545
1.6974
2.11962
2.14715
1.76498
1.13792
0.430928
0.213869
-0.598145
-0.86509
-0.977036
-0.933959
-0.800973
-0.633077
-0.510113
-0.456878
-0.483462
-0.534932
-0.591358
-0.612738
-0.603914
-0.579796
-0.580407
-0.575611
-0.610792
-0.636448
-0.653235
-0.641878
-0.677805
-0.666222
-0.676177
-0.661267
-0.65948
-0.629729
-0.621606
-0.620339
-0.596493
-0.550701
-0.508824
-0.472036
-0.440815
-0.425272
-0.375158
-0.340204
-0.280158
-0.230158
-0.175339
-0.110634
-0.0408824
0.00889128
0.0436198
0.0682578
0.11776
0.187104
0.261335
0.33052
0.38457
0.403507
0.452511
0.48638
0.535
0.568303
0.596267
0.618982
0.631584
0.624163
0.621697
0.589118
0.56138
0.533145
0.509593
0.490837
0.472081
0.428099
0.389163
0.35543
0.336765
0.312964
0.284004
0.249796
0.210384
0.185792
0.170927
0.135701
0.0949773
0.0436198
-0.0182355
-0.0455884
-0.0583486
-0.0713123
-0.0743666
-0.107353
-0.130226
-0.133077
-0.120928
-0.118801
-0.141561
-0.154299
-0.151697
-0.113982
-0.0661312
-0.0232127
0.0148416
0.0480316
0.10129
0.154593
0.192964
0.201787
0.191493
0.18267
0.140837
0.116312
0.0443665
-0.030543
-0.100226
-0.126606
-0.125792
-0.118167
-0.126425
-0.153348
-0.151516
-0.16043
-0.144231
-0.13776
-0.140679
-0.153168
-0.155498
-0.158167
-0.156177
-0.149434
-0.16776
-0.185996
-0.193914
-0.211493
-0.17362
-0.00549778
0.312783
0.771131
1.32959
1.91785
2.30622
2.40975
2.07844
1.50213
0.815905
0.164774
-0.37638
-0.767466
-0.978416
-0.94414
-0.804638
-0.639977
-0.525136
-0.485068
-0.51491
-0.539842
-0.530294
-0.541923
-0.575068
-0.605113
-0.632602
-0.647059
-0.651742
-0.664615
-0.674163
-0.69491
-0.687398
-0.687421
-0.711244
-0.704774
-0.673937
-0.633824
-0.608824
-0.594072
-0.574005
-0.563688
-0.533281
-0.497851
-0.462557
-0.407398
-0.362353
-0.31733
-0.292398
-0.197421
-0.157579
-0.127896
-0.0734163
0.000859767
0.0649774
0.128982
0.178009
0.241946
0.310769
0.374434
0.417828
0.465996
0.483869
0.531471
0.568801
0.585882
0.592873
0.584729
0.581312
0.587602
0.57862
0.564457
0.540045
0.525385
0.47552
0.455475
0.425317
0.385023
0.339593
0.304095
0.28362
0.258145
0.227715
0.15224
0.106539
0.0706336
0.0544119
0.0428282
0.0160635
-0.0112216
-0.0338913
-0.0418777
-0.049932
-0.0530089
-0.0761085
-0.079208
-0.0722849
-0.0202034
-0.00291842
0.0695476
0.10224
0.130113
0.1481
0.196267
0.219502
0.217828
0.211358
0.199978
0.153756
0.0777151
-0.018303
-0.108982
-0.168778
-0.197059
-0.203054
-0.181425
-0.177127
-0.201063
-0.199547
-0.179434
-0.156878
-0.162398
-0.155905
-0.1519
-0.144819
-0.163869
-0.188009
-0.201765
-0.235022
-0.242896
-0.235679
-0.163552
-0.00642526
0.300928
0.693529
1.17633
1.75934
2.22249
2.2907
1.93421
1.26274
0.49129
-0.165271
-0.661855
-0.913462
-0.935158
-0.766833
-0.563371
-0.509819
-0.431244
-0.48267
-0.528982
-0.560181
-0.571335
-0.577443
-0.578394
-0.584321
-0.605882
-0.608801
-0.643801
-0.665973
-0.68043
-0.681289
-0.667217
-0.665656
-0.675905
-0.717556
-0.736199
-0.732624
-0.707783
-0.677466
-0.662624
-0.643394
-0.639593
-0.600724
-0.551651
-0.53733
-0.502851
-0.46828
-0.418665
-0.354117
-0.294593
-0.230045
-0.190384
-0.150633
-0.101131
-0.0317871
0.0523306
0.131245
0.189932
0.223484
0.281991
0.33034
0.383507
0.446267
0.483665
0.545702
0.582534
0.594118
0.630453
0.631561
0.622353
0.602806
0.602964
0.612874
0.602534
0.571991
0.541245
0.490521
0.469706
0.428982
0.388122
0.352104
0.311086
0.294864
0.27862
0.242285
0.205769
0.15405
0.107014
0.0845025
0.0465839
0.0182807
-0.00029394
-0.0489139
-0.0724207
-0.0756559
-0.0787103
-0.0768777
-0.100022
-0.113031
-0.120837
-0.113439
-0.105837
-0.073054
-0.0351808
0.017783
0.0708146
0.123846
0.152014
0.170317
0.158756
0.132738
0.0926245
0.0290498
-0.0426696
-0.107104
-0.148914
-0.158484
-0.207579
-0.208167
-0.21181
-0.204072
-0.194298
-0.19681
-0.210475
-0.219389
-0.227715
-0.215384
-0.203032
-0.195475
-0.208303
-0.23147
-0.219819
-0.203258
-0.211742
-0.17009
0.00681001
0.344005
0.821493
1.3891
1.92686
2.25966
2.32253
1.84057
1.19376
0.456968
-0.164977
-0.597127
-0.814344
-0.861493
-0.718552
-0.540588
-0.432489
-0.404366
-0.416109
-0.457602
-0.488914
-0.520023
-0.535905
-0.516833
-0.5231
-0.545294
-0.598982
-0.639774
-0.642986
-0.638145
-0.628756
-0.63267
-0.633575
-0.641041
-0.65052
-0.63767
-0.623122
-0.602466
-0.56138
-0.510634
-0.475339
-0.425498
-0.390905
-0.361154
-0.306267
-0.231357
-0.166561
-0.106697
-0.0667421
-0.0166969
0.0433484
0.0981447
0.14267
0.202149
0.271448
0.340588
0.364661
0.463529
0.497308
0.520995
0.559525
0.597851
0.625905
0.658688
0.65629
0.653643
0.655792
0.63776
0.604299
0.560588
0.516697
0.50776
0.493575
0.474095
0.444344
0.389457
0.349457
0.314299
0.304095
0.268778
0.233462
0.223213
0.163054
0.127873
0.107511
0.0617874
0.0206562
-0.010837
-0.0276922
-0.0499094
-0.0474433
-0.0802261
-0.118145
-0.146357
-0.144593
-0.117941
-0.121244
-0.114321
-0.11224
-0.0800226
-0.042647
0.0148417
0.0623756
0.0950679
0.128032
0.156177
0.16448
0.172941
0.176629
0.145475
0.0847059
-0.0001131
-0.0633484
-0.114367
-0.15767
-0.163416
-0.157466
-0.156063
-0.1719
-0.175747
-0.177941
-0.152941
-0.139842
-0.137692
-0.135928
-0.133688
-0.150769
-0.157647
-0.154593
-0.166833
-0.199412
-0.217172
-0.240068
-0.187986
-0.0558371
0.201403
0.588846
1.08649
1.65437
2.12756
2.29097
1.99452
1.40312
0.696674
0.0652262
-0.396358
-0.727941
-0.924457
-0.960837
-0.851923
-0.692783
-0.558575
-0.494231
-0.494683
-0.524955
-0.539932
-0.534525
-0.549005
-0.558824
-0.589864
-0.622806
-0.603213
-0.601109
-0.620453
-0.629367
-0.640973
-0.66448
-0.65991
-0.652263
-0.642353
-0.636131
-0.619502
-0.603303
-0.582783
-0.557579
-0.532489
-0.50733
-0.477014
-0.421697
-0.381516
-0.336471
-0.321539
-0.256584
-0.206674
-0.151787
-0.121991
-0.0823756
-0.0329865
0.0161538
0.0852714
0.144321
0.18828
0.227194
0.265747
0.329072
0.402149
0.47
0.512602
0.529932
0.537127
0.539095
0.546018
0.557602
0.563801
0.559525
0.575068
0.570566
0.530905
0.496063
0.45595
0.415633
0.385249
0.389864
0.36957
0.319253
0.268846
0.213303
0.192624
0.161787
0.120769
0.0794117
0.0476923
0.0353846
0.0227828
-0.0099774
-0.0379186
-0.0809502
-0.11905
-0.107262
-0.0904299
-0.0884615
-0.0913575
-0.104027
-0.111516
-0.0738461
-0.0359955
-0.00798646
0.055
0.0980769
0.151335
0.184774
0.193326
0.191923
0.180566
0.18448
0.159004
0.0947511
0.00244337
-0.0774888
-0.134774
-0.159887
-0.159231
-0.154887
-0.133145
-0.134683
-0.114163
-0.10586
-0.114163
-0.133529
-0.168258
-0.17776
-0.16672
-0.155159
-0.173303
-0.191425
-0.209616
-0.22776
-0.195634
-0.0682128
0.234593
0.697534
1.29543
1.89355
2.25179
2.21007
1.76339
1.1417
0.479864
-0.107059
-0.578959
-0.850837
-0.907624
-0.779366
-0.606063
-0.50776
-0.489367
-0.510837
-0.547172
-0.568416
-0.574321
-0.589955
-0.610566
-0.626787
-0.63405
-0.653032
-0.669253
-0.691199
-0.6919
-0.683394
-0.699072
-0.727624
-0.748416
-0.751267
-0.731403
-0.714253
-0.675136
-0.664955
-0.644502
-0.609547
-0.590271
-0.556358
-0.537557
-0.488597
-0.43448
-0.350181
-0.300769
-0.256131
-0.216425
-0.162014
-0.0927602
-0.00868779
0.0502262
0.11414
0.148145
0.192081
0.250792
0.314276
0.357511
0.405656
0.453642
0.501425
0.523982
0.571403
0.573778
0.555973
0.547873
0.554412
0.565611
0.581493
0.547262
0.507964
0.473484
0.448823
0.423869
0.393688
0.358394
0.328167
0.317534
0.291833
0.256063
0.205339
0.149525
0.123416
0.0920134
0.0853393
0.0835293
0.0714704
0.0289592
0.000904888
-0.017715
-0.0267422
-0.0359051
-0.0450679
-0.0642309
-0.0482354
-0.0321268
-0.00576934
0.0157465
0.0523076
0.0938461
0.150271
0.186697
0.203597
0.200814
0.193077
0.17543
0.147851
0.0903618
0.00821251
-0.0882128
-0.148168
-0.165928
-0.185837
-0.192919
-0.203168
-0.203462
-0.195656
-0.180634
-0.153597
-0.15405
-0.156493
-0.180068
-0.183869
-0.18715
-0.174774
-0.177172
-0.18957
-0.202466
-0.200702
-0.229231
-0.257828
-0.226561
-0.0854527
0.200452
0.621403
1.1626
1.34416
2.20609
2.4233
2.28572
1.87819
1.32061
0.708054
0.140566
-0.331855
-0.709276
-0.876584
-0.873778
-0.725882
-0.562806
-0.479774
-0.456652
-0.488552
-0.515204
-0.551561
-0.582489
-0.618235
-0.638733
-0.614276
-0.615272
-0.617308
-0.625792
-0.661063
-0.683235
-0.697172
-0.706878
-0.715475
-0.721652
-0.724683
-0.719593
-0.711968
-0.697443
-0.691787
-0.685543
-0.649525
-0.609208
-0.54914
-0.509955
-0.470882
-0.426719
-0.387579
-0.338462
-0.294434
-0.235543
-0.186878
-0.118416
-0.0901131
0.03319
0.116674
0.180136
0.228416
0.286425
0.36414
0.431787
0.484299
0.521742
0.554095
0.591425
0.618462
0.660362
0.687081
0.68371
0.675068
0.67129
0.652353
0.623484
0.589593
0.565543
0.551267
0.541946
0.537692
0.533575
0.444525
0.390407
0.366018
0.331335
0.30138
0.266018
0.225158
0.193665
0.171652
0.149276
0.116674
0.0888462
0.0406787
0.00710407
-0.0216289
-0.030543
-0.0343665
-0.073009
-0.106584
-0.130181
-0.138846
-0.127421
-0.10086
-0.0541629
-0.0373529
0.0495476
0.0866064
0.128914
0.136267
0.14853
0.161018
0.189276
0.174027
0.105928
0.020543
-0.0689366
-0.114434
-0.128846
-0.13371
-0.135339
-0.149253
-0.160837
-0.154796
-0.140882
-0.13362
-0.157081
-0.165566
-0.178484
-0.155679
-0.147421
-0.128982
-0.140656
-0.157579
-0.174909
-0.172692
-0.190837
-0.149208
-0.00262433
0.288846
0.685204
1.13154
1.60774
2.02396
2.23014
2.03633
1.55801
0.900136
0.252647
-0.264547
-0.641652
-0.873756
-0.96095
-0.913167
-0.780204
-0.736991
-0.538462
-0.504751
-0.510905
-0.5419
-0.577738
-0.593416
-0.588959
-0.564231
-0.549231
-0.548801
-0.578122
-0.626855
-0.645385
-0.639253
-0.628168
-0.619593
-0.6331
-0.63905
-0.636923
-0.625362
-0.637489
-0.617353
-0.614751
-0.589548
-0.57181
-0.511855
-0.480226
-0.452919
-0.440973
-0.410136
-0.340271
-0.260814
-0.206357
-0.171719
-0.136923
-0.107127
-0.0677375
-0.00359726
0.0604978
0.10948
0.178371
0.237217
0.300928
0.324661
0.348281
0.381787
0.410091
0.473258
0.546199
0.574005
0.616742
0.609457
0.597059
0.584412
0.591516
0.588439
0.570136
0.541765
0.528371
0.505068
0.47681
0.433778
0.385588
0.35233
0.349027
0.335566
0.312059
0.273484
0.224548
0.169977
0.154729
0.138778
0.117308
0.0804751
0.0633031
0.0108597
-0.0117647
-0.0545476
-0.0574436
-0.0704526
-0.0785974
-0.0718779
-0.0501585
-0.0483485
-0.0663802
-0.0843214
-0.0921268
-0.0648418
-0.0124662
0.0549094
0.0974433
0.125
0.157964
0.18181
0.207149
0.209434
0.213801
0.200475
0.214276
0.219276
0.123642
0.0309501
-0.0496608
-0.1081
-0.123846
-0.116244
-0.0996834
-0.0985069
-0.112014
-0.134751
-0.15224
-0.158959
-0.155769
-0.152896
-0.155272
-0.148122
-0.141199
-0.149344
-0.167466
-0.200543
-0.233552
-0.246561
-0.214615
-0.0824662
-0.0297965
0.578303
1.11165
1.71507
2.18839
2.34667
2.08511
1.61862
1.09729
0.560996
0.0247286
-0.471493
-0.852421
-1.00819
-0.948937
-0.734706
-0.555452
-0.490837
-0.505701
-0.555204
-0.594525
-0.598982
-0.599095
-0.600453
-0.618552
-0.633959
-0.651742
-0.685837
-0.704706
-0.746539
-0.745566
-0.741606
-0.725091
-0.716629
-0.706539
-0.700294
-0.703778
-0.69767
-0.667376
-0.64276
-0.613326
-0.588643
-0.538778
-0.503891
-0.464118
-0.429389
-0.414729
-0.370158
-0.290837
-0.226742
-0.202738
-0.148597
-0.119435
-0.0704073
-0.00162905
0.0719456
0.135271
0.198484
0.261629
0.319593
0.382353
0.434932
0.457217
0.479344
0.511131
0.552828
0.594185
0.605385
0.601448
0.572443
0.56319
0.553575
0.543665
0.513552
0.478394
0.463258
0.433122
0.412941
0.367602
0.322127
0.286538
0.255724
0.244593
0.213258
0.161697
0.105045
0.0533258
0.0309955
0.0181221
-0.00515833
-0.013733
-0.0272851
-0.0307466
-0.0340272
-0.0571267
-0.095181
-0.108235
-0.0813349
-0.0293665
0.0327828
0.0551358
0.122692
0.155498
0.173439
0.191425
0.19448
0.177579
0.145701
0.103914
0.0373982
-0.073371
-0.158778
-0.201267
-0.221267
-0.193484
-0.163529
-0.167805
-0.17819
-0.180634
-0.180362
-0.157579
-0.152421
-0.164683
-0.178824
-0.168801
-0.163575
-0.147557
-0.165814
-0.208891
-0.242082
-0.255475
-0.19905
-0.0325566
0.274163
0.716312
1.28385
1.85172
2.20475
2.20767
1.8155
1.21314
0.57086
0.0336426
-0.373484
-0.675611
-0.862738
-0.899819
-0.771946
-0.60414
-0.471267
-0.448371
-0.500317
-0.547059
-0.573461
-0.579706
-0.58595
-0.597692
-0.610588
-0.604887
-0.610588
-0.632918
-0.677308
-0.708099
-0.714005
-0.707941
-0.720815
-0.723054
-0.712262
-0.709344
-0.685068
-0.670249
-0.640611
-0.621493
-0.602941
-0.564593
-0.541018
-0.471968
-0.437602
-0.3931
-0.348643
-0.284344
-0.215136
-0.16095
-0.116765
-0.0725792
-0.0183484
0.0559276
0.115045
0.184027
0.252738
0.306199
0.384412
0.457466
0.505407
0.538167
0.565656
0.577896
0.609774
0.631358
0.637715
0.643891
0.624932
0.615747
0.596403
0.561765
0.541765
0.521403
0.515747
0.494977
0.459253
0.418552
0.372783
0.327081
0.306358
0.29043
0.259502
0.218122
0.181471
0.149548
0.122285
0.0895702
0.0612444
0.0225566
0.00366527
-0.0103167
-0.019208
-0.033009
-0.0517646
-0.0654072
-0.0838913
-0.072285
-0.0305203
0.00642541
0.0385069
0.0657693
0.0782354
0.115883
0.133711
0.156493
0.164254
0.156946
0.15491
0.133303
0.0826245
-0.0114705
-0.108326
-0.187466
-0.223914
-0.213756
-0.193597
-0.18009
-0.184253
-0.191244
-0.195656
-0.191991
-0.189751
-0.203529
-0.207737
-0.196606
-0.189887
-0.177692
-0.190543
-0.218801
-0.252421
-0.26129
-0.230204
-0.0939365
0.16767
0.514729
0.897217
1.315
1.78774
2.14538
2.19294
1.80057
1.62814
0.450747
-0.161606
-0.573891
-0.816154
-0.883371
-0.785633
-0.622805
-0.479864
-0.416765
-0.438529
-0.505204
-0.536471
-0.557443
-0.553235
-0.548869
-0.540475
-0.548439
-0.563348
-0.600701
-0.655317
-0.690973
-0.695747
-0.692919
-0.681787
-0.672443
-0.650611
-0.641787
-0.621425
-0.605317
-0.589299
-0.583846
-0.549095
-0.499706
-0.455271
-0.430543
-0.400588
-0.355611
-0.315701
-0.245882
-0.181244
-0.131674
-0.0720814
-0.012466
0.0370589
0.101425
0.145588
0.20457
0.248303
0.316855
0.340294
0.448597
0.496652
0.529615
0.567376
0.604819
0.6319
0.628778
0.630475
0.627059
0.628507
0.629796
0.605792
0.561448
0.516855
0.492149
0.477172
0.442127
0.402014
0.351855
0.321674
0.291335
0.270882
0.265181
0.22948
0.213642
0.142647
0.106448
0.0699321
0.0280091
-0.0245023
-0.0575114
-0.0859729
-0.0896607
-0.0882579
-0.116742
-0.130113
-0.148394
-0.151697
-0.135
-0.123258
-0.0861991
-0.028914
0.0235521
0.0612444
0.0891177
0.122104
0.160204
0.193258
0.221335
0.224502
0.177964
0.0922398
-0.0170815
-0.099706
-0.160498
-0.159389
-0.166109
-0.156109
-0.155792
-0.122127
-0.124186
-0.131584
-0.136787
-0.143869
-0.137081
-0.120792
-0.119276
-0.132195
-0.154638
-0.151946
-0.154548
-0.182647
-0.221018
-0.22448
-0.222828
0.0490497
0.411267
0.88871
1.4664
2.00423
2.2821
2.15498
1.63292
0.965882
0.318937
-0.182873
-0.549502
-0.821109
-0.942715
-0.894299
-0.74586
-0.582398
-0.473733
-0.464796
-0.525656
-0.571425
-0.597014
-0.592285
-0.59233
-0.587285
-0.592602
-0.618982
-0.631923
-0.636855
-0.644186
-0.648439
-0.663145
-0.661493
-0.647217
-0.639796
-0.639638
-0.622014
-0.632715
-0.612059
-0.560905
-0.504367
-0.478371
-0.468032
-0.453077
-0.42819
-0.393145
-0.332941
-0.267873
-0.218054
-0.203439
-0.123824
-0.0590952
0.000542849
0.0499773
0.0890949
0.143077
0.211968
0.290882
0.319819
0.36362
0.397375
0.445769
0.499027
0.542059
0.579864
0.59224
0.609434
0.616493
0.598507
0.585475
0.567104
0.538484
0.534593
0.530566
0.526516
0.462398
0.403213
0.36405
0.329864
0.300566
0.291131
0.256516
0.241765
0.206946
0.182059
0.152036
0.111584
0.0654298
0.0384841
0.0160407
0.0130769
0.00506783
-0.0180995
-0.0413349
-0.0696154
-0.0827828
-0.0809276
-0.0741177
-0.0723303
-0.0654977
-0.0234615
0.0238688
0.061448
0.0991177
0.131765
0.174593
0.217602
0.245679
0.243756
0.221946
0.175339
0.110181
0.05681
-0.00427604
-0.0577602
-0.10371
-0.118258
-0.11819
-0.105362
-0.105452
-0.123484
-0.143891
-0.145928
-0.134163
-0.132873
-0.131267
-0.139095
-0.156335
-0.173371
-0.180611
-0.183258
-0.201244
-0.234389
-0.252692
-0.211131
-0.0745476
0.202149
0.598846
1.09063
1.66249
2.14493
2.28283
2.03602
1.49441
0.862919
0.276403
-0.165136
-0.491652
-0.763213
-0.839774
-0.891131
-0.747172
-0.608077
-0.523982
-0.514819
-0.550656
-0.58638
-0.581787
-0.571742
-0.571357
-0.595995
-0.635814
-0.651335
-0.647986
-0.629887
-0.634932
-0.652194
-0.686063
-0.70491
-0.717081
-0.726403
-0.717602
-0.721018
-0.702059
-0.686425
-0.634842
-0.61819
-0.607104
-0.591923
-0.572353
-0.518032
-0.468643
-0.419118
-0.384502
-0.354864
-0.320226
-0.260814
-0.201629
-0.137624
-0.0687556
-0.00511307
0.0735974
0.147217
0.20086
0.249412
0.287806
0.340996
0.413959
0.481787
0.50948
0.562014
0.569457
0.591878
0.609163
0.611244
0.613054
0.599683
0.601109
0.602421
0.588643
0.554796
0.510882
0.461878
0.43276
0.41871
0.38448
0.345226
0.305882
0.271448
0.24681
0.206855
0.161448
0.130453
0.103846
0.106674
0.0840951
0.0511992
0.00805435
-0.0202488
-0.043733
-0.0423529
-0.0211312
-0.0298642
-0.0384615
-0.0568777
-0.0802262
-0.0585293
-0.0267872
0.035068
0.0869006
0.113914
0.141109
0.148394
0.185724
0.2131
0.210769
0.179095
0.153778
0.125385
0.114412
-0.00877813
-0.0946153
-0.154638
-0.180588
-0.178891
-0.159977
-0.153733
-0.144457
-0.151538
-0.139706
-0.143077
-0.166606
-0.179547
-0.176946
-0.184004
-0.166289
-0.163846
-0.181674
-0.224638
-0.257692
-0.245905
-0.134434
0.0767195
0.37776
0.473778
1.19993
1.73627
2.15285
2.21973
1.87197
1.27943
0.617059
0.0447964
-0.432511
-0.764706
-0.941719
-0.948439
-0.810113
-0.606878
-0.493665
-0.455407
-0.491833
-0.553009
-0.578982
-0.589909
-0.595769
-0.611516
-0.621946
-0.622059
-0.626765
-0.606131
-0.630385
-0.644774
-0.665
-0.681765
-0.675633
-0.667014
-0.665385
-0.688823
-0.690385
-0.679095
-0.659593
-0.657602
-0.643937
-0.614796
-0.574118
-0.53776
-0.48138
-0.440498
-0.410271
-0.380611
-0.316312
-0.242127
-0.173032
-0.143891
-0.0647058
-0.0106108
0.0583485
0.112127
0.160724
0.214208
0.272534
0.340679
0.423688
0.486606
0.519593
0.537511
0.57034
0.597919
0.64534
0.672466
0.689548
0.661652
0.633733
0.610747
0.602489
0.598959
0.585317
0.546765
0.538371
0.495068
0.456674
0.423167
0.38448
0.360769
0.341968
0.337919
0.318575
0.293869
0.253756
0.213371
0.177127
0.135091
0.0925114
0.0696833
0.0515838
0.0534616
0.0452715
0.0170589
-0.016199
-0.0494343
-0.0677375
-0.0561085
-0.0395701
-0.0328507
0.0240272
0.046267
0.0686879
0.101086
0.128371
0.160611
0.202986
0.231018
0.240226
0.250995
0.242376
0.207308
0.149842
0.0694571
-0.0105655
-0.0570587
-0.0911312
-0.103032
-0.0972397
-0.108371
-0.140882
-0.164231
-0.16767
-0.14543
-0.132217
-0.128394
-0.149366
-0.160475
-0.1619
-0.143529
-0.135339
-0.132376
-0.149774
-0.167376
-0.200136
-0.213054
-0.181063
-0.0793214
0.172262
0.558778
1.0655
1.65253
2.13998
2.22281
1.87088
1.26414
0.602534
0.0559954
-0.295611
-0.387195
-0.72862
-0.879932
-0.901041
-0.791923
-0.647692
-0.538394
-0.493937
-0.51414
-0.544005
-0.583597
-0.608032
-0.621968
-0.630566
-0.62914
-0.62267
-0.623032
-0.629864
-0.638575
-0.644412
-0.657014
-0.675136
-0.687082
-0.701403
-0.687443
-0.675498
-0.62595
-0.604548
-0.577014
-0.569457
-0.552579
-0.501652
-0.456493
-0.401697
-0.381991
-0.347195
-0.307262
-0.252443
-0.192828
-0.138484
-0.0893213
-0.0352941
0.0237104
0.0628054
0.1219
0.185928
0.234819
0.298552
0.382059
0.435294
0.458303
0.516222
0.53914
0.562036
0.579796
0.587308
0.599548
0.616606
0.613507
0.625385
0.592172
0.553846
0.495724
0.462511
0.454163
0.440883
0.42233
0.408733
0.380226
0.336742
0.298213
0.264435
0.210294
0.175588
0.13534
0.124412
0.102873
0.0808825
0.0435748
-0.0189139
-0.0715156
-0.0992306
-0.092217
-0.0803392
-0.0934161
-0.106222
-0.128846
-0.136425
-0.144095
-0.136742
-0.119366
-0.0915383
-0.0484387
0.0147513
0.047964
0.0811993
0.109435
0.14776
0.176335
0.195475
0.190905
0.133281
0.0781223
0.0108826
-0.0539817
-0.113371
-0.139321
-0.148054
-0.139683
-0.12371
-0.119253
-0.130203
-0.122692
-0.140837
-0.14405
-0.136764
-0.129117
-0.141267
-0.158461
-0.16586
-0.163416
-0.176289
-0.214457
-0.24285
-0.186403
-0.149977
0.296607
0.668417
1.13554
1.66794
2.13572
2.30873
2.07692
1.51016
0.813303
0.176471
-0.355294
-0.741697
-0.977873
-1.014
-0.895158
-0.711425
-0.552534
-0.478416
-0.473959
-0.534389
-0.574706
-0.594864
-0.589796
-0.56448
-0.563801
-0.557964
-0.572308
-0.597466
-0.619163
-0.632987
-0.649186
-0.662647
-0.657263
-0.645928
-0.642376
-0.645928
-0.66129
-0.648959
-0.619389
-0.584163
-0.547353
-0.530815
-0.505091
-0.480158
-0.435498
-0.395882
-0.376199
-0.326606
-0.267104
-0.242624
-0.14819
-0.098801
-0.0693666
-0.0400453
-0.0159051
0.0530542
0.126923
0.21552
0.27405
0.337398
0.385656
0.433846
0.466968
0.494864
0.527443
0.544615
0.576584
0.588529
0.58043
0.547149
0.523575
0.519728
0.520701
0.506561
0.502194
0.422624
0.372964
0.358303
0.338688
0.318937
0.28905
0.258959
0.238823
0.21862
0.188371
0.147805
0.111629
0.054819
0.0175339
-0.00515845
-0.0133258
-0.00671953
-0.0302263
-0.0486426
-0.06681
-0.069887
-0.0729865
-0.0810634
-0.0891856
-0.0921721
-0.0299096
0.0325565
0.0850905
0.107715
0.110385
0.138258
0.176199
0.20914
0.232127
0.235543
0.204389
0.155452
0.0833032
0.023371
-0.0541177
-0.0993893
-0.138733
-0.144027
-0.126787
-0.112647
-0.116335
-0.15233
-0.190113
-0.184027
-0.183303
-0.152217
-0.14543
-0.158054
-0.18552
-0.198145
-0.196199
-0.19957
-0.203077
-0.206425
-0.23948
-0.232217
-0.144548
0.0884615
0.461606
0.984751
1.56781
2.11079
2.42385
2.29213
1.85061
1.2291
0.577466
0.000746608
-0.475973
-0.607624
-0.954118
-0.885453
-0.69172
-0.522851
-0.453846
-0.479638
-0.53543
-0.576584
-0.593688
-0.602308
-0.613462
-0.632104
-0.667964
-0.684299
-0.700407
-0.707489
-0.726086
-0.721471
-0.739095
-0.734774
-0.719502
-0.719253
-0.719638
-0.700679
-0.686968
-0.643032
-0.61871
-0.599072
-0.569367
-0.534751
-0.475317
-0.430995
-0.391697
-0.36733
-0.302986
-0.233643
-0.179661
-0.130792
-0.0719457
-0.0031448
0.0654977
0.144027
0.197489
0.245882
0.27905
0.347014
0.424638
0.507036
0.539027
0.555656
0.592036
0.608258
0.619412
0.605294
0.565882
0.551109
0.546131
0.550882
0.545452
0.514683
0.468688
0.432738
0.406742
0.370724
0.354728
0.313326
0.28681
0.250271
0.213756
0.17724
0.120611
0.0786651
0.0562669
0.0335068
0.0255204
0.00219455
-0.0313801
-0.0551358
-0.078914
-0.0925339
-0.106018
-0.129366
-0.122783
-0.111244
-0.0695475
-0.0326244
-0.00538459
0.0220362
0.059457
0.0968099
0.129276
0.156968
0.164819
0.132851
0.0910407
0.0191855
-0.0675566
-0.158824
-0.214005
-0.232353
-0.218281
-0.206516
-0.217149
-0.241244
-0.255837
-0.237466
-0.206968
-0.199593
-0.189909
-0.182511
-0.190905
-0.201086
-0.211199
-0.225543
-0.239163
-0.247579
-0.216154
-0.124932
0.126244
0.512737
1.08968
1.72697
2.25948
2.38699
2.35957
1.48722
0.779864
0.137511
-0.389819
-0.767285
-0.919819
-0.872285
-0.689819
-0.517376
-0.439864
-0.462285
-0.534434
-0.576471
-0.583462
-0.575362
-0.572081
-0.573756
-0.576131
-0.594842
-0.610588
-0.623643
-0.633982
-0.670452
-0.69129
-0.709434
-0.699027
-0.70509
-0.71828
-0.719547
-0.685
-0.665543
-0.626584
-0.608032
-0.569434
-0.520656
-0.481697
-0.447421
-0.417986
-0.373529
-0.319118
-0.249977
-0.20086
-0.136697
-0.0974433
-0.0231447
0.0310634
0.0900453
0.168846
0.232511
0.255996
0.354457
0.412715
0.460792
0.49362
0.521222
0.553507
0.595407
0.646923
0.653213
0.639299
0.630226
0.630882
0.621154
0.611063
0.585769
0.565045
0.52905
0.50776
0.481335
0.454819
0.408303
0.371742
0.34
0.328009
0.315905
0.278824
0.23181
0.194842
0.15276
0.115385
0.0926698
0.0746155
0.0561992
0.047421
0.0134617
-0.000429749
-0.0140949
-0.0476017
-0.0761312
-0.0997964
-0.0934841
-0.081923
-0.045
-0.0278054
-0.000429824
0.0421041
0.0896832
0.142353
0.165158
0.1731
0.196154
0.204321
0.192896
0.162081
0.0776018
-0.025
-0.1
-0.152127
-0.166697
-0.175543
-0.184434
-0.177195
-0.188213
-0.187104
-0.178394
-0.16638
-0.175113
-0.168756
-0.17181
-0.174276
-0.181652
-0.204321
-0.212489
-0.211018
-0.209661
-0.223258
-0.181652
0.0101358
0.337104
0.804231
1.37161
1.93921
2.23706
2.13995
1.59785
0.875701
0.158688
-0.403348
-0.780385
-0.917421
-0.869457
-0.696538
-0.533484
-0.465317
-0.476923
-0.503326
-0.539638
-0.560882
-0.557014
-0.56276
-0.543077
-0.55319
-0.568643
-0.584887
-0.602511
-0.61672
-0.6181
-0.621652
-0.626357
-0.63052
-0.647692
-0.646606
-0.632263
-0.610204
-0.59233
-0.551629
-0.514932
-0.463009
-0.426425
-0.395634
-0.360543
-0.315882
-0.256177
-0.191335
-0.161358
-0.071448
-0.0166969
0.0329411
0.0775113
0.116991
0.16638
0.220611
0.294683
0.383688
0.452715
0.491787
0.515701
0.539276
0.577557
0.615611
0.653394
0.661086
0.658643
0.651131
0.638642
0.605882
0.567851
0.53957
0.525928
0.522014
0.502896
0.458778
0.404593
0.350452
0.321176
0.296765
0.282398
0.258054
0.223733
0.184231
0.149525
0.119728
0.0648189
0.0246379
-0.0157467
-0.0419005
-0.0387105
-0.0359729
-0.06862
-0.101493
-0.119593
-0.137986
-0.12638
-0.134774
-0.133032
-0.136244
-0.124276
-0.0972624
-0.0451357
-0.00280544
0.0546606
0.0972172
0.134729
0.172353
0.190226
0.188371
0.146719
0.105362
0.0649321
0.0160181
-0.0456335
-0.0945023
-0.140588
-0.165204
-0.165113
-0.157398
-0.167851
-0.166448
-0.182511
-0.190317
-0.163778
-0.142014
-0.139389
-0.150928
-0.167172
-0.168665
-0.155475
-0.142692
-0.145181
-0.192851
-0.240747
-0.223733
-0.106878
0.124932
0.461674
0.878394
1.40514
1.93722
2.26484
2.20294
1.78136
1.15482
0.488258
-0.0682579
-0.219638
-0.820905
-1.01204
-1.02308
-0.898801
-0.719434
-0.579887
-0.495272
-0.50552
-0.545543
-0.585226
-0.594615
-0.578529
-0.587149
-0.590634
-0.594027
-0.598801
-0.610272
-0.614027
-0.635204
-0.658258
-0.686787
-0.694231
-0.669253
-0.641493
-0.630882
-0.602715
-0.597308
-0.575385
-0.567941
-0.571018
-0.535023
-0.479887
-0.430226
-0.375588
-0.335747
-0.305747
-0.290724
-0.25586
-0.221267
-0.166946
-0.102805
-0.0637556
-0.0146832
0.0393892
0.108394
0.167217
0.21586
0.254276
0.307511
0.32552
0.413326
0.455905
0.478507
0.506109
0.533462
0.565498
0.612285
0.613869
0.600453
0.571923
0.573348
0.549548
0.535588
0.521516
0.477602
0.448484
0.424412
0.415272
0.386109
0.336968
0.28267
0.228122
0.208054
0.197466
0.191448
0.160068
0.113235
0.0660181
0.0383711
0.00542989
-0.0126018
-0.0356109
-0.0587104
-0.0768552
-0.0699774
-0.0630317
-0.0658145
-0.083371
-0.10586
-0.103394
-0.0608597
-0.0181221
0.0349548
0.0732806
0.116719
0.16
0.198145
0.221516
0.215566
0.215837
0.207806
0.196833
0.133439
0.0276244
-0.0616064
-0.116063
-0.127466
-0.111697
-0.103937
-0.11362
-0.123869
-0.121833
-0.115724
-0.144774
-0.138281
-0.156312
-0.143891
-0.136222
-0.133733
-0.151538
-0.194593
-0.217828
-0.236063
-0.224366
-0.207534
0.129525
0.546991
1.0998
1.70283
2.20095
2.36919
2.1624
1.64563
1.04912
0.452715
-0.0786877
-0.539955
-0.871177
-0.992376
-0.888597
-0.7
-0.54629
-0.482308
-0.508009
-0.568416
-0.608643
-0.633801
-0.643846
-0.638733
-0.633824
-0.624638
-0.631697
-0.655452
-0.686131
-0.713733
-0.722964
-0.727692
-0.716516
-0.737986
-0.731267
-0.726561
-0.698937
-0.694231
-0.683326
-0.652081
-0.606244
-0.561041
-0.526176
-0.506516
-0.481855
-0.462127
-0.407217
-0.352398
-0.29267
-0.268032
-0.17362
-0.119321
-0.0550452
-0.00567868
0.0335973
0.0926245
0.151335
0.229819
0.308303
0.366855
0.40043
0.438778
0.47181
0.514593
0.547263
0.559729
0.556991
0.56405
0.575882
0.557602
0.539299
0.51086
0.48724
0.478235
0.478937
0.449548
0.405317
0.346177
0.306991
0.282602
0.273054
0.258462
0.228778
0.198959
0.163801
0.128348
0.0926471
0.0517421
0.0152942
-0.00676465
-0.0196153
-0.013009
-0.0164933
-0.02
-0.0384616
-0.066991
-0.0706335
-0.0592308
-0.037715
-0.0362443
0.0353394
0.0719684
0.0987784
0.125769
0.147964
0.160272
0.187398
0.199525
0.201742
0.164299
0.107127
0.0116968
-0.0716968
-0.117557
-0.145633
-0.176244
-0.18095
-0.176448
-0.19414
-0.184434
-0.17233
-0.177602
-0.19
-0.183914
-0.183326
-0.157217
-0.155226
-0.167557
-0.194819
-0.212511
-0.220656
-0.214072
-0.23267
-0.241516
-0.170475
0.0355203
0.366742
0.773235
1.23991
1.71156
2.13351
2.29572
2.1383
1.65115
0.994027
0.346991
-0.215045
-0.636946
-0.883869
-0.935769
-0.822625
-0.654367
-0.535905
-0.49224
-0.508462
-0.554661
-0.595905
-0.601901
-0.597511
-0.592692
-0.587941
-0.59362
-0.615566
-0.649231
-0.663348
-0.666199
-0.660724
-0.675769
-0.704434
-0.735272
-0.74767
-0.726946
-0.698869
-0.684208
-0.67862
-0.657738
-0.622195
-0.592353
-0.558122
-0.544118
-0.525181
-0.481063
-0.436833
-0.362647
-0.313529
-0.28448
-0.270543
-0.241742
-0.173122
-0.0846833
-0.00138015
0.0569683
0.120294
0.178575
0.251765
0.319728
0.367443
0.399909
0.452195
0.474208
0.551041
0.607715
0.609367
0.625973
0.622466
0.628778
0.644729
0.640407
0.62595
0.611425
0.596742
0.572149
0.547421
0.517489
0.477624
0.437489
0.437285
0.417014
0.381606
0.32095
0.279887
0.233281
0.200973
0.193054
0.179796
0.131312
0.097647
0.0639594
0.030249
0.00640279
-0.0173755
-0.0261086
-0.019819
-0.0184841
-0.0319683
-0.0452941
-0.0533031
-0.0511086
-0.00382349
0.0633484
0.10052
0.11776
0.130272
0.172964
0.200882
0.214231
0.173552
0.109525
0.0525339
0.0378959
-0.0393665
-0.0895701
-0.153891
-0.183778
-0.195769
-0.200634
-0.193439
-0.198824
-0.196109
-0.199457
-0.187873
-0.175701
-0.182783
-0.199502
-0.211086
-0.1981
-0.17552
-0.183394
-0.221471
-0.264615
-0.232783
-0.0509954
0.275656
0.712104
0.853394
1.70984
2.13174
2.29923
2.06704
1.51498
0.807851
0.145679
-0.341448
-0.663394
-0.830249
-0.867059
-0.783869
-0.635566
-0.497127
-0.438529
-0.444932
-0.506312
-0.562557
-0.578552
-0.574163
-0.559457
-0.56457
-0.579661
-0.599774
-0.600226
-0.596516
-0.619389
-0.634525
-0.662127
-0.681493
-0.676086
-0.663982
-0.649434
-0.652194
-0.62724
-0.604955
-0.575362
-0.553959
-0.536946
-0.504819
-0.473869
-0.413665
-0.348756
-0.298891
-0.253959
-0.208937
-0.148891
-0.0739818
0.00585981
0.0255883
0.115091
0.149457
0.198937
0.248462
0.312919
0.372082
0.440882
0.504389
0.55776
0.586177
0.604593
0.607828
0.600837
0.603552
0.611063
0.603349
0.605475
0.597466
0.579389
0.551222
0.522964
0.48448
0.445792
0.416833
0.417873
0.404027
0.385249
0.336335
0.282263
0.228054
0.208778
0.204344
0.17457
0.134321
0.0835748
0.032534
0.000927716
-0.0311311
-0.063733
-0.0865836
-0.109842
-0.10828
-0.101697
-0.10509
-0.118416
-0.15681
-0.175181
-0.173439
-0.136629
-0.124706
-0.047647
-0.00536191
0.0521947
0.0899322
0.107715
0.115498
0.128439
0.152308
0.177783
0.185475
0.144027
0.0567195
-0.0485972
-0.113032
-0.153484
-0.156199
-0.152014
-0.140792
-0.156742
-0.169095
-0.182149
-0.170271
-0.168099
-0.175294
-0.1819
-0.173371
-0.164977
-0.157059
-0.174638
-0.192534
-0.220566
-0.238642
-0.236833
-0.210158
-0.0735294
0.193235
0.620271
1.17258
1.77518
2.21778
2.33568
2.02385
1.52717
0.960633
0.409072
-0.0873756
-0.523733
-0.869977
-1.00613
-1.01726
-0.763258
-0.594163
-0.514751
-0.509977
-0.54
-0.574932
-0.594706
-0.589163
-0.59819
-0.601991
-0.591606
-0.602534
-0.630656
-0.666312
-0.692602
-0.696697
-0.665226
-0.651516
-0.655113
-0.670882
-0.678959
-0.679661
-0.653597
-0.611606
-0.589796
-0.553665
-0.533394
-0.503597
-0.473846
-0.443891
-0.428869
-0.383914
-0.339118
-0.269593
-0.215204
-0.165679
-0.136063
-0.0814705
-0.0271493
0.0519005
0.100588
0.154231
0.192941
0.236561
0.290023
0.338145
0.380973
0.423597
0.470995
0.48819
0.560136
0.591878
0.593688
0.58552
0.57724
0.593665
0.604661
0.595317
0.575769
0.536199
0.496539
0.461968
0.427353
0.38276
0.338258
0.298484
0.298484
0.278303
0.252986
0.202647
0.157195
0.101357
0.0847737
0.0573529
0.0494118
-0.00377828
-0.0270362
-0.0352715
-0.0434389
-0.0566289
-0.0698642
-0.0930316
-0.0760407
-0.0689819
-0.0619004
-0.034638
-0.0120362
0.0308597
0.0838688
0.136787
0.169706
0.192647
0.210792
0.224208
0.212851
0.182263
0.128032
0.0508824
-0.0186425
-0.0303167
-0.094932
-0.128937
-0.134185
-0.136493
-0.126335
-0.123688
-0.123371
-0.125068
-0.133416
-0.132421
-0.141629
-0.139864
-0.157489
-0.179887
-0.18233
-0.165113
-0.163258
-0.181584
-0.209842
-0.187941
0.00432125
0.376991
0.889955
1.49301
1.67618
2.35439
2.28276
1.85136
1.31502
0.738665
0.167217
-0.344231
-0.735701
-0.952127
-0.913416
-0.759548
-0.580498
-0.47629
-0.477036
-0.54267
-0.588167
-0.60362
-0.608778
-0.588891
-0.58948
-0.621177
-0.659389
-0.679593
-0.677036
-0.681493
-0.666765
-0.686109
-0.713032
-0.726901
-0.732692
-0.705792
-0.686855
-0.666425
-0.640272
-0.619163
-0.578643
-0.54853
-0.553756
-0.543982
-0.514186
-0.454095
-0.388846
-0.323597
-0.268394
-0.218303
-0.178303
-0.113439
-0.0536652
0.00592753
0.0303167
0.11448
0.178552
0.237692
0.296719
0.330633
0.364321
0.40776
0.480905
0.553869
0.596606
0.604299
0.611674
0.608959
0.605973
0.597873
0.599208
0.575294
0.556176
0.546968
0.537647
0.493054
0.428303
0.373394
0.358416
0.363348
0.348213
0.317986
0.25767
0.202285
0.181719
0.150769
0.119412
0.087579
0.0603392
0.0327148
0.0199773
0.00190029
-0.0364255
-0.0797513
-0.0880997
-0.086335
-0.0695477
-0.0627151
-0.0457468
-0.0385748
-0.00617665
0.031312
0.0639365
0.0915835
0.104276
0.147127
0.190203
0.208461
0.196787
0.150181
0.0638686
-0.0164028
-0.0899323
-0.131063
-0.179321
-0.201629
-0.220747
-0.220113
-0.206471
-0.195226
-0.186539
-0.19543
-0.196742
-0.190023
-0.189502
-0.213959
-0.227896
-0.251222
-0.239208
-0.242353
-0.250815
-0.254321
-0.282602
-0.255543
-0.0880092
0.204909
0.582941
1.04604
1.58921
2.0824
2.33557
2.17391
1.68726
1.04557
0.403823
-0.143077
-0.54991
-0.841674
-0.963281
-0.909751
-0.766131
-0.607421
-0.503552
-0.504615
-0.520611
-0.596787
-0.618688
-0.612014
-0.617376
-0.620317
-0.650724
-0.672398
-0.698416
-0.701923
-0.707059
-0.703891
-0.722624
-0.734095
-0.724253
-0.718982
-0.714344
-0.700498
-0.686946
-0.658122
-0.62871
-0.618801
-0.593756
-0.58871
-0.528756
-0.503846
-0.383914
-0.333959
-0.304072
-0.259231
-0.219412
-0.144593
-0.0750226
-0.0107466
0.053258
0.132104
0.20595
0.264751
0.313416
0.351629
0.409502
0.487014
0.549253
0.601335
0.613213
0.624661
0.630747
0.631561
0.642104
0.627263
0.621991
0.601426
0.595634
0.584751
0.553711
0.502489
0.455973
0.429276
0.402489
0.380588
0.348643
0.311516
0.279457
0.242511
0.210634
0.168733
0.126471
0.0887332
0.0756336
0.0572852
0.0238463
-0.004751
-0.0333935
-0.0521039
-0.045769
-0.0542306
-0.0674886
-0.070475
-0.048371
-0.00608587
0.0414481
0.0741856
0.111878
0.154615
0.182421
0.21552
0.218892
0.182421
0.116086
0.0347286
-0.0514705
-0.136719
-0.190475
-0.237466
-0.26233
-0.249638
-0.229638
-0.233416
-0.232851
-0.234457
-0.22914
-0.196923
-0.187398
-0.189955
-0.21405
-0.228869
-0.238688
-0.227964
-0.241606
-0.269728
-0.282783
-0.220679
-0.00852934
0.363959
0.871765
1.48964
2.07769
2.3907
2.30376
1.80183
1.10998
0.398077
-0.208937
-0.651041
-0.888213
-0.930362
-0.762557
-0.559774
-0.456923
-0.448937
-0.510724
-0.582353
-0.609005
-0.605633
-0.592308
-0.589095
-0.606697
-0.615362
-0.631109
-0.649389
-0.663326
-0.684796
-0.685226
-0.693145
-0.693032
-0.674842
-0.668869
-0.67052
-0.665611
-0.619977
-0.594548
-0.529593
-0.495023
-0.485566
-0.46595
-0.391177
-0.33129
-0.27629
-0.226244
-0.171131
-0.111063
-0.0460182
0.0139366
0.0589819
0.10905
0.174027
0.253733
0.333167
0.397466
0.461719
0.505973
0.565
0.59871
0.622217
0.630543
0.62862
0.666471
0.689027
0.691267
0.67328
0.650068
0.631493
0.612624
0.598348
0.578823
0.539231
0.49948
0.444615
0.414434
0.374072
0.328801
0.288348
0.277805
0.25724
0.221651
0.170973
0.110271
0.0694343
0.0383257
0.0167646
0.00966051
-0.0329413
-0.0709277
-0.0841177
-0.0924661
-0.11595
-0.134434
-0.152806
-0.171131
-0.179321
-0.142443
-0.100452
-0.0531674
-0.000633478
0.0470815
0.0847512
0.137557
0.16043
0.17862
0.166991
0.15043
0.0989593
0.0128733
-0.0822398
-0.140543
-0.15138
-0.179321
-0.17948
-0.188167
-0.197172
-0.198371
-0.182692
-0.150204
-0.150475
-0.152783
-0.156199
-0.149842
-0.147851
-0.155113
-0.177195
-0.204321
-0.217036
-0.210136
-0.198416
-0.191742
-0.115068
0.0817874
0.428801
0.931131
1.51378
1.6967
2.28986
2.12821
1.63676
1.02543
0.404095
-0.137217
-0.593552
-0.884932
-1.00118
-0.922149
-0.763032
-0.603688
-0.519185
-0.504661
-0.53009
-0.545226
-0.565068
-0.574593
-0.578756
-0.582602
-0.581357
-0.580566
-0.606018
-0.623326
-0.638077
-0.635294
-0.629118
-0.633099
-0.655566
-0.68043
-0.662489
-0.626629
-0.608303
-0.597986
-0.566244
-0.549027
-0.516878
-0.475317
-0.429502
-0.388982
-0.333756
-0.288484
-0.218054
-0.172511
-0.141968
-0.106606
-0.0864253
-0.0115159
0.0583258
0.0880317
0.182579
0.241946
0.29129
0.345543
0.399706
0.443688
0.482421
0.510973
0.549276
0.592489
0.620747
0.623824
0.616674
0.604367
0.606991
0.614299
0.601448
0.578439
0.540204
0.516674
0.493122
0.459615
0.416109
0.377602
0.369095
0.330498
0.311878
0.258213
0.209434
0.170339
0.14086
0.12086
0.120204
0.093914
0.0572171
0.0352714
0.00791848
-0.00463814
-0.0223983
-0.0402716
-0.0433712
-0.0515386
-0.0496155
-0.0426245
-0.0354073
-0.028077
-0.000678867
0.0367872
0.0991855
0.116606
0.184118
0.196742
0.20957
0.222556
0.235769
0.199525
0.149321
0.0757692
-0.000429958
-0.0639141
-0.116358
-0.155883
-0.180928
-0.198077
-0.187941
-0.170588
-0.160679
-0.15776
-0.190973
-0.214616
-0.217873
-0.210521
-0.217489
-0.21914
-0.215815
-0.212783
-0.225
-0.247489
-0.285136
-0.307851
-0.275656
-0.118665
0.208258
0.655023
1.23692
1.83916
2.26686
2.37495
2.09833
1.5817
1.00014
0.408756
-0.107398
-0.528416
-0.839457
-0.950339
-0.901131
-0.751765
-0.587194
-0.542443
-0.502579
-0.532557
-0.58733
-0.626765
-0.64595
-0.645
-0.643959
-0.637805
-0.651244
-0.659299
-0.667534
-0.666312
-0.671448
-0.673823
-0.691833
-0.709118
-0.722557
-0.730226
-0.710656
-0.713032
-0.72733
-0.724253
-0.70448
-0.673439
-0.6569
-0.600339
-0.574344
-0.549027
-0.509163
-0.444593
-0.394932
-0.355226
-0.300611
-0.241131
-0.186855
-0.122624
-0.0585294
-0.0193891
0.0295702
0.0933711
0.167036
0.235498
0.298846
0.347285
0.380679
0.423982
0.482149
0.520158
0.548054
0.55586
0.598575
0.626244
0.638824
0.626312
0.578801
0.556199
0.55353
0.545747
0.557896
0.535181
0.492444
0.459932
0.427308
0.409457
0.371584
0.33319
0.304344
0.29
0.27509
0.25957
0.213507
0.1619
0.114909
0.0875112
0.0746832
0.0666289
0.0635293
0.0453846
0.00221711
-0.021154
-0.0296834
-0.00823539
-0.00174215
0.00981888
0.026493
0.0632804
0.100181
0.137172
0.159185
0.166063
0.177986
0.220113
0.233054
0.24267
0.199547
0.119299
0.0369004
-0.028439
-0.0731902
-0.0790725
-0.107104
-0.122647
-0.135769
-0.151109
-0.143281
-0.156765
-0.170701
-0.184434
-0.197511
-0.199887
-0.192104
-0.179208
-0.186652
-0.199615
-0.217851
-0.226358
-0.219932
-0.233643
-0.257421
-0.281222
-0.219796
-0.0130543
0.339118
0.876606
1.06437
2.05724
2.35016
2.21312
1.74113
1.09923
0.45733
-0.0446154
-0.421584
-0.713416
-0.840204
-0.846946
-0.718507
-0.584932
-0.511222
-0.487376
-0.533394
-0.569118
-0.584502
-0.599593
-0.594864
-0.596086
-0.608959
-0.644095
-0.666923
-0.691946
-0.712873
-0.707783
-0.710226
-0.734525
-0.750634
-0.763959
-0.750181
-0.73491
-0.71414
-0.703688
-0.693869
-0.679389
-0.66
-0.630385
-0.615747
-0.581018
-0.55138
-0.49181
-0.432263
-0.392579
-0.362919
-0.338394
-0.294027
-0.224864
-0.200882
-0.0669911
0.00176457
0.0654297
0.119027
0.177534
0.230905
0.294072
0.3319
0.389366
0.461538
0.518597
0.545565
0.567466
0.579208
0.595724
0.611584
0.617104
0.617443
0.597511
0.57233
0.551991
0.531606
0.501176
0.475769
0.470158
0.439253
0.428077
0.40681
0.36543
0.313891
0.261946
0.234366
0.206222
0.182602
0.153733
0.109819
0.0807238
0.0565157
0.0272397
0.00791842
-0.0162219
-0.0304074
-0.029525
-0.0284843
-0.0222173
-0.0156788
-0.00395939
0.0378732
0.0947058
0.111516
0.148394
0.160543
0.187851
0.205271
0.192805
0.130452
0.0485972
-0.047172
-0.121199
-0.177738
-0.213348
-0.224299
-0.228778
-0.228756
-0.215837
-0.210815
-0.213733
-0.208914
-0.225747
-0.213846
-0.217602
-0.211561
-0.225204
-0.238394
-0.236516
-0.209706
-0.233326
-0.277217
-0.296177
-0.205158
0.0509728
0.472285
1.02873
1.65538
2.18235
2.4395
2.28183
1.79939
1.16197
0.499434
-0.088258
-0.515996
-0.793575
-0.871063
-0.778439
-0.635882
-0.523349
-0.480724
-0.523054
-0.545362
-0.617692
-0.624932
-0.616991
-0.62362
-0.644796
-0.665792
-0.682104
-0.684276
-0.677896
-0.663258
-0.690996
-0.710566
-0.731493
-0.742082
-0.747172
-0.738122
-0.741222
-0.716606
-0.679774
-0.635996
-0.615679
-0.594615
-0.573869
-0.548824
-0.53448
-0.405543
-0.331561
-0.262308
-0.187873
-0.113439
-0.0541855
-4.52995e-05
0.0540724
0.0931221
0.167172
0.246312
0.325226
0.394186
0.438145
0.486923
0.535385
0.593507
0.631448
0.664299
0.667059
0.664661
0.671968
0.679004
0.680837
0.677421
0.648801
0.649932
0.625837
0.581606
0.52233
0.462896
0.433213
0.423258
0.418235
0.413281
0.383258
0.318213
0.292964
0.257602
0.21224
0.166493
0.120272
0.088439
0.0559277
0.0429186
0.0245249
-0.0141402
-0.048009
-0.076991
-0.0859728
-0.0899096
-0.0837104
-0.0874434
-0.101131
-0.114819
-0.0983033
-0.0615838
-0.00468335
0.0273076
0.084389
0.121651
0.169231
0.191878
0.189412
0.1769
0.155023
0.114525
0.0761764
0.00547504
-0.0722625
-0.117466
-0.156312
-0.180769
-0.17233
-0.161742
-0.139095
-0.14405
-0.17086
-0.183869
-0.19724
-0.180272
-0.172715
-0.184751
-0.18181
-0.164276
-0.152036
-0.145339
-0.163756
-0.207217
-0.255769
-0.264593
-0.17362
0.0323076
0.388484
0.835136
1.37735
1.90991
2.27258
2.25532
2.19305
1.33077
0.748529
0.206267
-0.25086
-0.62767
-0.899163
-1.01059
-0.917104
-0.74362
-0.580091
-0.476425
-0.472172
-0.527579
-0.567625
-0.58733
-0.571493
-0.565769
-0.581086
-0.598213
-0.627783
-0.659887
-0.649027
-0.678484
-0.706471
-0.711539
-0.6931
-0.666267
-0.646606
-0.645
-0.637557
-0.62043
-0.58914
-0.548665
-0.518575
-0.48353
-0.448213
-0.40776
-0.362104
-0.321539
-0.301199
-0.251222
-0.181493
-0.101833
-0.0371268
0.0126017
0.0523302
0.101968
0.166357
0.225633
0.249706
0.328507
0.377036
0.435407
0.493597
0.531606
0.559434
0.582081
0.60948
0.621652
0.613575
0.610317
0.581878
0.563303
0.55957
0.545724
0.516448
0.471946
0.442376
0.412941
0.383575
0.349276
0.309774
0.275158
0.26043
0.255475
0.210271
0.164706
0.11371
0.0874887
0.0608597
0.0287783
-0.0137103
-0.0366063
-0.0547964
-0.0629864
-0.0760181
-0.0888461
-0.106629
-0.11948
-0.117353
-0.100068
-0.0875566
-0.064819
-0.016991
0.0309276
0.074095
0.122556
0.141267
0.160045
0.173733
0.212262
0.235882
0.230136
0.175611
0.0828958
-0.0177829
-0.10595
-0.131742
-0.145837
-0.134887
-0.114118
-0.102262
-0.0930769
-0.0964028
-0.131833
-0.164186
-0.168032
-0.13767
-0.127036
-0.120633
-0.143529
-0.151041
-0.158665
-0.176584
-0.18457
-0.237308
-0.159548
0.118597
0.566991
1.14054
1.76914
2.29267
2.43636
2.17486
1.56826
0.836674
0.130249
-0.440973
-0.837127
-0.993326
-0.924616
-0.74595
-0.562195
-0.47319
-0.463982
-0.529616
-0.59
-0.635159
-0.640113
-0.635317
-0.616448
-0.623982
-0.643371
-0.66991
-0.688643
-0.703801
-0.723371
-0.740905
-0.745226
-0.736199
-0.719638
-0.701018
-0.705905
-0.689932
-0.67362
-0.637987
-0.607987
-0.583326
-0.558552
-0.523484
-0.483236
-0.437806
-0.392557
-0.352421
-0.332421
-0.242511
-0.16767
-0.107873
-0.0731676
-0.0485974
0.000882238
0.0902488
0.169389
0.223303
0.277059
0.325814
0.389366
0.447737
0.460928
0.478982
0.496538
0.533801
0.575679
0.607285
0.608597
0.579706
0.555633
0.54138
0.531946
0.527194
0.482149
0.451878
0.411357
0.380679
0.365
0.329276
0.278439
0.232466
0.201312
0.180045
0.168642
0.142308
0.0959501
0.0344343
-0.00737566
-0.00966072
-0.0225793
-0.0159277
-0.0293666
-0.0576924
-0.0808146
-0.0788462
-0.0718553
-0.0598417
-0.0526698
-0.00547519
0.0517194
0.11405
0.146674
0.149547
0.157647
0.17586
0.20414
0.212421
0.185746
0.109253
0.01276
-0.0681902
-0.137783
-0.18534
-0.215249
-0.217263
-0.221742
-0.190566
-0.175521
-0.173213
-0.184208
-0.203416
-0.205272
-0.204208
-0.189186
-0.174073
-0.173258
-0.196697
-0.219751
-0.227896
-0.256448
-0.27534
-0.284389
-0.198213
0.018371
0.370498
0.842964
1.39066
1.93335
2.29115
2.19385
1.7864
1.13387
0.44638
-0.0959955
-0.478281
-0.765498
-0.902806
-0.925136
-0.742444
-0.57957
-0.486493
-0.488326
-0.545045
-0.596606
-0.642805
-0.633756
-0.62991
-0.606878
-0.605204
-0.62491
-0.666267
-0.684661
-0.693643
-0.71448
-0.734005
-0.730385
-0.718167
-0.697783
-0.699977
-0.69552
-0.695113
-0.699434
-0.689321
-0.599887
-0.560973
-0.512104
-0.467964
-0.413462
-0.368756
-0.334163
-0.299729
-0.270475
-0.206222
-0.131878
-0.0576697
0.0164027
0.0803393
0.134185
0.197964
0.271629
0.355023
0.418167
0.466109
0.513982
0.541833
0.574502
0.606833
0.618756
0.630339
0.666878
0.668394
0.654819
0.606063
0.561968
0.552511
0.552873
0.553145
0.51319
0.473054
0.442941
0.412919
0.383077
0.343326
0.303167
0.257715
0.237036
0.231312
0.205475
0.159457
0.107851
0.065543
0.042715
0.0394117
0.0258823
0.0121945
-0.0265838
-0.0305656
-0.0444344
-0.0481674
-0.0518325
-0.0505203
-0.039276
0.0220135
0.093439
0.140181
0.16224
0.179502
0.18172
0.208914
0.231177
0.243484
0.230928
0.173507
0.0866064
-0.0141176
-0.0930542
-0.154661
-0.168642
-0.19509
-0.164864
-0.134955
-0.116697
-0.12129
-0.133937
-0.139118
-0.141063
-0.134299
-0.123032
-0.121833
-0.134819
-0.157149
-0.159208
-0.166357
-0.174027
-0.222149
-0.240588
-0.159185
0.0521721
0.36362
0.750158
1.18165
1.68303
1.83957
2.26649
2.0188
1.40645
0.684389
0.0324888
-0.454253
-0.775973
-0.927692
-0.934525
-0.801403
-0.638281
-0.509706
-0.465905
-0.486855
-0.537624
-0.583235
-0.588688
-0.578937
-0.554027
-0.563891
-0.588416
-0.602534
-0.601629
-0.611312
-0.622557
-0.626086
-0.642285
-0.640792
-0.64009
-0.633145
-0.643529
-0.65043
-0.633891
-0.599728
-0.563597
-0.521674
-0.504977
-0.503959
-0.468643
-0.433575
-0.378959
-0.314412
-0.264751
-0.229977
-0.16009
-0.105317
-0.0557013
-0.0112443
0.018077
0.0373077
0.136403
0.215317
0.28905
0.332738
0.371493
0.390181
0.448575
0.511629
0.549367
0.586968
0.589548
0.592059
0.604457
0.636471
0.633416
0.610091
0.591606
0.582896
0.578937
0.569796
0.545747
0.496855
0.447873
0.408643
0.399163
0.384457
0.364729
0.329887
0.284887
0.24948
0.223552
0.181991
0.139774
0.096991
0.0637331
0.0452489
0.0316064
0.003077
-0.0403166
-0.0636651
-0.0771266
-0.060656
-0.0541175
-0.0574886
-0.0856108
-0.0935067
-0.091267
-0.0739367
-0.041561
-0.024095
0.0334616
0.0810634
0.103552
0.146199
0.159434
0.163801
0.149683
0.147421
0.142217
0.104502
0.0276471
-0.0571266
-0.132918
-0.181448
-0.198258
-0.212918
-0.224774
-0.228122
-0.212262
-0.216538
-0.215317
-0.233484
-0.25129
-0.26414
-0.267285
-0.255792
-0.254502
-0.27319
-0.281719
-0.309977
-0.327986
-0.350701
-0.288077
-0.0902036
0.312805
0.865837
1.51396
2.0921
2.34536
2.12864
1.58192
0.855226
0.118462
-0.43319
-0.839683
-1.00604
-0.947353
-0.763552
-0.609751
-0.570814
-0.521697
-0.552262
-0.587489
-0.612624
-0.638235
-0.654932
-0.663462
-0.664276
-0.672647
-0.693009
-0.713914
-0.723213
-0.734774
-0.748032
-0.770136
-0.777828
-0.753597
-0.723054
-0.687036
-0.671358
-0.66129
-0.651787
-0.632398
-0.577873
-0.558077
-0.503213
-0.463371
-0.408529
-0.343688
-0.283869
-0.234095
-0.189389
-0.114864
-0.030543
0.0486652
0.107851
0.147014
0.201131
0.255136
0.338959
0.402579
0.461041
0.509208
0.557149
0.599955
0.632692
0.635317
0.632738
0.624864
0.626561
0.643009
0.644299
0.625543
0.606629
0.562511
0.528032
0.503349
0.473462
0.443462
0.423394
0.398054
0.382783
0.362534
0.312127
0.266833
0.231063
0.210023
0.188688
0.167195
0.12052
0.0885069
0.0559503
0.0327829
0.024163
0.0252489
0.00126702
-0.0027827
0.00319016
0.0242535
0.045543
0.0669231
0.093439
0.139932
0.191403
0.232941
0.259593
0.256538
0.24362
0.215747
0.177873
0.109977
0.0171493
-0.0755883
-0.132828
-0.174005
-0.18819
-0.204729
-0.213167
-0.218891
-0.203371
-0.178846
-0.181742
-0.16776
-0.176946
-0.183552
-0.186923
-0.166063
-0.185
-0.193326
-0.196176
-0.209072
-0.231923
-0.250091
-0.228507
-0.0970588
0.204186
0.655204
1.201
1.80174
2.26272
2.394
2.1307
1.59776
0.935091
0.717511
-0.225045
-0.637511
-0.874864
-0.922127
-0.814276
-0.646335
-0.523416
-0.500385
-0.52224
-0.553869
-0.575543
-0.597059
-0.618371
-0.629389
-0.630113
-0.630543
-0.640724
-0.650701
-0.655634
-0.671063
-0.677602
-0.690611
-0.705634
-0.722738
-0.736448
-0.735113
-0.731719
-0.710045
-0.699842
-0.706652
-0.716312
-0.699774
-0.657986
-0.611674
-0.551063
-0.511176
-0.481629
-0.447149
-0.397624
-0.3481
-0.288484
-0.243982
-0.189661
-0.14052
-0.0864932
-0.00246599
0.046629
0.0956562
0.159548
0.183167
0.306561
0.374842
0.4281
0.461267
0.494253
0.526946
0.564457
0.606787
0.623914
0.635815
0.632625
0.634186
0.620656
0.602127
0.573643
0.554864
0.530905
0.521878
0.512919
0.48905
0.465204
0.416244
0.392082
0.367692
0.362964
0.34276
0.311946
0.270498
0.223529
0.186222
0.148665
0.115724
0.0774435
0.0538236
0.0300453
0.0313123
0.0176698
-0.0209502
-0.0595022
-0.0780542
-0.096561
-0.0949773
-0.0832126
-0.0364931
0.0104073
0.0573756
0.0944797
0.131719
0.148982
0.151403
0.169502
0.204118
0.251018
0.270701
0.228326
0.15819
0.0687557
-0.00169678
-0.0595022
-0.0851809
-0.106719
-0.137353
-0.144706
-0.142964
-0.141357
-0.154276
-0.146493
-0.168258
-0.179977
-0.181697
-0.158461
-0.145294
-0.157308
-0.174593
-0.182149
-0.194909
-0.207873
-0.216018
-0.159389
0.0270815
0.343349
0.719525
1.19572
1.7019
2.10314
2.16957
1.77138
1.0986
0.361335
-0.255792
-0.692783
-0.929932
-0.987127
-0.889072
-0.745746
-0.587104
-0.498303
-0.48448
-0.515543
-0.536403
-0.602059
-0.612421
-0.597602
-0.587624
-0.592353
-0.611765
-0.650611
-0.649208
-0.637715
-0.626538
-0.621471
-0.632602
-0.650498
-0.655611
-0.641335
-0.629706
-0.627602
-0.623235
-0.600769
-0.555136
-0.526787
-0.486312
-0.459547
-0.442443
-0.420973
-0.325498
-0.255747
-0.206448
-0.167127
-0.127692
-0.0832126
-0.0237782
0.02543
0.0695476
0.123575
0.197625
0.271652
0.325566
0.354412
0.3781
0.396561
0.469842
0.527896
0.590747
0.61353
0.611335
0.609186
0.596946
0.59448
0.586674
0.573733
0.555724
0.542692
0.539706
0.496742
0.483824
0.445996
0.39819
0.380385
0.372466
0.359367
0.331199
0.283145
0.220068
0.176968
0.14819
0.12871
0.0935521
0.082896
0.05681
0.0304299
-0.00622168
-0.0383936
-0.0758823
-0.093552
-0.0914027
-0.0793891
-0.0573982
-0.0456787
-0.0690271
-0.0923755
-0.100566
-0.0837104
-0.046923
-0.000248849
0.0415158
0.0834163
0.110452
0.147602
0.175045
0.203439
0.218348
0.205181
0.204412
0.186177
0.149887
0.0840272
0.0115386
-0.0738234
-0.0923528
-0.133552
-0.116584
-0.100588
-0.124683
-0.14819
-0.165928
-0.167918
-0.14957
-0.146154
-0.147851
-0.149593
-0.161652
-0.163869
-0.151267
-0.17371
-0.196493
-0.244548
-0.257941
-0.236516
-0.110113
0.15138
0.533009
0.984729
1.52161
1.6838
2.29647
2.21964
1.7531
1.1067
0.420385
-0.170679
-0.646606
-0.932353
-1.02301
-0.903688
-0.714276
-0.574434
-0.499276
-0.513914
-0.548416
-0.58276
-0.596901
-0.595701
-0.599186
-0.602511
-0.61095
-0.624955
-0.630136
-0.657195
-0.671629
-0.663552
-0.666901
-0.654729
-0.650294
-0.657647
-0.681674
-0.68319
-0.667715
-0.646154
-0.599276
-0.577919
-0.572466
-0.557806
-0.548394
-0.499027
-0.454638
-0.420249
-0.380996
-0.336923
-0.287896
-0.238846
-0.199796
-0.185814
-0.132081
-0.108597
-0.00531675
0.0728281
0.125837
0.15871
0.191606
0.229412
0.267104
0.354525
0.421629
0.468416
0.515136
0.536855
0.553484
0.595023
0.601538
0.60267
0.593529
0.599163
0.604661
0.615113
0.590566
0.550995
0.511448
0.481787
0.476968
0.456923
0.441719
0.39638
0.345792
0.294909
0.26871
0.242036
0.204864
0.167217
0.129005
0.100633
0.0670362
0.0435294
0.0052036
-0.0282127
-0.0565837
-0.065
-0.0532579
-0.0562443
-0.0639366
-0.0764706
-0.0738461
-0.0511538
0.00160636
0.0195928
0.0875566
0.125543
0.158484
0.196629
0.210181
0.19957
0.175271
0.147738
0.102308
0.0395249
-0.037466
-0.116674
-0.161131
-0.172692
-0.162149
-0.169525
-0.174548
-0.181742
-0.185362
-0.174548
-0.183348
-0.191448
-0.199118
-0.201697
-0.199548
-0.202715
-0.211063
-0.234502
-0.262828
-0.261109
-0.189231
0.00294115
0.330385
0.793077
1.34084
1.90869
2.23672
2.18989
1.74317
1.09152
0.374751
-0.187172
-0.63414
-0.890973
-0.96767
-0.864163
-0.680588
-0.526991
-0.488326
-0.484615
-0.535679
-0.551674
-0.562511
-0.573303
-0.584661
-0.60224
-0.621855
-0.643846
-0.648235
-0.668824
-0.678937
-0.686561
-0.681154
-0.687647
-0.703167
-0.705045
-0.700453
-0.670204
-0.624796
-0.584751
-0.580091
-0.570588
-0.531086
-0.481516
-0.456674
-0.386742
-0.341697
-0.291719
-0.236674
-0.181584
-0.126357
-0.0711991
-0.0261765
0.0336651
0.113303
0.197873
0.267443
0.317014
0.361425
0.425633
0.474389
0.537986
0.576425
0.604683
0.642738
0.660566
0.673032
0.675204
0.657127
0.658778
0.630113
0.626109
0.591878
0.552602
0.493122
0.458394
0.423371
0.3981
0.382715
0.347376
0.331991
0.30672
0.271335
0.21586
0.150475
0.0948417
0.0689367
0.0626924
0.0511086
0.00418556
-0.00809953
-0.0106787
-0.0336877
-0.0369683
-0.0453846
-0.0886878
-0.0969909
-0.0951584
-0.0682127
-0.0361765
-0.00398186
0.0283259
0.070724
0.123235
0.165837
0.198597
0.201584
0.204796
0.178145
0.161448
0.11991
0.0437104
-0.0315837
-0.0902036
-0.126538
-0.150271
-0.166335
-0.18086
-0.175588
-0.172308
-0.146968
-0.134887
-0.130385
-0.152873
-0.171538
-0.180679
-0.184615
-0.193009
-0.200928
-0.208801
-0.216742
-0.194955
-0.203235
-0.181584
-0.0199547
0.291991
0.784186
1.34165
1.87932
2.19233
2.10552
1.65382
1.05715
0.42052
0.233778
-0.543122
-0.835023
-0.946855
-0.898507
-0.754977
-0.62629
-0.547647
-0.528982
-0.530136
-0.551041
-0.566855
-0.59233
-0.587557
-0.59776
-0.602851
-0.62491
-0.638891
-0.655339
-0.664095
-0.658869
-0.65776
-0.684163
-0.702398
-0.712511
-0.715181
-0.660996
-0.645566
-0.629367
-0.618235
-0.602602
-0.582443
-0.522489
-0.482511
-0.442353
-0.412149
-0.366833
-0.311606
-0.261403
-0.231403
-0.181538
-0.126878
-0.0673529
-0.00291851
0.0513801
0.100634
0.134774
0.183959
0.253054
0.311923
0.335453
0.40862
0.461584
0.514434
0.562195
0.589796
0.602082
0.584208
0.591131
0.597806
0.609208
0.590362
0.581109
0.546719
0.517217
0.497783
0.478032
0.4481
0.422986
0.392851
0.372738
0.342557
0.29224
0.236742
0.186041
0.170068
0.138778
0.137081
0.129887
0.0872625
0.0444119
0.0163349
-0.00692308
-0.0203394
-0.0238461
-0.0323303
-0.0357466
-0.0339593
-0.0270136
-0.0348869
-0.0327828
-0.00552034
0.05181
0.114231
0.161765
0.18948
0.207421
0.21552
0.213801
0.217081
0.210633
0.130045
0.0611086
-0.0104525
-0.0644344
-0.125882
