r
65
175
331
467
605
746
883
1018
1148
1284
1421
1553
1689
1827
1966
2097
2235
2366
2501
2642
2782
2916
3056
3188
3322
3455
3591
3731
3868
4007
4140
4275
4407
4543
4682
4820
4954
5092
5223
5357
5495
5629
5764
5901
6041
6179
6315
6447
6583
6723
6862
6996
7134
7265
7400
7534
7667
7802
7939
8080
8213
8348
8481
8617
8754
8894
9031
9168
9299
9433
9569
9706
9842
9978
10116
10251
10386
10517
10651
10788
10927
11061
11198
11333
11466
11601
11739
11871
12011
12151
12287
12420
12555
12688
12827
12965
13101
13236
13370
13504
13635
13773
13906
14043
14179
14315
14450
14585
14716
14852
14993
15132
15271
15405
15537
15674
15783
15939
16079
16215
16357
16488
16621
16754
16893
17031
17170
17305
17441
17572
17706
17844
17981
18118
18254
18393
18527
18667
18797
18932
19070
19209
19343
19478
19611
19746
19881
20016
20152
20288
20428
20567
20703
20837
20976
21115
21256
21389
21529
21662
21797
21934
22070
22206
22344
22484
22617
22753
22888
23022
23158
23298
23435
23572
23704
23843
23979
24116
24254
24390
24529
24668
24805
24938
25073
25210
25351
25484
25624
25755
25890
26025
26163
26300
26436
26575
26712
26847
26983
27117
27255
27393
27529
27668
27802
27937
28069
28209
28340
28476
28614
28751
28885
29021
29153
29289
29430
29570
29706
29839
29975
30112
30250
30376
30522
30665
30802
30937
31074
31207
31343
31480
31617
31755
31889
32028
32156
32296
32431
32571
32709
32843
32978
33112
33247
33383
33520
33658
33795
33930
34063
34196
34336
34466
34604
34734
34883
35016
35151
35287
35423
35561
35700
35836
35971
36106
36241
36377
36509
36650
36786
36925
37057
37194
37326
37457
37729
37870
38000
38140
38272
38409
38545
38815
38957
39090
39225
39357
39492
39630
39769
39892
40040
40171
40305
40442
40573
40711
40848
40989
41119
41255
41390
41525
41662
41795
41941
42073
42211
42348
42483
42618
42756
42893
43031
43164
43301
43435
43570
43707
43848
43971
44122
44254
44389
44526
44659
44793
44934
45073
45208
45343
45477
45613
45752
45891
46027
46165
46295
46430
46562
46696
46831
46968
47105
47242
47381
47514
47648
47788
47930
48065
48201
48335
48475
48610
48745
48880
49021
49157
49295
49428
49563
49689
49836
49975
50111
50251
50385
50519
50653
50792
51205
51480
51617
51753
51889
52029
52167
52306
52438
52571
52700
52846
52979
53116
53254
53391
53524
53662
53793
53931
54065
54210
54346
54483
54620
54753
54890
55026
55163
55300
55437
55570
55706
55840
55976
56112
56252
56523
56655
56791
56931
57068
57209
57345
57485
57621
57757
57888
58027
58165
58303
58438
58576
58707
58843
58981
59113
59252
59391
59528
59662
59800
59934
60071
60212
60352
60486
60619
60723
60884
61030
61165
61301
61435
61575
61707
61841
61971
62109
62247
62387
62514
62660
62793
62930
63070
63201
63340
63479
63621
63754
63890
64028
64164
64299
64436
64571
64701
64847
64979
65116
65252
65393
65528
65667
65800
65939
66073
66208
66344
66482
66617
66754
66884
67019
67144
67291
67426
67559
67701
67833
67968
68102
68238
68377
68515
68651
68790
68923
69058
69198
69322
69469
69607
69747
69886
70023
70155
70290
70429
70567
70701
70839
70962
71109
71246
71382
71522
71658
71800
71935
72075
72206
72341
72480
72626
72760
72898
73032
73170
73303
73436
73576
73703
73854
73977
74126
74263
74397
74534
74675
74812
74950
75082
75220
75355
75490
75630
75765
75904
76040
76177
76308
76441
76582
76722
76855
76995
77126
77261
77396
77521
77670
77952
78089
78226
78364
78497
78634
78776
78910
79046
79179
79313
79445
79580
79719
79856
79985
80132
80270
80404
80536
80676
80816
80954
81093
81227
81360
81494
81625
81767
81906
82047
82182
82316
82451
82585
82722
82861
82996
83136
83269
83403
83537
83679
83807
83956
84094
84235
84369
84504
84641
84779
84918
85055
85195
85327
85462
85566
85732
85867
86006
86148
86284
86419
86555
86689
86803
86970
87110
87246
87381
87516
87654
87791
87926
88067
88207
88342
88475
88613
88745
88882
89025
89163
89300
89433
89570
89708
89845
89943
90113
90257
90392
90528
90664
90797
90936
91078
91214
91350
91482
91619
91751
91889
92026
92162
92302
92439
92574
92709
92845
92986
93125
93261
93369
93533
93672
93807
93946
94079
94183
94352
94489
94625
94759
94894
95035
95173
95309
95446
95580
95715
95850
95989
96123
96261
96403
96539
96673
96807
96943
97086
97225
97359
97500
97632
97767
97903
98042
98176
98315
98455
98589
98727
98866
99000
99138
99252
99417
99557
99692
99827
99964
100101
100238
100374
100511
100650
100786
100918
101052
101190
101335
101469
101606
101737
101881
102016
102152
102290
102430
102566
102702
102838
102977
103110
103246
103389
103525
103666
103796
103929
104066
104203
104337
104473
104614
104749
104885
105022
105158
105296
105437
105576
105713
105845
105982
106119
106254
106388
106526
106665
106801
106935
107074
107207
107343
107485
107625
107760
107894
108033
108167
108303
108440
108581
108719
108855
108993
109129
109259
109395
109535
109676
109809
109922
110076
110215
110352
110482
110620
110759
110885
111035
111170
111306
111443
111581
111720
111857
111991
112124
112258
112395
112526
112666
112803
112941
113074
113212
113348
113481
113621
113762
113900
114036
114170
114310
114447
114580
114716
114859
114991
115135
115271
115402
115538
115684
115820
115959
116089
116230
116352
116502
116638
116778
116915
117057
117193
117326
117459
117595
117740
117881
118017
118151
118288
118421
118550
118696
118828
118973
119104
119251
119385
119516
119656
119802
119940
120077
120213
120351
120477
120625
120760
120899
121032
121178
121312
121446
121582
121724
121863
122002
122140
122273
122411
122544
122675
122821
122949
123102
123229
123379
123513
123647
123786
123929
124066
124201
124332
124468
124605
124739
124874
125012
125147
125288
125425
125561
125697
125835
125977
126112
126254
126386
126519
126656
126784
126933
127070
127209
127343
127478
127611
127748
127884
128025
128150
128298
128415
128568
128705
128839
129115
129257
129392
129526
129663
129797
129936
130080
130212
130350
130481
130617
130751
130885
131025
131161
131300
131434
131569
131708
131841
131978
132261
132404
132535
132671
132807
132945
133079
133213
133353
133491
133626
133758
133893
134034
134174
134307
134444
134579
134715
134850
134988
135123
135262
135404
135541
135678
135814
135952
136091
136229
136365
136504
136639
136774
136907
137048
137181
137319
137451
137599
137736
137870
138007
138145
138287
138404
138563
138697
138833
138970
139105
139238
139367
139518
139653
139787
139925
140060
140196
140336
140473
140612
140746
140881
141020
141161
141295
141434
141566
141710
141832
141983
142123
142261
142401
142535
142676
142808
142943
143070
143217
143351
143489
143622
143769
143904
144039
144177
144315
144455
144592
144734
144864
145000
145136
145273
145408
145545
145686
145821
145956
146091
146227
146365
146506
146643
146785
146917
147054
147190
147328
147467
147587
147744
147881
148021
148152
148287
148427
148569
148702
148838
148972
149112
149247
149381
149520
149662
149803
149937
150076
150213
150351
150488
150627
150766
150907
151041
151173
151309
151445
151586
151725
151865
151999
152141
152273
152409
152553
152692
152827
152955
153104
153239
153380
153512
153652
153792
153929
154062
154200
154332
154469
154602
154748
154884
155021
155158
155291
155429
155563
155707
155842
155982
156118
156246
156394
156518
156671
156954
157088
157221
157357
157500
157629
157767
157905
158050
158181
158316
158441
158592
158735
158875
159013
159121
159285
159420
159561
159697
159836
159975
160116
160250
160379
160521
160650
160803
160942
161047
161210
161348
161483
161626
161762
161900
162040
162182
162297
162451
162589
162729
162870
163008
163147
163279
163417
163552
163692
163827
163964
164107
164246
164382
164518
164658
164797
164936
165075
165213
165349
165490
165628
165765
165902
166046
166186
166322
166459
166596
166732
166870
167013
167151
167287
167420
167557
167698
167835
167973
168112
168255
168392
168529
168663
168804
168943
169084
169220
169361
169493
169628
169770
169905
170043
170182
170326
170460
170597
170733
170871
171011
171153
171293
171430
171563
171702
171841
171975
172117
172254
172394
172529
172668
172801
172938
173082
173222
173359
173497
173633
173768
173906
174042
174188
174326
174464
174602
174742
174876
175013
175157
175298
175434
175568
175705
175840
175979
176114
176253
176390
176529
176667
176802
176938
177081
177224
177361
177501
177636
177773
177908
178048
178182
178321
178464
178598
178736
178873
179009
179146
179288
179428
179566
179700
179840
179976
180114
180254
180393
180538
180676
180813
180951
181086
181226
181370
181503
181641
181777
181911
182050
182186
182318
182464
182609
182746
182883
183022
183159
183301
183444
183580
183718
183854
183989
184130
184265
184408
184543
184685
184819
184955
185090
185228
185375
185513
185650
185789
185931
186068
186208
186345
186484
186623
186766
186901
187036
187172
187312
187452
187591
187732
187866
188003
188139
188276
188412
188555
188697
188834
188972
189110
189245
189387
189531
189668
189809
189943
190080
190215
190355
190493
190628
190770
190909
191046
191180
191317
191461
191603
191739
191882
192016
192155
192297
192431
192571
192714
192854
192989
193123
193263
193401
193541
193682
193818
193951
194095
194230
194370
194508
194648
194786
194929
195070
195207
195341
195479
195624
195765
195899
196037
196310
196448
196581
196725
196861
197001
197135
197276
197410
197547
197689
197831
197970
198107
198242
198373
198524
198658
198798
198927
199079
199213
199350
199486
199626
199901
200042
200177
200313
200447
200588
200719
200859
201001
201130
201279
201415
201553
201690
201830
201968
202111
202244
202378
202504
202651
202786
202924
203067
203201
203338
203475
203611
203749
203891
204031
204172
204302
204439
204577
204713
204848
204978
205128
205254
205408
205540
205677
205822
205960
206095
206233
206370
206510
206645
206781
206922
207066
207200
207343
207481
207618
207760
207898
208040
208176
208318
208451
208584
208727
208865
209002
209142
209287
209427
209561
209695
209839
209985
210123
210260
210397
210537
210672
210811
210948
211092
211230
211367
211506
211645
211781
211920
212066
212171
212339
212466
212614
212755
212891
213032
213172
213317
213454
213591
213729
213868
214148
214289
214417
214562
214691
214842
214977
215120
215256
215400
215538
215675
215809
215949
216096
216239
216369
216516
216655
216790
216929
217067
217208
217345
217485
217622
217757
217891
218032
218176
218316
218453
218585
218724
218847
219001
219142
219285
219426
219563
219705
219842
219977
220117
220260
220396
220535
220669
220809
220950
221048
221354
221503
221637
221776
221912
222052
222189
222335
222470
222608
222741
222881
223017
223152
223292
223426
223564
223702
223831
224111
224255
224396
224531
224670
224808
224945
