ekg
0
0
0
0.00142857
0.00722221
0.00409091
0.00730768
-0.00466666
-0.0164706
-0.0152632
0.0204762
0.00173914
-0.0186
-0.0227778
-0.00275862
-0.0106452
-0.0242424
-0.0125714
0.00729734
0.00782052
-0.00780487
-0.0123256
-0.00322223
0.0169149
0.000408173
-0.00549021
-0.0120755
0.0113636
-0.0155263
-0.0377118
-0.0404099
-0.0336508
-0.0424616
-0.0564926
-0.0507971
-0.0353521
-0.0295205
-0.0583333
-0.0465585
-0.0342405
-0.0361111
-0.0578916
-0.0638236
-0.035
-0.030618
-0.0614836
-0.0518817
-0.0228421
-0.0136083
-0.029495
-0.035099
-0.0209709
-0.00680956
-0.00799072
-0.0190826
-0.0200451
0.0138053
0.0128695
0.00200853
0.0161344
0.0352479
0.0445122
0.04896
0.0586614
0.083062
0.0775191
0.0920301
0.0867037
0.11635
0.131079
0.105603
0.100175
0.12431
0.117075
0.0860738
0.0701324
0.0555229
0.041129
-0.0126115
-0.0209434
-0.00913043
0.00705522
-0.0318788
-0.0454192
-0.0389054
-0.017193
-0.0355203
-0.0538
-0.0368644
-0.0303911
-0.0287845
-0.0524317
-0.0409189
-0.0195989
-0.0132011
-0.0221466
-0.0211658
-0.0154359
-0.00969543
-0.0193467
-0.0289552
-0.0136946
-0.00339025
-0.00833333
-0.00842105
-0.00369668
0.0259389
0.025279
-0.0105069
-0.0165069
0.0175792
0.0218326
0.00101809
-0.00475113
0.00454751
-0.00608596
-0.00174208
-0.00730769
0.00217192
0.00669684
-0.00877826
-0.0141855
-0.0045249
-0.00995477
-0.0304525
-0.0358371
-0.036267
-0.0216742
-0.011991
-0.0222625
-0.0176018
-0.0179186
-0.0282353
-0.0336652
-0.0340271
-0.0344344
-0.0298416
-0.0353394
-0.0407692
-0.0262217
-0.0217421
-0.0322624
-0.022828
-0.00841625
0.0160182
0.0604752
0.149977
0.289638
0.489321
0.728937
0.818597
1.34326
1.57285
1.5974
1.36201
0.926697
0.43629
-0.0290724
-0.229434
-0.189796
-0.100091
-0.0854525
-0.110815
-0.101267
-0.0816064
-0.116923
-0.13733
-0.142602
-0.127873
-0.153167
-0.158416
-0.163575
-0.148643
-0.153597
-0.173529
-0.188371
-0.183281
-0.148009
-0.147805
-0.157534
-0.167195
-0.13681
-0.146516
-0.156199
-0.160905
-0.145633
-0.140385
-0.160249
-0.145226
-0.120543
-0.125973
-0.132262
-0.109276
-0.102443
-0.1069
-0.117737
-0.119615
-0.102104
-0.0889819
-0.109208
-0.112421
-0.108597
-0.0935294
-0.103167
-0.1081
-0.0881674
-0.0733258
-0.0634615
-0.068552
-0.058552
-0.0333484
-0.0282579
-0.0430996
-0.0178507
0.0124886
0.0128733
0.0132352
0.0286425
0.0491402
0.0495474
0.0148868
0.010294
0.0257692
0.0162669
0.00174202
-0.012896
-0.012534
-0.0320815
-0.0566969
-0.0813801
-0.0810408
-0.060724
-0.0954073
-0.0951584
-0.0849774
-0.0898191
-0.0897059
-0.109774
-0.119819
-0.109774
-0.0947286
-0.114706
-0.119661
-0.0847965
-0.0798869
-0.0850001
-0.0902263
-0.0753847
-0.0656335
-0.0859729
-0.0912218
-0.0914933
-0.0717421
-0.071991
-0.0872172
-0.0823077
-0.0721494
-0.0966969
-0.125747
-0.0938914
-0.0859277
-0.0824887
-0.0818779
-0.0703168
-0.0486426
-0.0530091
-0.059457
-0.05819
-0.0290045
-0.0206109
-0.0520815
-0.0431901
-0.0291855
0.00479631
-0.0211539
-0.0370136
-0.0179639
-0.0138915
-0.0147738
-0.0206109
-0.0164028
-0.0170363
-0.027715
-0.0483938
-0.0440272
-0.0396607
-0.0302715
-0.0560181
-0.0466516
-0.0321946
-0.0327602
-0.0687557
-0.0547738
-0.0359276
-0.0372398
-0.0588009
-0.0605656
-0.0326471
-0.00522627
0.02181
0.0334615
0.22957
0.400226
0.610498
0.875226
1.17937
1.42301
1.53138
1.36975
1.01339
0.567263
0.111561
-0.19362
-0.252964
-0.171425
-0.139615
-0.131742
-0.138462
-0.144932
-0.161312
-0.217579
-0.203891
-0.205452
-0.217557
-0.244864
-0.256629
-0.247217
-0.226629
-0.245475
-0.25905
-0.247443
-0.225701
-0.233914
-0.257104
-0.255158
-0.218054
-0.225973
-0.238959
-0.226923
-0.199887
-0.197896
-0.20595
-0.208937
-0.181968
-0.169887
-0.182851
-0.175814
-0.133733
-0.121697
-0.129661
-0.137579
-0.125407
-0.128303
-0.0961991
-0.109004
-0.10181
-0.0745248
-0.0822624
-0.0650226
-0.0477375
-0.0504072
-0.0382126
-0.0511991
-0.0391855
-0.0271267
-0.0300905
-0.0382579
-0.0114705
0.0202263
0.0218326
0.0183484
0.00472852
0.0510407
0.0723303
0.0734842
0.0695249
0.0954525
0.111335
0.107081
0.0827828
0.0934615
0.104072
0.094638
0.075181
0.0707919
0.0713348
0.05681
0.0322851
0.0177828
0.0232805
-0.0112217
-0.0508371
-0.045543
-0.0302036
-0.0448643
-0.0645023
-0.0842081
-0.0488688
-0.0386652
-0.0584842
-0.0633032
0.0218552
0.0569231
0.076991
0.102059
0.152195
0.212398
0.287557
0.377805
0.478167
0.588801
0.704502
0.800996
0.913235
1.04649
1.18102
1.29183
1.36369
1.39618
1.36303
1.30328
1.2114
1.10249
0.932262
0.726787
0.66172
0.446765
0.3719
0.327014
0.302081
0.287104
0.321878
0.381697
0.486425
0.556109
0.465815
0.205498
-0.0549095
-0.165294
-0.205701
-0.246131
-0.311516
-0.326833
-0.317195
-0.357557
-0.407919
-0.418167
-0.403484
-0.428824
-0.45414
-0.469412
-0.459661
-0.454842
-0.480136
-0.505407
-0.485611
-0.490747
-0.500905
-0.510996
-0.521041
-0.521086
-0.526154
-0.531199
-0.536267
-0.521154
-0.516131
-0.541131
-0.541086
-0.521018
-0.520747
-0.55052
-0.525362
-0.485158
-0.46491
-0.474638
-0.484389
-0.434005
-0.413643
-0.41819
-0.427738
-0.377195
-0.341584
-0.326063
-0.325475
-0.289819
-0.249095
-0.233326
-0.232579
-0.201787
-0.160905
-0.145113
-0.159457
-0.138756
-0.118077
-0.0974208
-0.106878
-0.106403
-0.085905
-0.0854525
-0.0851584
-0.0899095
-0.0597738
-0.0397511
-0.0596606
-0.0795927
-0.0795701
-0.0595249
-0.0596153
-0.0547285
-0.0397963
-0.0249321
-0.0200452
-0.0349095
-0.0196832
0.000701413
-0.0137782
-0.0481221
-0.0372624
-0.0260181
-0.0193665
-0.0472624
-0.0447737
-0.0168326
-0.00366515
-0.0103846
-0.0170814
0.0111312
0.0339819
0.011086
-0.00289589
0.00192316
0.0307467
0.0292535
0.0181901
0.0181222
0.0140725
0.0264254
0.0187104
0.0207919
0.0274435
0.0239141
0.0251132
0.0314706
0.0532579
0.055543
0.0281674
0.0253846
0.0565385
0.0716064
0.0562217
0.045543
0.0447285
0.0487331
0.0476471
0.0215837
0.0203847
0.0290724
0.0326471
0.0211539
0.0245702
0.0379865
0.0313349
0.00466068
0.0229638
0.0411991
0.0343439
0.00251131
0.0106108
0.033733
0.0318326
0.0197738
0.0126471
0.0154977
0.0133937
0.00115386
0.00389142
0.0116516
0.0242761
0.00694574
-0.0253846
-0.0027149
0.00486431
0.00257926
-0.0246832
-0.0218325
-0.00902711
-0.0463122
-0.0534163
-0.0504525
-0.0224208
-0.0444796
-0.0664479
-0.06319
-0.0347963
-0.0314253
-0.0479638
-0.0643891
-0.0356787
-0.0321267
-0.0585295
-0.0648869
-0.0261765
-0.0276697
-0.0342081
-0.050724
-0.0321493
-0.0186425
-0.0402262
-0.0568099
-0.0383258
-0.0247511
-0.0362444
-0.0525792
-0.0636878
-0.0448416
-0.051086
-0.0773756
-0.0684842
-0.0294344
-0.0303168
-0.0361086
-0.0467421
-0.0172398
-0.00280546
-0.0183484
-0.0237557
-0.00418553
0.0102941
-0.000248879
-0.000724018
-0.001086
0.0234389
0.0379412
0.0824887
0.167149
0.291765
0.441244
0.625769
0.85543
1.12002
1.34457
1.49894
1.47348
1.26817
0.877692
0.447127
0.0716289
-0.128801
-0.159299
-0.109819
-0.0952489
-0.0507014
-0.0511086
-0.0865611
-0.0919005
-0.0971946
-0.0976471
-0.123122
-0.143462
-0.153643
-0.128891
-0.139299
-0.164706
-0.159977
-0.155091
-0.165294
-0.190633
-0.175928
-0.146222
-0.151538
-0.176878
-0.177104
-0.162195
-0.152489
-0.162805
-0.167986
-0.1531
-0.143371
-0.158665
-0.163869
-0.139005
-0.124186
-0.12448
-0.139819
-0.115
-0.0952715
-0.0954977
-0.0906787
-0.100815
-0.0809955
-0.0813349
-0.091629
-0.0967647
-0.06181
-0.0669231
-0.067172
-0.0573077
-0.0474434
-0.042647
-0.0629185
-0.0530995
-0.0233258
-0.038552
-0.0538688
-0.049095
-0.0341403
-0.0192308
-0.0345475
0.000271514
0.0201358
0.0499095
0.0495475
0.0792761
0.109118
0.124005
0.123869
0.128643
0.148484
0.168371
0.153213
0.133077
0.142964
0.137873
0.107624
0.0972399
0.0969684
0.106787
0.0864933
0.0511765
0.0410408
0.0359955
0.0159503
-0.00923073
-0.00929862
0.00070139
-0.00938912
-0.019457
-0.0345249
-0.0194796
-0.0244344
-0.0444344
-0.0497738
-0.0449547
-0.030181
-0.0456109
-0.0462443
-0.0269457
-0.0127602
-0.0237104
-0.0347285
-0.0406108
0.00373308
-0.00644794
-0.0361991
-0.0104751
0.0102489
-0.0093665
-0.0142534
-0.00923076
-0.00427599
-0.0193665
-0.0195701
-0.0296606
-0.0147285
-0.0199095
-0.0301357
-0.0253167
-0.0253394
-0.0254072
-0.0455882
-0.0459276
-0.0211086
-0.0213348
-0.0466742
-0.0820588
-0.0874208
-0.0577601
-0.0581448
-0.0535068
-0.058733
-0.0488461
-0.059095
-0.094457
-0.0748416
-0.0501357
-0.060362
-0.0806561
-0.075905
-0.0610633
-0.0562444
-0.071448
-0.0716969
-0.0518552
-0.0369457
-0.0722172
-0.0623756
-0.0673982
-0.0673077
-0.0622398
-0.0672625
-0.0621946
-0.0470589
-0.0720815
-0.0922851
-0.102398
-0.0674661
-0.077534
-0.11267
-0.102828
-0.0829186
-0.0730769
-0.0832127
-0.103303
-0.0785068
-0.0687104
-0.103914
-0.10914
-0.0743213
-0.0745928
-0.0797512
-0.0848643
-0.0597964
-0.0396833
-0.0645023
-0.0792534
-0.088982
-0.0486652
-0.0483032
-0.0779186
-0.0824435
-0.0670136
-0.0567195
-0.0714933
-0.0513349
-0.0311313
-0.0359276
-0.0608145
-0.0606561
-0.0455656
-0.0454978
-0.0654751
-0.0704751
-0.0504525
-0.0454299
-0.0454978
-0.0405656
-0.0506109
-0.0305656
-0.0405656
-0.0505882
-0.0406335
0.0343439
0.0243439
0.049276
0.139231
0.269231
0.409321
0.584367
0.799434
1.04448
1.27939
1.45412
1.50403
1.38394
1.07367
0.683439
0.327964
0.0122624
-0.168416
-0.184208
-0.125294
-0.0867421
-0.0684842
-0.0757466
-0.0884615
-0.0866063
-0.105158
-0.14414
-0.163688
-0.163688
-0.144072
-0.159774
-0.165385
-0.170905
-0.161425
-0.166855
-0.187014
-0.206516
-0.200249
-0.203167
-0.23586
-0.23267
-0.209186
-0.190634
-0.201991
-0.228281
-0.219638
-0.216222
-0.22819
-0.240498
-0.242376
-0.208416
-0.213439
-0.227783
-0.201719
-0.200633
-0.209299
-0.232873
-0.221403
-0.209729
-0.207896
-0.221041
-0.194072
-0.157149
-0.140226
-0.153303
-0.15129
-0.124276
-0.107376
-0.115362
-0.118235
-0.111063
-0.0887783
-0.0766742
-0.0895701
-0.0823756
-0.0602715
-0.0530543
-0.0457466
-0.0334163
-0.0209955
-0.0285068
-0.035905
-0.0182579
-0.000588238
0.0120588
0.00463801
0.00230769
0.02
0.0225565
0.0201131
0.0326471
0.0602941
0.0728507
0.0354751
0.0279638
0.0504525
0.0527828
0.05
0.0221946
0.0243439
0.0263574
0.00319003
-0.0200453
0.00165159
0.0132579
-0.000158355
-0.0288461
-0.0325565
-0.0112669
-0.0102036
-0.0342307
-0.0430543
-0.0219231
-0.0105882
-0.0338688
-0.0518552
-0.0192307
-0.00567871
-0.00626696
0.0191403
0.0606561
0.0729864
0.070543
0.0875566
0.1081
0.186923
0.21914
0.209842
0.239729
0.309661
0.374819
0.440113
0.54543
0.660837
0.751154
0.831403
0.931539
1.05652
1.15643
1.22138
1.29138
1.2964
1.27654
1.25165
1.19674
1.13181
1.0169
0.846946
0.671946
0.616901
0.431833
0.356742
0.306652
0.306697
0.316855
0.321855
0.351833
0.441855
0.531946
0.441968
0.241946
0.0170815
-0.11276
-0.187647
-0.227421
-0.272195
-0.296968
-0.30681
-0.346742
-0.386765
-0.386697
-0.396629
-0.411516
-0.43129
-0.440973
-0.425656
-0.435339
-0.444932
-0.45948
-0.46405
-0.463665
-0.498326
-0.477964
-0.452376
-0.461742
-0.476154
-0.505588
-0.489887
-0.494027
-0.518167
-0.537353
-0.536584
-0.52586
-0.55509
-0.564344
-0.558529
-0.537692
-0.541923
-0.541063
-0.545158
-0.524231
-0.538348
-0.532421
-0.526425
-0.47552
-0.479638
-0.468733
-0.442851
-0.421878
-0.411086
-0.400385
-0.364819
-0.329299
-0.308778
-0.28819
-0.277715
-0.227172
-0.201697
-0.21129
-0.170724
-0.14009
-0.109525
-0.109118
-0.12871
-0.123213
-0.0577828
-0.0524208
-0.0820361
-0.0566289
-0.0311538
-0.0405429
-0.0448416
-0.0441855
-0.0435294
-0.0277827
-0.0370361
-0.0359728
-0.0146832
-0.0133483
-0.0368551
-0.0252262
-0.0132352
0.00414035
-0.0181221
-0.00497729
0.01862
0.0326924
0.0371042
0.0421494
0.0428055
0.0638236
0.0549322
0.035973
0.0469458
0.0727829
0.0833712
0.0685975
0.0682581
0.0922399
0.10552
0.0834616
0.0955431
0.122285
0.113914
0.0805205
0.0920589
0.108688
0.105475
0.0826245
0.0902036
0.10233
0.103597
0.0938236
0.088371
0.0876245
0.0867421
0.0756335
0.064276
0.0928507
0.121312
0.0996381
0.0828508
0.0959729
0.103846
0.0962897
0.0782128
0.0745702
0.0752037
0.0747512
0.0638462
0.060973
0.0673304
0.0733033
0.025068
-0.00665146
0.00332592
0.0250228
-0.00214916
-0.0338912
-0.0258143
-0.00794104
-0.0103166
-0.0126469
-0.00995463
0.00771506
0.000316873
-0.0170587
-0.00923067
-0.0162442
-0.0283031
-0.0404524
-0.022466
-0.00945693
-0.0164027
-0.0383483
-0.0451809
-0.0319682
-0.0286198
-0.0552262
-0.0468099
-0.0283484
0.000362009
-0.0157466
-0.0418099
-0.0377602
-0.00350678
-0.0342081
-0.0498643
-0.040362
-0.0558597
-0.0711991
-0.0815158
-0.0567647
-0.0369005
-0.0471719
-0.0575113
-0.0626018
-0.0376018
-0.0326697
-0.0526471
-0.0626471
-0.0477376
-0.0327828
-0.0428733
-0.0531448
-0.0383032
-0.0334841
-0.0538009
-0.0741855
-0.0795702
-0.0400226
-0.0554073
-0.0758598
-0.051267
-0.0267421
-0.0372625
-0.0627602
-0.0382806
-0.0537104
-0.0892308
-0.104842
-0.0554072
-0.0360407
-0.0417874
-0.037534
-0.0384163
-0.0242534
-0.0151584
-0.0361086
-0.0571267
-0.0380543
-0.0340272
-0.0348869
-0.0606335
-0.0563575
-0.0321267
-0.0477828
-0.0534389
-0.0440724
-0.0496607
-0.0401357
-0.0505883
-0.0460181
-0.0263575
-0.0366516
-0.0470362
-0.0424434
-0.0128507
-0.00825793
-0.0235068
-0.0336878
-0.0088914
0.000904977
0.0407692
0.115566
0.220407
0.360249
0.510023
0.739729
0.824525
1.25432
1.4241
1.47382
1.31857
1.00824
0.622715
0.227262
-0.0530543
-0.133394
-0.0988462
-0.0793213
-0.0448416
-0.0552715
-0.050724
-0.0761991
-0.0717194
-0.0721719
-0.0976018
-0.138009
-0.128371
-0.113688
-0.124004
-0.144276
-0.149547
-0.144819
-0.120181
-0.135566
-0.155905
-0.141199
-0.126538
-0.126855
-0.172127
-0.177285
-0.152376
-0.157489
-0.182647
-0.182715
-0.142873
-0.153054
-0.163235
-0.158552
-0.133914
-0.119231
-0.144548
-0.134864
-0.115204
-0.105452
-0.120769
-0.136018
-0.13129
-0.101561
-0.0919231
-0.10724
-0.0974434
-0.0576018
-0.0678054
-0.0730543
-0.043371
-0.00866514
-0.00893664
-0.0192986
-0.0245928
4.52548e-05
0.004638
-0.00570135
0.0133937
0.026991
0.0398643
0.016991
0.0328733
0.0424208
0.0408371
0.0338462
0.0272172
0.0272172
0.0743891
0.0685068
0.0639819
0.069819
0.105271
0.0953846
0.0803168
0.0652036
0.0652489
0.0502489
0.0252036
0.010362
0.025543
0.0157692
-0.0189593
-0.0388009
-0.0335973
-0.0383484
-0.0680769
-0.0827149
-0.0623077
-0.0569457
-0.0666063
-0.0761765
-0.080724
-0.0652489
-0.0797285
-0.0941629
-0.0935973
-0.0678054
-0.0817647
-0.0952941
-0.0782353
-0.0554525
-0.0666742
-0.0675792
-0.0516289
-0.0197511
-0.00273757
-0.0164253
0.00337106
0.00647059
0.00287332
-0.0170588
-0.0224887
-0.00785069
0.0219457
0.00199094
0.00687784
0.0167195
0.0464254
0.0261312
0.005724
0.010181
-0.00558823
-0.0263122
-0.0370815
-0.0279638
-0.0137783
-0.0196154
-0.0206335
-0.0215385
-0.0175113
-0.0234615
-0.0393665
-0.0354072
-0.0263574
-0.022466
-0.0536425
-0.0747511
-0.0608823
-0.0469457
-0.0579864
-0.0688461
-0.059638
-0.0453393
-0.0509954
-0.0716063
-0.0471493
-0.0276696
-0.0330542
-0.063371
-0.0536425
-0.0438687
-0.0341855
-0.0545022
-0.0446832
-0.0396832
-0.0497737
-0.0698642
-0.0698642
-0.0449095
-0.0249095
-0.0497285
-0.0744796
-0.059276
-0.0341176
-0.0340724
-0.0439366
-0.033733
0.116471
0.216719
0.351946
0.54233
0.802692
1.06326
1.29871
1.43916
1.37966
1.0152
0.540769
0.111584
-0.172624
-0.241833
-0.176041
-0.120249
-0.0593213
-0.0434842
-0.0777149
-0.0920588
-0.0763575
-0.0956787
-0.115204
-0.129729
-0.129276
-0.108937
-0.108688
-0.128462
-0.128235
-0.127986
-0.147851
-0.147692
-0.137557
-0.127443
-0.127308
-0.147285
-0.167149
-0.151968
-0.14181
-0.151697
-0.131674
-0.121652
-0.111606
-0.121538
-0.111403
-0.0962217
-0.0759955
-0.110747
-0.0905204
-0.0901358
-0.064819
-0.0745023
-0.0942082
-0.0790272
-0.0488462
-0.0286199
-0.0433711
-0.0630317
-0.0378281
-0.0225113
-0.017172
-0.0117647
0.013552
0.0188235
0.0291403
0.0293665
0.0544796
0.0695475
0.0346832
0.0348643
0.0800905
0.0802715
0.080362
0.0554072
0.0605204
0.105633
0.0857466
0.075724
0.0857466
0.095724
0.0956335
0.0554977
0.0504525
0.0504299
0.0253167
-0.00486425
-0.00999999
0.00495476
0.00479639
-0.0252036
-0.0451584
-0.0402036
-0.0406108
-0.0664706
-0.0628733
-0.0598416
-0.0627376
-0.0967647
-0.0971267
-0.0936199
-0.0807692
-0.0875566
-0.107873
-0.121199
-0.102602
-0.0923756
-0.0915837
-0.0709955
-0.0655204
-0.0752262
-0.0850226
-0.0741176
-0.0526471
-0.0704977
-0.0824661
-0.103303
-0.0578733
-0.0462443
-0.049095
-0.052285
-0.0470362
-0.0488914
-0.0477149
-0.0529412
-0.0483936
-0.0134842
-0.0533936
-0.0481222
-0.0477828
-0.0225565
-0.0473529
-0.0671493
-0.0370135
-0.0219004
-0.0267873
-0.036742
-0.036742
-0.0267647
-0.0317647
-0.0667873
-0.0569457
-0.0421719
-0.0323982
-0.0376018
-0.0528054
-0.0330769
-0.0433031
-0.0686878
-0.079095
-0.0694344
-0.0247511
-0.0401583
-0.0607466
-0.0513122
-0.0468552
-0.0723755
-0.0879864
-0.083552
-0.0542307
-0.079819
-0.0855656
-0.0712896
-0.0668552
-0.0476244
-0.0683484
-0.0840271
-0.074638
-0.0652488
-0.0560181
-0.0767647
-0.0723529
-0.0578507
-0.058371
-0.0687782
-0.0741403
-0.0693665
-0.0645249
-0.0645475
-0.0694344
-0.0643439
-0.0792534
-0.069095
-0.0488235
-0.0333484
-0.0529185
-0.0675339
-0.0619457
-0.0214027
-0.0258597
-0.0452941
-0.0497058
-0.0240723
-0.0286199
-0.0432805
-0.0330995
-0.00798638
-0.00300899
-0.0283484
-0.0239366
-0.0345927
-0.0254751
-0.0117194
0.0365838
0.144457
0.27181
0.403756
0.585113
0.841041
1.13649
1.37143
1.49068
1.40462
1.09844
0.672353
0.216267
-0.174547
-0.289887
-0.224638
-0.203575
-0.176719
-0.14905
-0.155633
-0.181629
-0.197308
-0.202941
-0.193484
-0.214118
-0.244932
-0.221199
-0.207896
-0.229751
-0.241018
-0.236335
-0.210837
-0.229977
-0.244005
-0.227805
-0.206584
-0.205158
-0.21371
-0.222195
-0.205566
-0.208914
-0.222195
-0.235407
-0.218507
-0.186561
-0.179638
-0.20267
-0.195656
-0.163665
-0.166674
-0.164615
-0.157398
-0.145136
-0.127896
-0.155656
-0.138507
-0.116335
-0.119208
-0.132036
-0.0896606
-0.0372398
-0.0298869
-0.0425113
-0.0352489
0.00194573
0.014095
0.00615386
0.00830318
0.0453168
0.0672398
0.024095
0.050905
0.0578281
0.0796154
0.0861991
0.0726697
0.0890951
0.110588
0.0919005
0.0780317
0.0891403
0.0901358
0.0859503
0.0666516
0.0522625
0.0478733
0.0334389
0.00391406
0.00434393
0.0347964
0.0103168
-0.0341176
-0.048552
-0.0330543
-0.0325339
-0.0420136
-0.0513575
-0.0457466
-0.0400679
-0.0494118
-0.0487104
-0.0279638
0.00769231
-0.00171946
-0.0011086
0.0645023
0.13509
0.150679
0.171109
0.231516
0.337059
0.432873
0.524208
0.621018
0.758439
0.856719
0.936131
1.06183
1.22873
1.32631
1.35846
1.3291
1.32283
1.28464
1.18971
1.05928
0.899163
0.729186
0.539321
0.364548
0.244683
0.194796
0.16491
0.12991
0.124932
0.204932
0.309796
0.394728
0.419706
0.289593
0.0745701
-0.105475
-0.190453
-0.210498
-0.225543
-0.270588
-0.310611
-0.315588
-0.305611
-0.355656
-0.380701
-0.365724
-0.365724
-0.395837
-0.41595
-0.410973
-0.410837
-0.42586
-0.455928
-0.445882
-0.445815
-0.470656
-0.485498
-0.49543
-0.475113
-0.464977
-0.494774
-0.49457
-0.494367
-0.494163
-0.518778
-0.523235
-0.517692
-0.487172
-0.496606
-0.500905
-0.475113
-0.464253
-0.458529
-0.442692
-0.41181
-0.396131
-0.400294
-0.389412
-0.358484
-0.322511
-0.301584
-0.305611
-0.284638
-0.238688
-0.21776
-0.191742
-0.160815
-0.139864
-0.113914
-0.108145
-0.0974661
-0.0818326
-0.0662443
-0.0856561
-0.0900453
-0.079638
-0.0643213
-0.0690498
-0.0887783
-0.083552
-0.0732579
-0.068009
-0.102783
-0.102624
-0.0874434
-0.102308
-0.0971493
-0.0719456
-0.0517194
-0.046561
-0.06638
-0.0613348
-0.0366515
-0.0226017
-0.0393891
-0.0519909
-0.0603167
-0.039095
-0.0429185
-0.0505656
-0.0410633
-0.0240271
-0.0444797
-0.0631675
-0.0412896
0.000452444
0.00680992
-0.0120362
-0.00595024
-0.00015837
0.00509048
0.00454748
0.0132353
0.0261312
0.0432805
0.0248642
0.0112217
0.0324887
0.0386425
0.0247058
0.0261312
0.0380996
0.0454072
0.0477602
0.0195249
0.0303846
0.0404299
0.0351131
0.0196833
0.0341403
0.0484841
0.037647
0.0367647
0.0309276
0.0449095
0.0337783
0.0126697
0.0214705
0.0352262
0.0438688
0.0123982
0.0208371
0.0342534
0.0375566
0.0258371
0.00400451
0.00708145
0.0351357
-0.00683257
0.00117648
-0.000882328
0.0169005
0.00954756
-0.00794113
-0.0104072
0.00203624
0.00452492
-0.00803167
-0.0154299
-0.0129185
-0.0253846
-0.0527602
-0.0252489
-0.0177602
-0.0102036
-0.0125792
-0.0249773
-0.0323303
-0.0245701
-0.0317421
-0.0388914
-0.0359276
-0.0179185
-0.0347964
-0.0465837
-0.0583032
-0.0397738
-0.0510181
-0.0721719
-0.04819
-0.034095
-0.0398643
-0.0605882
-0.0611312
-0.0366289
-0.0170588
-0.042466
-0.0478733
-0.0331221
-0.0234162
-0.0487103
-0.0489818
-0.0391855
-0.0195022
-0.0349094
-0.0252941
-0.0107013
0.013982
-0.00126693
0.0134842
0.0732354
0.173032
0.267851
0.427647
0.672444
0.957263
1.21204
1.40176
1.50656
1.38131
1.00109
0.51586
0.0805657
-0.149751
-0.18509
-0.130407
-0.0805882
-0.0457013
-0.0709276
-0.101267
-0.111719
-0.0970814
-0.0973529
-0.112647
-0.122896
-0.118054
-0.118258
-0.128529
-0.138756
-0.123891
-0.12405
-0.139231
-0.129502
-0.114661
-0.114661
-0.129819
-0.129977
-0.135272
-0.13052
-0.120769
-0.140905
-0.141109
-0.136358
-0.136538
-0.146787
-0.146968
-0.137172
-0.117398
-0.137602
-0.132851
-0.103054
-0.0833937
-0.093733
-0.0989819
-0.0842534
-0.0597285
-0.0656787
-0.0771267
-0.084095
-0.062172
-0.0413801
-0.0410181
-0.0176923
0.00493212
-0.00728507
-0.0185294
-0.0380317
-0.0255204
-0.0311086
-0.0204751
-0.0295475
-0.0239593
0.011267
0.0214253
0.0214932
0.0365837
0.0568099
0.041991
0.027104
0.0422624
0.0725113
0.0677601
0.053009
0.0483258
0.0737104
0.0790497
0.049276
0.0295701
0.0298868
0.025181
0.00552031
-0.0141856
-0.00880095
-0.033439
-0.0631675
-0.0828281
-0.077353
-0.0619458
-0.101539
-0.111154
-0.105679
-0.100294
-0.110045
-0.119819
-0.0994118
-0.0889819
-0.0985294
-0.113077
-0.102557
-0.0819684
-0.0763123
-0.105407
-0.104163
-0.0724209
-0.0550227
-0.0716064
-0.0670363
-0.0563349
-0.0397512
-0.0227828
-0.0263802
-0.0116742
0.0207918
0.00119907
-0.0195249
-0.010362
-0.0059503
-0.0214028
-0.0217874
0.00266965
0.0270361
0.00635742
-0.0193439
-0.0100679
-0.010724
-0.0165611
-0.0274209
-0.0282806
-0.0190951
-0.0348869
-0.0455657
-0.0412444
-0.0119005
-0.0323756
-0.0678281
-0.0632579
-0.0535747
-0.0137783
-0.0291177
-0.0444118
-0.0545928
-0.0247059
-0.0247964
-0.0400226
-0.0302715
-0.0304525
-0.0355656
-0.0506561
-0.0456787
-0.0207692
-0.0208371
-0.0207919
-0.0107466
-0.0156787
-0.00565614
0.0294117
0.114502
0.229683
0.374819
0.579842
0.839932
0.935181
1.40538
1.5557
1.50611
1.29152
0.921991
0.482376
0.0527828
-0.221878
-0.281357
-0.215905
-0.160498
-0.114955
-0.0842535
-0.07862
-0.107941
-0.107195
-0.0963801
-0.0956561
-0.119932
-0.124118
-0.118258
-0.112443
-0.141652
-0.140815
-0.124842
-0.118937
-0.133122
-0.147353
-0.131629
-0.105928
-0.130407
-0.14491
-0.124502
-0.11414
-0.123824
-0.133552
-0.138167
-0.117896
-0.12767
-0.132466
-0.10233
-0.0871041
-0.106878
-0.126719
-0.121606
-0.106448
-0.0962896
-0.126086
-0.125814
-0.120498
-0.0952941
-0.110158
-0.0949774
-0.0746606
-0.0443439
-0.039095
-0.0438688
-0.0236651
-0.0233032
-0.0279638
-0.0176697
0.00276019
0.0232127
0.013552
0.0138914
0.0341629
0.054457
0.064819
0.0552263
0.0556561
0.0761539
0.0815385
0.0519231
0.0822399
0.0926697
0.0930996
0.0734163
0.0587104
0.0489819
0.0492761
0.0295928
2.26647e-05
0.0103394
0.00561088
-0.0341402
-0.0589366
-0.0335973
-0.0382805
-0.0530543
-0.0878733
-0.0925565
-0.0572624
-0.0520588
-0.07681
-0.0915837
-0.0863574
-0.0811538
-0.0859728
-0.0856787
-0.080362
-0.0600226
-0.0747059
-0.0694344
-0.0641403
-0.04362
-0.0676924
-0.0663123
-0.0442761
-0.031267
-0.0371041
-0.0175113
-0.00583711
0.0115837
0.0137104
-0.000158429
0.00934386
0.0218778
0.0324886
0.00171944
0.00563344
0.0199095
0.0245022
-0.000769228
0.0140724
0.0190045
0.0238009
-0.00649324
-0.0018326
0.0128959
0.0225792
0.00723979
0.00185519
0.00153846
0.016086
-0.00936654
-0.0247738
-0.025181
-0.0155883
-0.0111538
-0.0267421
-0.00717196
0.00239813
-0.00309959
-0.0236199
-0.0341403
-0.0197511
-0.030362
-0.0459955
-0.0465611
-0.0371267
-0.0176697
-0.0481222
-0.0585746
-0.0241176
-0.00470585
-0.0252715
-0.0407918
-0.0412443
-0.03681
-0.042353
-0.0479638
-0.0335068
-0.0140498
-0.0295475
-0.0499774
-0.0352262
-0.025362
-0.010543
-0.0357919
-0.0411312
-0.0214027
-0.0215611
-0.046629
-0.041629
-0.031629
-0.011629
-0.0315837
-0.0464706
-0.0313348
-0.0111765
-0.0460407
-0.0459276
-0.0357466
-0.0205882
-0.0503394
-0.0601584
-0.0350453
-0.0199095
-0.0299095
-0.0449322
-0.0450227
-0.0401358
-0.035362
-0.0606335
-0.0509276
-0.0313801
-0.0218779
-0.0324208
-0.0280543
-0.0286652
-0.0294796
-0.025362
-0.0211086
-0.0219004
-0.0180317
-0.0247964
-0.0372624
-0.0304977
-0.0345927
-0.0447737
-0.0559728
-0.0479864
-0.0504977
-0.0524887
-0.0741403
-0.0827149
-0.0695248
-0.0700226
-0.0800452
-0.075181
-0.0755882
-0.0659955
-0.0812896
-0.0665611
-0.0618326
-0.072104
-0.0773529
-0.0825565
-0.0526244
-0.0427375
-0.0578959
-0.0730543
-0.0580769
-0.0531448
-0.06819
-0.0683484
-0.0484163
-0.0285068
-0.0435973
-0.0586651
-0.0587104
-0.0437104
-0.0537557
-0.0538462
-0.0539366
-0.0490272
-0.0441403
-0.0592986
-0.039457
-0.0194796
-0.029638
-0.0547285
-0.0548869
-0.0299548
-0.0201358
-0.0105204
-0.0209503
-0.0213575
-0.0168326
-0.027353
-0.0379186
-0.0284163
-0.0141177
-0.0148643
-0.0254751
-0.0260633
-0.0217647
-0.0275566
-0.0334615
-0.039457
-0.0204072
-0.0114705
-0.0276018
-0.0236877
-0.0198642
-0.0310633
-0.0523077
-0.0485746
-0.0147058
0.00404984
-0.0172624
-0.0335972
-0.0349095
-0.0312669
-0.0425565
-0.043914
-0.0352036
-0.0314706
-0.0278054
-0.044095
-0.0403167
-0.0165611
-0.0277828
-0.0540045
-0.0450452
-0.0211086
-0.00717194
-0.0331674
-0.0190045
-0.0247964
-0.0105656
-0.0263348
-0.0320814
-0.0127376
-0.0133937
-0.0191176
-0.0347511
-0.000294082
0.0142534
-0.00619908
0.00330319
0.0127828
0.0174435
0.0320136
0.0815611
0.206086
0.365724
0.540385
0.724955
0.964525
1.19423
1.39394
1.48864
1.37833
1.30803
0.647692
0.232285
-0.0580995
-0.143507
-0.108937
-0.0593665
-0.0448868
-0.0653846
-0.0608371
-0.066199
-0.0866289
-0.0871493
-0.0876244
-0.10819
-0.128665
-0.114095
-0.0994343
-0.124887
-0.140294
-0.130701
-0.101131
-0.116516
-0.141855
-0.137081
-0.127353
-0.122738
-0.148122
-0.143439
-0.133778
-0.11905
-0.144366
-0.154706
-0.145023
-0.135362
-0.160566
-0.145792
-0.14095
-0.116041
-0.141244
-0.136312
-0.101403
-0.0763122
-0.091267
-0.091267
-0.0811991
-0.0611086
-0.056086
-0.041086
-0.0410407
-0.035905
-0.020724
-0.0156109
-0.0105656
0.014457
0.0395023
0.0245475
0.0445928
0.0746606
0.0846833
0.0897511
0.0747738
0.0997059
0.114593
0.0993891
0.0992986
0.109276
0.134163
0.128869
0.113258
0.10233
0.12595
0.128869
0.100747
0.0965837
0.0964027
0.0951584
0.0582126
0.0464932
0.0508597
0.0219004
-0.00506789
-0.0151131
-0.00389142
-0.0226471
-0.0417873
-0.0612444
-0.0606788
-0.0601584
-0.0745928
-0.0989819
-0.0734163
-0.0727828
-0.0822172
-0.111516
-0.105701
-0.0949548
-0.0891177
-0.123348
-0.0976245
-0.0917874
-0.0806788
-0.109005
-0.121584
-0.0882579
-0.084095
-0.113937
-0.112851
-0.0908371
-0.0733484
-0.0664253
-0.0649321
-0.0513348
-0.0395022
-0.0340271
-0.0389819
-0.0338009
-0.0132805
-0.00769228
-0.032285
-0.0368778
-0.0163574
-0.00592756
-0.0205882
-0.00531672
0.00486429
0.00497741
-0.0299321
-0.0198416
-0.0148416
-0.00993212
-0.0201358
-0.0302715
-0.0204072
-0.0256787
-0.0310634
-0.0215385
-0.021991
-0.0224887
-0.0280317
-0.0435973
-0.0342308
-0.0250226
-0.0258597
-0.0367421
-0.0476923
-0.0237557
-0.0496833
-0.0906108
-0.066448
-0.0722624
-0.0580091
-0.0886425
-0.0891855
-0.079638
-0.0900226
-0.105362
-0.100588
-0.0857014
-0.0806335
-0.100588
-0.120452
-0.105158
-0.0846606
-0.0840724
-0.0933937
-0.0976018
-0.0767195
-0.0707014
-0.0745701
-0.0784841
-0.0622172
-0.0509276
-0.0596154
-0.0332805
-0.0219231
-0.0155203
-0.0141855
0.0122851
0.0837331
0.160113
0.251425
0.407806
0.649208
0.885566
1.11681
1.33805
1.49939
1.47563
1.22679
0.832941
0.403914
0.00481904
-0.259276
-0.288484
-0.187738
-0.122014
-0.111335
-0.115747
-0.130181
-0.119683
-0.109299
-0.128846
-0.128394
-0.122896
-0.132466
-0.137149
-0.146765
-0.121244
-0.105837
-0.11543
-0.125023
-0.12457
-0.129163
-0.153823
-0.153371
-0.132986
-0.107692
-0.112375
-0.122059
-0.106719
-0.0813121
-0.10086
-0.125385
-0.114909
-0.104344
-0.0987556
-0.123145
-0.122511
-0.101833
-0.0962443
-0.125747
-0.125181
-0.104502
-0.0888913
-0.0882805
-0.0926922
-0.0720587
-0.0564705
-0.060837
-0.0552262
-0.0195248
-0.00384609
-0.0182353
-0.0126244
0.0179186
0.0485068
0.0491403
0.0347285
0.0502489
0.0658145
0.096267
0.106765
0.107262
0.127783
0.153348
0.153801
0.139344
0.144774
0.150113
0.120498
0.110815
0.12129
0.126674
0.0920588
0.0774661
0.0777149
0.0729638
0.0532806
0.0286199
0.0339819
0.0192308
-0.000678718
-0.0405656
-0.055362
-0.0500679
-0.0497511
-0.0845022
-0.094276
-0.0889593
-0.0686652
-0.103416
-0.12319
-0.102873
-0.0924887
-0.112059
-0.121697
-0.0962896
-0.100837
-0.100362
-0.0996154
-0.0936199
-0.0821041
-0.0798416
-0.091629
-0.0624434
-0.0521267
-0.0607918
-0.0640045
-0.042828
-0.0281448
-0.0109728
-0.0216516
-0.0352941
-0.00624432
-0.023371
-0.0460407
-0.0635973
-0.0502262
-0.0500905
-0.0532126
-0.0546153
-0.044638
-0.0441855
-0.0640498
-0.0790271
-0.0492986
-0.0544118
-0.0795701
-0.089638
-0.0645928
-0.0594796
-0.0593891
-0.0792986
-0.0792308
-0.0742308
-0.0591403
-0.0740272
-0.0838009
-0.068552
-0.0633258
-0.0779864
-0.0926471
-0.0873982
-0.0771719
-0.0918778
-0.101629
-0.101403
-0.0861764
-0.0909728
-0.0957466
-0.0804524
-0.0751131
-0.0898869
-0.0897511
-0.0745022
-0.0591403
-0.0687782
-0.0934389
-0.0930995
-0.0827375
-0.0973303
-0.101833
-0.0963574
-0.0859954
-0.0755655
-0.0901357
-0.0896606
-0.0792533
-0.0639592
-0.0786651
-0.0684389
-0.0680316
-0.0575791
-0.0621719
-0.081742
-0.06638
-0.0609275
-0.0605429
-0.0802715
-0.0649547
-0.0547284
-0.0744569
-0.0843212
-0.0841855
-0.0791402
-0.0541402
-0.0691628
-0.079276
-0.0694343
-0.0696605
-0.0649094
-0.0501809
-0.040475
-0.0408144
-0.061199
-0.0766967
-0.067104
-0.0425338
-0.0579637
-0.0584162
-0.0537104
-0.0340044
-0.0443438
-0.069638
-0.0548642
-0.0300452
-0.0352262
-0.0453393
-0.0254524
-0.015475
0.00454758
-0.0203393
-0.0302262
-2.25753e-05
0.0202037
0.000520438
-0.0042081
0.0559277
0.166154
0.246539
0.406833
0.607149
0.862602
1.10794
1.33835
1.55864
1.59898
1.40423
1.00953
0.609819
0.240181
-0.0545248
-0.179253
-0.109072
-0.0790045
-0.0240045
-0.063914
-0.0638914
-0.058914
-0.0689366
-0.0939592
-0.0989366
-0.0987103
-0.0986198
-0.10862
-0.128665
-0.113439
-0.11328
-0.123258
-0.12819
-0.138122
-0.113032
-0.112986
-0.132918
-0.137738
-0.117579
-0.107511
-0.132534
-0.127557
-0.112489
-0.12233
-0.162149
-0.136968
-0.0967647
-0.106538
-0.131425
-0.136312
-0.111222
-0.0961991
-0.106222
-0.111244
-0.0962669
-0.076267
-0.0662443
-0.0761991
-0.046086
-0.0259729
-0.0108824
-0.000791863
0.0143891
0.0445927
0.034819
0.0349547
0.0450905
0.0603394
0.100566
0.0808145
0.0810181
0.111222
0.106425
0.0967421
0.0770136
0.117172
0.122308
0.107398
0.102421
0.107557
0.12276
0.112919
0.1031
0.11319
0.103348
0.0885973
0.0587557
0.0540045
0.0841629
0.0642534
0.034276
0.0243438
0.0344796
0.0196832
-0.0151584
-0.0249321
-0.014638
-0.019457
-0.049276
-0.0590724
-0.0488009
-0.0534842
-0.0730543
-0.0826471
-0.0971041
-0.0865385
-0.106154
-0.125701
-0.120181
-0.104683
-0.0891856
-0.118552
-0.137443
-0.105815
-0.0933485
-0.130158
-0.110882
-0.0853847
-0.0638462
-0.0813575
-0.0637557
-0.0469684
-0.0369684
-0.0488688
-0.0324887
-0.0174435
0.00210404
0.00685516
0.00660628
0.0166968
0.026742
0.0117872
0.00183252
0.0267873
0.0216515
-0.0235974
-0.0139367
0.00572389
0.0203845
-0.0250227
-0.0254978
-0.00604078
-0.00196841
0.00160626
-0.0208146
-0.0292082
-0.0338688
-0.0548643
-0.0720363
-0.0696381
-0.0566064
-0.0468779
-0.0751584
-0.101425
-0.0911991
-0.085724
-0.105566
-0.110339
-0.0704752
-0.0555883
-0.0607014
-0.0708598
-0.0609729
-0.0509729
-0.0659729
-0.0759955
-0.0759503
-0.0706788
-0.0754074
-0.0900454
-0.0845929
-0.0739594
-0.0782128
-0.097534
-0.0916969
-0.070792
-0.0597739
-0.088801
-0.102896
-0.0917648
-0.0756336
-0.0745023
-0.093258
-0.102149
-0.0810182
-0.0750227
-0.0790046
-0.0679639
-0.0469458
-0.0460182
-0.0751584
-0.0742082
-0.0681223
-0.047172
-0.0563349
-0.0606788
-0.0300906
-0.0495928
-0.049163
-0.0487784
-0.0234616
-0.00828061
-0.0382353
-0.0531448
-0.0380996
-0.033258
-0.0585294
-0.0587783
-0.0441403
-0.0245928
-0.0450679
-0.0656336
-0.071267
-0.0569684
-0.0677603
-0.0986879
-0.0695928
-0.055543
-0.0515385
-0.0675566
-0.0735068
-0.0444118
-0.0404073
-0.0765611
-0.102624
-0.0635068
-0.0494344
-0.0753167
-0.0761538
-0.0667647
-0.0522625
-0.0677375
-0.0681901
-0.0485747
-0.0388462
-0.0390045
-0.0540724
-0.0290045
0.0011991
-0.0186425
-0.0484841
-0.0482805
-0.0429864
-0.0326923
-0.0374208
-0.0172398
0.00278282
0.00287333
-0.00699094
-0.0118099
0.0181674
0.0332579
0.108394
0.213394
0.423529
0.663529
0.943439
1.21828
1.47305
1.58787
1.45765
1.0574
0.62224
0.192059
-0.148213
-0.243484
-0.148733
-0.124027
-0.0542987
-0.0845928
-0.0898643
-0.0550905
-0.0502715
-0.0854299
-0.0906335
-0.0708597
-0.0660181
-0.106267
-0.116606
-0.106946
-0.10724
-0.132534
-0.147828
-0.118168
-0.123416
-0.148665
-0.173914
-0.154163
-0.124457
-0.134819
-0.155226
-0.155543
-0.150724
-0.126018
-0.141425
-0.13181
-0.0970589
-0.0972625
-0.107466
-0.0925793
-0.072715
-0.0779639
-0.118235
-0.09862
-0.0638462
-0.0340046
-0.0342761
-0.0445023
-0.0347286
0.00511308
-6.79344e-05
-0.000294194
0.0195701
0.0193891
0.0141402
0.0238687
0.0385972
0.0432578
0.0629411
0.0526923
0.0476018
0.077466
0.0871945
0.0818326
0.0915385
0.106267
0.110882
0.100566
0.0903167
0.100113
0.0999095
0.104683
0.0945927
0.109457
0.119163
0.0887783
0.0584841
0.0633257
0.0731221
0.0379638
-0.0123077
-0.00757921
-0.0027602
-0.0129186
-0.0531222
-0.0633258
-0.0684842
-0.0786652
-0.103824
-0.0939141
-0.0840046
-0.0841177
-0.119344
-0.129751
-0.100068
-0.0852942
-0.0954525
-0.100498
-0.0905883
-0.0855657
-0.0856109
-0.110679
-0.100701
-0.0652942
-0.0893439
-0.0774435
-0.0594797
-0.0402489
-0.0347286
-0.0481901
-0.0211313
0.0104072
0.010181
-0.00714937
-0.011448
-0.00217199
-0.0031901
-0.0140272
-0.0248417
0.0197737
0.0293212
0.0138009
-0.00658375
-0.00208147
0.0171493
0.00583707
-0.0209955
-0.00352944
0.017647
0.00746605
-0.0239367
-0.0262444
-0.023801
-0.0255883
-0.0705656
-0.0684842
-0.0493665
-0.0394118
-0.0596833
-0.0602263
-0.040905
-0.0466063
-0.0771946
-0.0727602
-0.0581448
-0.0434842
-0.0688235
-0.0840046
-0.0740951
-0.0742082
-0.0692761
-0.0743213
-0.0693213
-0.0395023
-0.0545475
-0.0795702
-0.0595023
-0.0393665
-0.0592534
-0.0740724
-0.0687105
-0.0333032
-0.0378734
-0.0574208
-0.0571041
-0.03681
-0.0313802
-0.0409277
-0.0455204
-0.0448869
-0.0592535
-0.0687105
-0.0580996
-0.0425114
-0.0419005
-0.056267
-0.0606562
-0.0450679
-0.0445249
-0.0491177
-0.0638236
-0.0635068
-0.0632127
-0.0479412
-0.0477376
-0.0526245
-0.0326697
-0.047896
-0.0633032
-0.0737331
-0.0393666
-0.0252715
-0.0612218
-0.0672851
-0.0383032
-0.0294797
-0.040724
-0.0520362
-0.033371
-0.0197964
-0.0410633
-0.0673077
-0.0434615
0.000384644
-0.0107692
-0.0367873
-0.0326471
-0.0384842
-0.0292986
-0.0650453
-0.0556561
-0.0210634
-0.0164932
-0.0369909
-0.0523529
-0.0528281
-0.0480996
-0.0483258
-0.0585294
-0.0286425
-0.0287783
-0.0438914
-0.0539593
-0.0239592
-0.018914
-0.0438687
-0.073914
-0.018914
0.00108603
-0.023914
-0.0386877
-0.0284841
-0.0233936
0.00656115
0.0315385
0.146629
0.281697
0.441765
0.686787
0.976742
1.25679
1.45688
1.48692
1.30195
0.932014
0.471878
-0.00332575
-0.213484
-0.143597
-0.0537556
-0.0338914
-0.0490497
-0.0742307
-0.0744796
-0.0897737
-0.115045
-0.105294
-0.10552
-0.125792
-0.131041
-0.126335
-0.111516
-0.126629
-0.126742
-0.136833
-0.106923
-0.0970588
-0.112149
-0.117217
-0.122285
-0.122398
-0.137443
-0.142308
-0.127217
-0.0971946
-0.0971719
-0.117104
-0.107036
-0.0920136
-0.121991
-0.132036
-0.117195
-0.102376
-0.087466
-0.0975565
-0.0926923
-0.0728506
-0.0629864
-0.0631448
-0.043371
-0.00852938
-0.0137556
-0.00407238
-0.00943437
0.020362
0.050181
0.0549774
0.0648416
0.109683
0.124412
0.133665
0.142511
0.155747
0.183122
0.159502
0.149774
0.148801
0.151946
0.139683
0.128167
0.098371
0.100475
0.0795475
0.0452941
0.0366289
0.0375792
0.0181222
0.00346151
-0.00647061
-0.0111991
-0.0359729
-0.0807467
-0.100385
-0.0748643
-0.0693666
-0.0689367
-0.103575
-0.0982127
-0.0877602
-0.107398
-0.121923
-0.106493
-0.0910408
-0.110588
-0.140091
-0.144593
-0.114095
-0.123733
-0.133213
-0.142602
-0.146968
-0.131358
-0.120837
-0.110385
-0.109751
-0.113959
-0.117715
-0.14095
-0.108507
-0.0648869
-0.0849774
-0.113937
-0.091991
-0.0698416
-0.0684841
-0.0589819
-0.0366515
-0.0264931
-0.0273076
-0.0378959
-0.0430995
-0.0181221
-0.0183257
-0.0338235
-0.019457
-0.0101583
-0.0010407
-0.0320362
-0.0381221
-0.0342308
-0.0253394
-0.0465158
-0.0676018
-0.0637783
-0.0398416
-0.0559955
-0.0721267
-0.0631674
-0.0492986
-0.070362
-0.0764932
-0.087466
-0.0934163
-0.0893213
-0.0951131
-0.0956335
-0.0859955
-0.0813801
-0.0816969
-0.0868778
-0.0720136
-0.0621946
-0.067353
-0.077353
-0.0621267
-0.0519684
-0.0618778
-0.0717195
-0.0515611
-0.0364027
-0.0561312
-0.055724
-0.0353394
-0.0247737
-0.0442082
-0.0486199
-0.0479638
-0.0421946
-0.0514027
-0.0404525
0.0555882
0.181674
0.332783
0.488869
0.705068
0.981222
1.26744
1.45364
1.53477
1.39088
1.02706
0.588122
0.129208
-0.21491
-0.299186
-0.223462
-0.157805
-0.107195
-0.0516063
-0.0860407
-0.110588
-0.100272
-0.0950452
-0.124955
-0.139774
-0.139638
-0.124389
-0.119253
-0.139095
-0.128914
-0.123824
-0.113688
-0.13362
-0.14362
-0.12362
-0.11862
-0.14371
-0.14371
-0.123824
-0.123914
-0.15405
-0.164321
-0.134502
-0.114502
-0.12448
-0.134502
-0.119593
-0.0996154
-0.0897737
-0.104819
-0.0996832
-0.0696154
-0.0697058
-0.0847511
-0.0947511
-0.0547511
-0.0345927
-0.0293665
-0.0241855
-0.00393663
0.00138013
-0.0184163
0.00687785
0.0470136
0.0771494
0.077353
0.0924887
0.127692
0.147896
0.1331
0.128145
0.1481
0.142783
0.147081
0.120837
0.129095
0.151425
0.137557
0.137353
0.110973
0.11362
0.071448
0.0453846
0.0262443
0.0141403
-0.0161086
-0.0505204
-0.0647964
-0.0695249
-0.0843439
-0.124208
-0.124005
-0.113643
-0.133235
-0.167941
-0.162602
-0.142081
-0.136538
-0.126086
-0.125656
-0.13009
-0.124593
-0.124072
-0.153484
-0.157896
-0.132353
-0.116787
-0.13629
-0.130792
-0.120181
-0.124457
-0.123394
-0.116833
-0.0946153
-0.0866289
-0.0926923
-0.107557
-0.0911312
-0.0588235
-0.0512669
-0.0644118
-0.0591855
-0.055905
-0.029638
-0.03
-0.0407918
-0.0261991
-0.0363348
-0.0464932
-0.0514027
-0.0314027
-0.0265837
-0.0518325
-0.042104
-0.0375339
-0.0229864
-0.0485746
-0.0591629
-0.0598416
-0.0555656
-0.0562896
-0.0821493
-0.0530316
-0.0239819
-0.0449774
-0.0759955
-0.0619909
-0.0531221
-0.0393438
-0.0555429
-0.0568099
-0.03319
-0.0395701
-0.0708597
-0.0669683
-0.0580317
-0.0490045
-0.0699774
-0.065905
-0.0616742
-0.0622851
-0.0728054
-0.0732127
-0.0684842
-0.0637104
-0.0689366
-0.099095
-0.0941629
-0.0740498
-0.0888688
-0.113688
-0.0934389
-0.08819
-0.0528506
-0.0673755
-0.0667647
-0.0410633
-0.0452036
-0.0743665
-0.0785068
-0.0376244
-0.00667422
0.0342987
0.100158
0.226109
0.361923
0.552647
0.803439
1.10903
1.38464
1.57995
1.53523
1.28029
0.850136
0.40457
-0.0115385
-0.198167
-0.220226
-0.117692
-0.100633
-0.0990498
-0.102986
-0.132421
-0.152421
-0.143054
-0.144163
-0.180271
-0.201222
-0.197104
-0.177828
-0.198235
-0.208167
-0.217919
-0.216335
-0.209208
-0.221561
-0.233416
-0.219864
-0.216154
-0.252398
-0.268529
-0.249751
-0.236244
-0.23319
-0.250407
-0.24733
-0.238416
-0.238575
-0.248122
-0.222262
-0.211131
-0.215023
-0.223801
-0.237534
-0.220973
-0.209344
-0.217692
-0.21095
-0.154095
-0.152195
-0.165339
-0.148394
-0.121244
-0.10914
-0.102014
-0.11
-0.0779186
-0.0607919
-0.0336425
-0.0415385
-0.0293439
0.0079864
0.0252036
0.0225792
0.0251357
0.0526697
0.0550905
0.0624434
0.084819
0.102353
0.119819
0.117217
0.109683
0.122285
0.104728
0.0871041
0.059457
0.0769457
0.0894344
0.066923
0.0193212
0.00665154
0.0140271
-0.0136652
-0.0365159
-0.0443439
-0.0171041
-0.0152263
-0.0485521
-0.0569457
-0.0354751
-0.0441403
-0.0629186
-0.0568326
-0.0456335
-0.0445928
-0.0637783
-0.0829412
-0.0422172
-0.0266064
-0.0461991
-0.0656788
-0.0500679
-0.0292082
-0.0430996
-0.036448
-0.00418554
0.00889136
0.0480995
0.0535972
0.105317
0.132964
0.150407
0.186652
0.265995
0.378348
0.463846
0.523484
0.598009
0.698009
0.788122
0.863213
0.973258
1.10833
1.22837
1.29837
1.30328
1.28808
1.27787
1.25267
1.18253
1.07235
1.03717
0.741878
0.591561
0.471244
0.385928
0.310543
0.255113
0.249728
0.234366
0.248937
0.308484
0.413054
0.492828
0.432534
0.237081
0.0116515
-0.113665
-0.178914
-0.239231
-0.254548
-0.279842
-0.290091
-0.330498
-0.345837
-0.361109
-0.36638
-0.401629
-0.421719
-0.416787
-0.416833
-0.456742
-0.471561
-0.466358
-0.436086
-0.435837
-0.470475
-0.485136
-0.47457
-0.489005
-0.518439
-0.517715
-0.521878
-0.531018
-0.545249
-0.549457
-0.518756
-0.512896
-0.531923
-0.530973
-0.514932
-0.503824
-0.537828
-0.531833
-0.51086
-0.494864
-0.514005
-0.53319
-0.527376
-0.501629
-0.486086
-0.505701
-0.490204
-0.449842
-0.449525
-0.469299
-0.419027
-0.368824
-0.333733
-0.318688
-0.313507
-0.268462
-0.233416
-0.223371
-0.203348
-0.153371
-0.133439
-0.113597
-0.118643
-0.0786199
-0.0636199
-0.0536652
-0.0687556
-0.0588009
-0.0538235
-0.0538235
-0.0438235
-0.0438462
-0.0235747
-0.0182579
-0.0278054
-0.0272624
-0.0168778
-0.026448
-0.0309728
-0.0354977
-0.0302715
-0.0254977
-0.0263348
-0.0328507
-0.0250452
-0.0177602
-0.0505883
-0.0626471
-0.0380317
-0.0113801
-0.0129638
-0.0229865
-0.00687787
0.00959274
0.0104072
0.0103619
0.0350452
0.0485067
0.0613574
0.0536877
0.0605882
0.0871945
0.0836651
0.0450678
0.0464026
0.0728506
0.0845474
0.0466515
0.0490723
0.0912668
0.0976017
0.0728958
0.0475339
0.0869909
0.0962669
0.0853845
0.0643891
0.0832805
0.0821266
0.0759728
0.0646379
0.0631673
0.0816289
0.0750678
0.0535067
0.036923
0.0401356
0.0432804
0.0314706
0.0247285
0.0280316
0.0462217
0.0192761
0.00728512
0.0152037
0.013077
0.000882387
-0.0114253
0.00622174
0.0238688
0.0414254
0.0089367
0.00144801
0.0188914
0.0113575
-0.0112669
0.00106335
0.0082579
-0.00954753
-0.0374208
-0.0402941
-0.0182354
-0.0112444
-0.0242987
-0.0323982
-0.0154299
-0.0385068
-0.0415385
-0.0594797
-0.0524435
-0.0404978
-0.0283485
-0.0410182
-0.0434842
-0.0558598
-0.0382353
-0.0604525
-0.0574661
-0.0442534
-0.0358598
-0.0472399
-0.0484842
-0.0345249
-0.0354978
-0.0513122
-0.0620136
-0.0375113
-0.0279186
-0.0483485
-0.0488236
-0.0191177
-0.0042308
-0.0344571
-0.0446381
-0.029819
-0.0299322
0.0149547
0.0347511
0.0995022
0.209276
0.349027
0.508688
0.718394
0.968213
1.20796
1.39774
1.53262
1.49733
1.24701
0.866742
0.481606
0.121403
-0.138869
-0.24414
-0.169434
-0.0897511
-0.065
-0.090181
-0.105407
-0.11052
-0.100588
-0.110633
-0.135679
-0.125747
-0.125928
-0.136109
-0.131267
-0.11638
-0.106516
-0.116629
-0.121629
-0.116765
-0.0969457
-0.122149
-0.142217
-0.122285
-0.122421
-0.107557
-0.137624
-0.152715
-0.12776
-0.102783
-0.122941
-0.138054
-0.13319
-0.128326
-0.123529
-0.123733
-0.128937
-0.114118
-0.124321
-0.134548
-0.119615
-0.0997738
-0.095
-0.115226
-0.100498
-0.0808145
-0.081086
-0.096267
-0.0813575
-0.041448
-0.0368778
-0.0427602
-0.0491629
-0.0162217
0.000610873
-0.00886874
-0.00979635
0.0179412
0.0252263
0.0131901
0.00287335
0.0146833
0.0485294
0.0488914
0.0397512
0.0452263
0.0654525
0.0704752
0.0704525
0.0754525
0.0855657
0.0756788
0.070905
0.0760634
0.0863801
0.0766743
0.0371041
0.0175113
0.0179638
0.00837104
-0.0162444
-0.0358371
-0.030362
-0.0398643
-0.074457
-0.108937
-0.0933711
-0.0778055
-0.117262
-0.146674
-0.121018
-0.11043
-0.104796
-0.12914
-0.128507
-0.0976471
-0.0966516
-0.105453
-0.103756
-0.0764027
-0.0783258
-0.0993439
-0.0843891
-0.0733258
-0.0813801
-0.0639139
-0.0617646
-0.0407013
-0.0412895
-0.0288008
-0.0280542
-0.0185067
-0.00438906
-0.00509043
-0.0255882
-0.0209275
-0.00126688
-0.0166289
-0.0371266
-0.0376922
-0.0132804
-0.0139592
-0.0296606
-0.0304072
-0.0110633
-0.0116742
-0.0473529
-0.0530542
-0.0386878
-0.00427596
-0.0198868
-0.0404525
-0.0311086
-0.0217421
-0.0172851
-0.0378507
-0.0331674
-0.0285068
-0.043914
-0.059276
-0.0295475
-0.0197059
-0.0198417
-0.0399548
-0.0400227
-0.0350453
-0.03
-0.0450227
-0.045
-0.035
-0.0499548
-0.0549096
-0.0497286
-0.0394571
-0.0291177
-0.0288236
-0.0484616
-0.048077
-0.0477602
-0.0274209
0.018009
0.113461
0.249004
0.389525
0.615045
0.920724
1.25145
1.53217
1.60792
1.45869
1.10452
0.645407
0.186267
-0.15276
-0.241765
-0.175769
-0.119819
-0.0888914
-0.0678959
-0.0568552
-0.0658371
-0.074819
-0.098733
-0.0925339
-0.106357
-0.120204
-0.144005
-0.122851
-0.121878
-0.121018
-0.115181
-0.104321
-0.118575
-0.137851
-0.127195
-0.126606
-0.126199
-0.14586
-0.14052
-0.120226
-0.120045
-0.134796
-0.15457
-0.144299
-0.13905
-0.143914
-0.153733
-0.133552
-0.133303
-0.138054
-0.137692
-0.127353
-0.0920361
-0.096742
-0.101561
-0.0814479
-0.0462216
-0.0560859
-0.0710406
-0.0310407
-0.00595015
-0.000814393
-0.010656
0.0245476
0.0596381
0.0494345
0.023801
0.0126697
0.0357693
0.0577603
0.0484616
0.0379186
0.046267
0.048982
0.011991
0.00149329
0.028077
0.0415612
0.0167648
0.00276025
0.013801
0.0245023
0.0199322
-0.00468318
-0.00427595
0.00128968
-0.0381447
-0.0626243
-0.062104
-0.046561
-0.0410406
-0.0854524
-0.104819
-0.104095
-0.108416
-0.112783
-0.12724
-0.116674
-0.111086
-0.11552
-0.134977
-0.119457
-0.128846
-0.143213
-0.17767
-0.152036
-0.14629
-0.150656
-0.150181
-0.139751
-0.11914
-0.118303
-0.142149
-0.140452
-0.103009
-0.114525
-0.124796
-0.113642
-0.0762216
-0.0584388
-0.0714479
-0.0811764
-0.0579863
-0.0468099
-0.0522397
-0.0632126
-0.0489366
-0.0244117
-0.0348416
-0.0453167
-0.0357918
-0.0262895
-0.0519004
-0.0827601
-0.0736425
-0.05957
-0.0805882
-0.111787
-0.0929411
-0.0691402
-0.0752714
-0.106403
-0.102579
-0.093733
-0.0899095
-0.111086
-0.107262
-0.078371
-0.0644117
-0.0953619
-0.101222
-0.0919909
-0.0777375
-0.0834842
-0.104208
-0.0797738
-0.0602941
-0.060905
-0.0864932
-0.086991
-0.0874209
-0.0878507
-0.108303
-0.0935747
-0.0639367
-0.064276
-0.0795702
-0.064819
-0.030181
-0.0257466
-0.0362896
-0.0469231
-0.0426924
-0.038801
-0.0153394
0.0278506
0.125656
0.252896
0.404457
0.62552
0.906063
1.20093
1.44014
1.55898
1.48783
1.17176
0.705814
0.245158
-0.145362
-0.309729
-0.288258
-0.231018
-0.192964
-0.174231
-0.170249
-0.201267
-0.22224
-0.208303
-0.204683
-0.226787
-0.239389
-0.226493
-0.22767
-0.24767
-0.257036
-0.246154
-0.220113
-0.21905
-0.237851
-0.231471
-0.214864
-0.223235
-0.246516
-0.244864
-0.213077
-0.221335
-0.244502
-0.23767
-0.200747
-0.188778
-0.20681
-0.209796
-0.182738
-0.165724
-0.188733
-0.191652
-0.15957
-0.142511
-0.14043
-0.143235
-0.116041
-0.0888688
-0.08681
-0.0997059
-0.0826245
-0.0504978
-0.0384616
-0.036448
-0.0143439
0.0177602
0.0298416
0.02681
0.0436878
0.075543
0.0872398
0.0838009
0.0902941
0.106652
0.11776
0.128756
0.114638
0.120407
0.141018
0.121516
0.1069
0.11724
0.117489
0.10276
0.0679638
0.0531674
0.053258
0.0333484
0.0133937
-0.00649318
-0.0013348
-0.0312217
-0.0460633
-0.0358597
-0.0205429
-0.0402714
-0.0600679
-0.0599321
-0.044819
-0.0497059
-0.034638
-0.0444344
-0.0341855
-0.0088461
0.00651588
0.0369005
0.0723304
0.117738
0.153077
0.218348
0.348643
0.444072
0.519661
0.620634
0.762149
0.899502
1.04287
1.1924
1.33824
1.44025
1.45787
1.41518
1.39095
1.35968
1.34645
1.06649
0.865724
0.705113
0.534842
0.379706
0.299593
0.299502
0.294299
0.274005
0.318733
0.478529
0.603303
0.498077
0.247941
-0.0322398
-0.172511
-0.232805
-0.2731
-0.293394
-0.313529
-0.348778
-0.404095
-0.429344
-0.434525
-0.429774
-0.47509
-0.500339
-0.495566
-0.490814
-0.516063
-0.526267
-0.516403
-0.506561
-0.516697
-0.531833
-0.5269
-0.511991
-0.527036
-0.537014
-0.536946
-0.531833
-0.521742
-0.536538
-0.52629
-0.51595
-0.500656
-0.515453
-0.505158
-0.484729
-0.479253
-0.488665
-0.493054
-0.45733
-0.426629
-0.445905
-0.440091
-0.399253
-0.368303
-0.357308
-0.331403
-0.285475
-0.234434
-0.213326
-0.207262
-0.176199
-0.140136
-0.124118
-0.1231
-0.122104
-0.076086
-0.0602036
-0.0644344
-0.0687104
-0.0480769
-0.0475113
-0.0620136
-0.0714706
-0.0560181
-0.0456787
-0.0702941
-0.0849095
-0.0696833
-0.0545022
-0.0493212
-0.0691403
-0.0439819
-0.0436425
-0.0533258
-0.0880543
-0.0777375
-0.0473303
-0.0517194
-0.0560633
-0.0502488
-0.0292307
-0.0279185
-0.0310407
-0.0187103
-0.000950128
0.0122399
-0.0139365
-0.00961527
0.025362
0.0411087
0.0324435
0.0290951
0.040905
0.0775114
0.073982
0.0602037
0.0614029
0.0864481
0.0806789
0.0690725
0.0816291
0.0985748
0.100136
0.0965838
0.0979413
0.109276
0.100905
0.0882807
0.0810635
0.0783259
0.0895929
0.089525
0.0837331
0.092715
0.116561
0.0802942
0.0838463
0.102195
0.100385
0.0733258
0.0608598
0.0728734
0.0840046
0.0640272
0.0378734
0.0363801
0.0526471
0.0379412
0.0134163
-0.00463796
0.0143666
0.0102942
-0.012104
-0.0288461
-0.0158145
-0.0131448
-0.025543
-0.0278054
-0.03
-0.0171267
-0.0392308
-0.0462896
-0.0132806
-0.00522628
-0.0270815
-0.0388914
-0.0456335
-0.0223303
-0.0389819
-0.0405656
-0.0319909
-0.0234842
-0.0199095
-0.0511991
-0.0574208
-0.0235521
-0.0195023
-0.0353394
-0.0660408
-0.0515837
-0.0320362
-0.0524435
-0.0577828
-0.0480317
-0.0432353
-0.0634615
-0.0686199
-0.0587331
-0.0487783
-0.0487783
-0.0538236
-0.0588914
-0.0639819
-0.0741855
-0.0644118
-0.0646154
-0.0498643
-0.0352037
-0.045543
-0.0458824
-0.0312218
-0.0316517
-0.0570363
-0.0624888
-0.0429639
-0.0285974
-0.0342761
-0.049887
-0.0255883
-0.0163349
-0.0271494
-0.0279866
-0.0238915
-0.0297965
-0.0507241
-0.0467195
-0.0477377
-0.023801
-0.029887
-0.0558825
-0.0468779
-0.0228055
-0.0487557
-0.054706
-0.0555205
-0.036267
-0.0470137
-0.072715
-0.0933032
-0.0687784
-0.0542082
-0.0745476
-0.0698417
-0.045068
-0.0301584
-0.0452263
-0.0653394
-0.0704299
-0.0354525
-0.0254525
-0.055543
-0.040543
-0.0204977
-0.0304072
-0.0404525
-0.0354299
-0.0154525
-0.00542991
-0.0254752
0.00447957
0.0893891
0.209276
0.359118
0.579004
0.843846
0.92362
1.39342
1.59821
1.56803
1.25283
0.787647
0.347376
-0.0178281
-0.147987
-0.113235
-0.0435295
-0.0288689
-0.0541404
-0.059344
-0.0896834
-0.0850001
-0.085249
-0.0854526
-0.110566
-0.120701
-0.110837
-0.120928
-0.141063
-0.156177
-0.136358
-0.141425
-0.146403
-0.156448
-0.146448
-0.131448
-0.141539
-0.156584
-0.136584
-0.116561
-0.131697
-0.146833
-0.126833
-0.106787
-0.11181
-0.121878
-0.116991
-0.0871494
-0.0822625
-0.102398
-0.117511
-0.087534
-0.0825114
-0.0924887
-0.0776019
-0.057715
-0.0527376
-0.0677828
-0.062896
-0.0478281
-0.0326923
-0.0275566
-0.0274435
-0.0123077
0.00276016
-0.0022172
-0.00219457
0.0178054
0.0328959
0.0479638
0.0530769
0.0731674
0.0983937
0.113665
0.108891
0.124005
0.15414
0.169299
0.14948
0.154661
0.164842
0.175
0.145113
0.140272
0.145407
0.145611
0.120724
0.10086
0.0859729
0.0811087
0.0461765
0.0212896
0.011448
0.0165612
0.00169688
-0.0331673
-0.0380316
-0.0178054
-0.032647
-0.0625791
-0.0773529
-0.0620135
-0.0718099
-0.0815836
-0.0962895
-0.056018
-0.0458144
-0.070656
-0.0755655
-0.0403845
-0.0402488
-0.0550225
-0.0595474
-0.0335067
-0.0267194
-0.0288008
-0.0298642
-0.0255882
0.00588244
0.00332588
0.000520438
-0.00875559
0.039887
0.0264707
-0.00404972
-0.000746548
0.0220815
0.0342082
0.00500005
-0.0155882
0.00760186
0.00997746
-0.0324207
-0.0531447
-0.041561
-0.028009
-0.0479637
-0.0673981
-0.0623302
-0.0427375
-0.0432805
-0.0686877
-0.0790497
-0.0543212
-0.0595701
-0.0897963
-0.0750225
-0.0501809
-0.0553393
-0.0753393
-0.0702714
-0.0552262
-0.0652714
-0.0952714
-0.0852488
-0.0651583
-0.0500451
-0.0599547
-0.0748189
-0.05957
-0.0543212
-0.0741628
-0.0889818
-0.093733
-0.0685294
-0.0782805
-0.0880316
-0.0827375
-0.052466
-0.0772398
-0.101968
-0.101652
-0.0813122
-0.0860859
-0.0958144
-0.0904977
-0.0701583
-0.0499547
-0.0747737
-0.0846153
-0.0693665
-0.054095
-0.0938687
-0.103642
-0.0883483
-0.0680542
-0.0927601
-0.0924208
-0.0970361
-0.071742
-0.0764479
-0.096199
-0.0758823
-0.0606561
-0.0804524
-0.100249
-0.0800226
-0.0648868
-0.0697964
-0.0998868
-0.104977
-0.0901583
-0.0854298
-0.0957239
-0.0960859
-0.0714706
-0.0569457
-0.0923982
-0.0977828
-0.0830995
-0.0834615
-0.0988687
-0.0992986
-0.0896606
-0.0849095
-0.0902262
-0.0854299
-0.0706108
-0.0358597
-0.0461312
-0.0562217
-0.0462443
-0.0162443
-0.0212444
-0.0361765
-0.066086
-0.0259955
-0.020905
-0.0358145
-0.0456561
-0.0205204
-0.0103394
-0.0153168
-0.000203654
0.0998868
0.229909
0.369955
0.595023
0.905158
1.18525
1.45027
1.60027
1.55532
1.18523
0.675068
0.214864
-0.125317
-0.230475
-0.130747
-0.0461086
-0.0314253
-0.0416742
-0.0569457
-0.0822625
-0.0975114
-0.0926923
-0.0778507
-0.103032
-0.11819
-0.133213
-0.128235
-0.138326
-0.133462
-0.123552
-0.108756
-0.128982
-0.144163
-0.134276
-0.114344
-0.13448
-0.154548
-0.149615
-0.124751
-0.13491
-0.135158
-0.130407
-0.110634
-0.115882
-0.126222
-0.111493
-0.106855
-0.102217
-0.102647
-0.0781223
-0.0735522
-0.0688237
-0.0791856
-0.0495476
-0.0246834
-0.00486439
-0.0101585
-0.01043
0.0193438
0.0440044
0.0437103
0.0383709
0.0530768
0.0727148
0.0773754
0.0769682
0.0815836
0.101244
0.095837
0.085475
0.0852035
0.0898641
0.0845022
0.0791401
0.0687329
0.0933709
0.0879637
0.0724207
0.066742
0.0612216
0.0807465
0.0701809
0.0546832
0.0442533
0.048733
0.0181222
-0.00244346
-0.00798643
0.0114932
-0.0140724
-0.0496833
-0.0503167
-0.0358371
-0.0314253
-0.0421041
-0.0428959
-0.0490497
-0.0657013
-0.0880995
-0.096561
-0.0912217
-0.0970135
-0.109118
-0.121968
-0.12957
-0.126109
-0.135973
-0.158959
-0.139909
-0.114185
-0.122964
-0.136946
-0.13552
-0.113688
-0.110905
-0.121765
-0.116244
-0.0745022
-0.0670136
-0.0646607
-0.0590951
-0.030724
-0.0194344
-0.0447964
-0.0407013
-0.0160633
-0.0059502
-0.0207918
-0.0407466
-0.0407466
-0.0307013
-0.0507692
-0.0858823
-0.066018
-0.0461764
-0.0813121
-0.101606
-0.0819004
-0.0572624
-0.0776244
-0.0830768
-0.0684615
-0.058914
-0.0593891
-0.0798415
-0.0803166
-0.080837
-0.0763573
-0.0818777
-0.0923981
-0.0778506
-0.0533257
-0.068846
-0.0742759
-0.049751
-0.0353166
-0.0408596
-0.0664705
-0.0521718
-0.0228731
-0.038484
-0.084208
-0.0599546
-0.0407917
-0.0715158
-0.0873529
-0.0731221
-0.0639366
-0.0597058
-0.0754977
-0.0963574
-0.0721493
-0.0628507
-0.073552
-0.0793213
-0.07
-0.0505882
-0.0661764
-0.0717873
-0.0624208
-0.0679864
-0.0735068
-0.089095
-0.0696832
-0.0450226
-0.0603846
-0.0807013
-0.0560633
-0.0113122
-0.0414931
-0.0617194
-0.0417873
-0.0318099
-0.0318099
-0.0467646
-0.0316968
-0.026742
-0.0318325
-0.0519456
-0.0420361
-0.0221492
-0.0123528
-0.0426243
-0.0228958
0.0119006
0.0717874
0.141652
0.241358
0.415996
0.680385
0.939525
1.17353
1.43244
1.63618
1.58439
1.3321
0.949412
0.556358
0.11267
-0.266493
-0.365928
-0.225814
-0.191425
-0.147738
-0.139344
-0.135973
-0.167443
-0.178891
-0.200181
-0.221018
-0.201176
-0.230611
-0.23414
-0.211719
-0.198643
-0.220068
-0.241176
-0.237195
-0.222986
-0.228801
-0.264887
-0.256425
-0.243507
-0.225611
-0.246855
-0.267036
-0.246674
-0.241109
-0.235452
-0.229615
-0.198643
-0.197557
-0.201357
-0.210068
-0.20362
-0.177149
-0.185656
-0.204208
-0.19767
-0.171018
-0.194366
-0.18776
-0.171086
-0.169344
-0.162647
-0.150792
-0.138869
-0.11681
-0.0897964
-0.0877375
-0.0805203
-0.0482353
-0.0359728
-0.0236651
-0.0163348
0.0359729
0.0433484
0.0506788
0.0429864
0.0804299
0.122851
0.110091
0.0873982
0.104796
0.142195
0.129502
0.111697
0.118959
0.146244
0.148462
0.125611
0.11767
0.139706
0.136674
0.078552
0.0753394
0.0920136
0.0985521
0.0600453
0.0415837
0.0479412
0.0341629
0.0152489
-0.00389139
-0.0231221
-0.022466
-0.0267647
-0.0362217
-0.0357918
-0.0204298
-0.0400452
-0.0546154
-0.0391855
-0.0238688
-0.0335521
-0.0631448
-0.0574661
-0.0264253
-0.0248643
0.0124434
0.0658597
0.110475
0.136222
0.178077
0.295815
0.413348
0.519796
0.599548
0.722489
0.848416
0.932715
1.02154
1.16591
1.32041
1.40527
1.4102
1.36011
1.35484
1.35466
1.25446
1.09907
0.938756
0.763326
0.562873
0.392466
0.287104
0.241719
0.231267
0.16586
0.150475
0.210249
0.319977
0.419547
0.389072
0.218778
0.00350675
-0.151878
-0.217217
-0.217466
-0.232647
-0.282851
-0.312941
-0.323077
-0.3331
-0.3681
-0.393258
-0.398326
-0.388348
-0.403416
-0.433575
-0.443688
-0.418892
-0.408914
-0.438982
-0.43414
-0.444208
-0.444163
-0.479186
-0.494186
-0.489072
-0.493869
-0.523688
-0.563439
-0.548122
-0.53267
-0.557353
-0.586833
-0.561267
-0.545407
-0.569661
-0.578846
-0.557851
-0.546787
-0.555792
-0.564774
-0.548597
-0.512443
-0.506448
-0.525543
-0.514548
-0.488507
-0.472534
-0.471674
-0.470747
-0.429864
-0.384118
-0.373394
-0.36267
-0.326833
-0.291086
-0.28043
-0.269932
-0.21948
-0.159005
-0.138733
-0.128552
-0.123439
-0.0832806
-0.0631675
-0.0680544
-0.0629638
-0.052896
-0.0428733
-0.0478507
-0.0278055
-0.0126923
-0.0126471
-0.0226471
-0.0375792
-0.0274435
-0.00705887
-0.0115385
-0.0259277
-0.010181
0.000746563
-0.00280547
-0.0108145
-0.0133937
-0.000610888
0.00769228
-0.00346163
0.0107918
0.0405429
0.0558597
0.031742
0.038009
0.059389
0.0805202
0.0616063
0.057647
0.0883031
0.10328
0.107466
0.115747
0.133235
0.140068
0.126267
0.122195
0.118077
0.12871
0.0892986
0.0650905
0.11138
0.138213
0.119977
0.0959275
0.100882
0.110113
0.0940497
0.0828506
0.091561
0.0951131
0.103575
0.0719683
0.0552941
0.0935746
0.0968099
0.0749546
0.0630315
0.0860858
0.0990496
0.0918551
0.0546605
0.077466
0.0949999
0.0770814
0.0584615
0.0796153
0.0889818
0.0819457
0.05362
0.0541176
0.0588462
0.0438009
0.0152941
0.0439819
0.0448416
0.0373529
-0.024457
-0.0115385
0.00588237
0.00309956
-0.0296154
-0.0421946
-0.0347059
-0.0371945
-0.0495927
-0.0368778
-0.0141176
-0.0113348
-0.0234615
-0.0354977
-0.0224887
-0.0194118
-0.0163348
-0.0481674
-0.049819
-0.0363122
-0.0577601
-0.0791628
-0.080475
-0.0416741
-0.0477601
-0.0736424
-0.0492759
-0.0497737
-0.0352262
-0.0507239
-0.0511538
-0.05138
-0.0315384
-0.0467647
-0.0520135
-0.0371945
-0.0273529
-0.0524886
-0.0676696
-0.0528959
-0.0380995
-0.0533936
-0.0737783
-0.054095
-0.0343665
-0.044819
-0.0503168
-0.0557466
-0.0661313
-0.0616742
-0.0674209
-0.0631901
-0.0589593
-0.064819
-0.0857466
-0.0666969
-0.0376018
-0.0386426
-0.0597738
-0.0559276
-0.051991
-0.0431448
-0.0594118
-0.0656335
-0.0517647
-0.0278733
-0.0540272
-0.0800453
-0.0460407
-0.031991
-0.0329638
-0.0440724
-0.0501357
-0.0362444
-0.0373303
-0.0581448
-0.0738914
-0.0645702
-0.0602715
-0.0559729
-0.0565611
-0.0271267
-0.0226697
-0.0381448
-0.0486425
-0.0440724
-0.0395702
-0.0651131
-0.0805656
-0.0659955
-0.0413575
-0.0517873
-0.0621493
-0.0374208
-0.0127149
-0.00312217
0.0264706
0.131199
0.275882
0.325498
0.685136
0.979819
1.26957
1.52439
1.66414
1.5738
1.24848
0.778122
0.272919
-0.122376
-0.247647
-0.173145
-0.0885973
-0.054095
-0.049638
-0.070181
-0.0957919
-0.111448
-0.117059
-0.107647
-0.11319
-0.138756
-0.149299
-0.144819
-0.140339
-0.15586
-0.156425
-0.136787
-0.132308
-0.157828
-0.158348
-0.133914
-0.119502
-0.135091
-0.150543
-0.145995
-0.141471
-0.15181
-0.152262
-0.137624
-0.112919
-0.138167
-0.158529
-0.138824
-0.124186
-0.129683
-0.140611
-0.127014
-0.104095
-0.0973529
-0.117081
-0.118371
-0.0960181
-0.0994344
-0.122873
-0.105204
-0.0854299
-0.0932127
-0.108643
-0.0827149
-0.0418326
-0.026448
-0.0214253
-0.0165611
0.00823529
0.0380996
0.0380543
0.0381448
0.0583711
0.0786425
0.0738688
0.0690724
0.084276
0.099457
0.0896833
0.0849321
0.100272
0.0855656
0.0857466
0.0609502
0.0611765
0.0865158
0.0868552
0.0570588
0.0273303
0.0126244
0.0228281
-0.0121493
-0.0320814
-0.0269683
-0.0416516
-0.0613122
-0.0758823
-0.080543
-0.0702262
-0.0749547
-0.0898416
-0.0947285
-0.0746154
-0.0745927
-0.109661
-0.104683
-0.0946832
-0.0997059
-0.0997285
-0.109661
-0.084457
-0.0941855
-0.0986652
-0.0975565
-0.0762217
-0.0682805
-0.0791176
-0.108688
-0.0771267
-0.0350452
-0.0384841
-0.0434615
-0.0405656
-0.0148416
-0.0259729
-0.0378507
-0.034457
-0.00552034
0.00355206
-0.0273982
-0.0233936
-0.00438912
-0.0154525
-0.0315385
-0.0274887
0.00169685
0.000882372
-0.015
-0.0258823
-0.0115384
0.00287332
-0.0376244
-0.0330995
-0.0335294
-0.0188687
-0.0291629
-0.0443212
-0.0444117
-0.034457
-0.0395022
-0.0595928
-0.0646606
-0.0396154
-0.0445701
-0.0745475
-0.084457
-0.0594344
-0.0545249
-0.0546154
-0.0297059
0.080181
0.195068
0.32
0.565045
0.905113
1.26516
1.55016
1.70023
1.72529
1.50036
1.02548
0.480611
-0.0442308
-0.354027
-0.338801
-0.233462
-0.148077
-0.107579
-0.0970362
-0.131403
-0.130679
-0.129864
-0.159027
-0.188145
-0.172104
-0.161041
-0.149977
-0.158914
-0.172873
-0.161855
-0.155747
-0.169593
-0.168529
-0.137443
-0.12638
-0.150385
-0.159321
-0.13319
-0.132127
-0.136267
-0.135543
-0.109796
-0.109163
-0.113575
-0.153032
-0.157602
-0.147149
-0.121719
-0.13138
-0.130996
-0.0906335
-0.0852941
-0.11
-0.104683
-0.0693665
-0.0541629
-0.0689141
-0.0737331
-0.04862
-0.04362
-0.0640272
-0.0499548
-0.00158375
0.0107013
0.00651579
0.00592756
0.0240497
0.0263574
0.0236651
0.0422172
0.0630543
0.0762443
0.0766968
0.0531221
0.0694796
0.110294
0.12595
0.0914706
0.0971493
0.108032
0.0988009
0.0745022
0.0752715
0.0759955
0.0568325
0.0227149
-0.00135749
0.00459274
0.0105203
-0.0335747
-0.0626471
-0.0817195
-0.065905
-0.0700905
-0.114276
-0.123394
-0.127557
-0.126765
-0.151063
-0.165226
-0.149367
-0.148597
-0.182851
-0.182036
-0.161222
-0.150566
-0.16
-0.154457
-0.133914
-0.118303
-0.117624
-0.126606
-0.120068
-0.117941
-0.109774
-0.115226
-0.0940724
-0.071629
-0.0585068
-0.0654299
-0.0434616
-0.0185973
-0.0261765
-0.0512896
-0.0329186
-0.0194118
-0.0154299
-0.0361765
-0.0417874
-0.0373756
-0.0280769
-0.0488914
-0.054819
-0.045905
-0.061991
-0.0730769
-0.0792082
-0.0652715
-0.046267
-0.0522851
-0.0782806
-0.0741629
-0.0699774
-0.0757693
-0.096448
-0.0819684
-0.0724887
-0.0879639
-0.103281
-0.0885521
-0.0737331
-0.0688462
-0.0788236
-0.0888462
-0.0738009
-0.0638914
-0.0890951
-0.0993213
-0.0844797
-0.0845023
-0.0845475
-0.0945249
-0.0894797
-0.074457
-0.0745476
-0.0845928
-0.0895249
-0.0644797
-0.0544344
-0.0293213
0.0507692
0.190814
0.335995
0.57129
0.896606
1.22697
1.51742
1.68296
1.64846
1.39903
0.929706
0.40052
-0.108688
-0.322873
-0.282127
-0.171312
-0.145362
-0.109276
-0.113303
-0.14733
-0.151403
-0.130407
-0.124457
-0.123552
-0.162783
-0.167059
-0.14638
-0.150792
-0.160249
-0.164729
-0.154299
-0.138982
-0.153778
-0.148597
-0.148348
-0.148213
-0.14819
-0.153235
-0.133258
-0.153303
-0.163416
-0.163416
-0.163484
-0.15362
-0.158778
-0.153937
-0.144027
-0.114118
-0.10914
-0.124253
-0.114321
-0.0793439
-0.079457
-0.0846154
-0.0697737
-0.0348416
-0.0298868
-0.0298869
-0.0297964
0.00533937
0.0254751
0.0156335
0.0107919
0.0458598
0.070905
0.0559955
0.056086
0.0812444
0.0914254
0.0965611
0.0866742
0.111833
0.136923
0.142059
0.112127
0.127081
0.147014
0.141855
0.116312
0.105294
0.108529
0.085543
0.051086
0.0402941
0.0383484
0.0056561
-0.0269457
-0.0531901
-0.0689367
-0.0809729
-0.105928
-0.120023
-0.124276
-0.114005
-0.134027
-0.144005
-0.123778
-0.108643
-0.0984389
-0.138167
-0.132828
-0.107398
-0.106968
-0.126606
-0.096267
-0.0708145
-0.080362
-0.0899095
-0.0943666
-0.0836878
-0.0728733
-0.0817421
-0.0951132
-0.0678055
-0.0542534
-0.0592761
-0.0679412
-0.0552941
-0.0268326
-0.0284842
-0.0213348
-0.0213348
0.00131226
-0.00330313
-0.0140271
-0.0145927
-0.00461537
-0.0195475
-0.029457
-0.024457
-0.00450225
-0.0295701
-0.0447285
-0.0349773
-0.00524887
-0.0156561
-0.041267
-0.0469457
-0.0326923
-0.0233937
-0.0491403
-0.0549774
-0.0507693
-0.0316064
-0.0524661
-0.0734616
-0.0593665
-0.0502037
-0.0561086
-0.0770136
-0.0781222
-0.089276
-0.0754073
-0.0965611
-0.092715
-0.0738462
-0.0799322
-0.0910408
-0.102014
-0.0627602
-0.0584163
-0.0690724
-0.0595702
-0.0450453
-0.0453394
-0.0605656
-0.0756562
-0.0706109
-0.0754525
-0.0802489
-0.0948643
-0.0843892
-0.0638236
-0.0532353
-0.0725566
-0.0618326
-0.0460408
-0.0552037
-0.0792761
-0.0733485
-0.0622851
-0.0611991
-0.065181
-0.0791177
-0.0530091
-0.0419231
-0.0457467
-0.0296154
0.0714706
0.197489
0.358461
0.604389
0.935294
1.23606
1.48681
1.63244
1.62801
1.33853
1.21387
0.379072
-0.0658145
-0.240679
-0.20052
-0.105543
-0.0506109
-0.0456562
-0.080543
-0.0854299
-0.110226
-0.109864
-0.124729
-0.144706
-0.154615
-0.13448
-0.114299
-0.139027
-0.148778
-0.15362
-0.148394
-0.168167
-0.172986
-0.162602
-0.132262
-0.1369
-0.176471
-0.166018
-0.135475
-0.134977
-0.149593
-0.15914
-0.14362
-0.1381
-0.147692
-0.157217
-0.126674
-0.121199
-0.130814
-0.125385
-0.095
-0.079638
-0.104299
-0.103869
-0.0634389
-0.0380543
-0.0327149
-0.0423077
-0.00190043
0.0335068
0.0438914
0.0242081
0.0295701
0.0599095
0.065181
0.0604072
0.0707014
0.100928
0.0811086
0.0663574
0.0766516
0.0969683
0.122262
0.122511
0.117647
0.122873
0.133054
0.123213
0.118371
0.133529
0.133643
0.0886878
0.0537782
0.0640497
0.0643439
0.0596832
0.0149547
0.0152714
0.0206108
-0.00404979
-0.0288009
-0.0385747
-0.0433258
-0.0430996
-0.0728281
-0.0825113
-0.0671493
-0.0518552
-0.0816063
-0.0913348
-0.086086
-0.0758371
-0.100543
-0.115294
-0.0750227
-0.0597737
-0.064638
-0.089457
-0.0941855
-0.0639593
-0.0586652
-0.0680317
-0.0667873
-0.0497738
-0.0615837
-0.0570136
-0.0510408
-0.0139593
-0.0161991
-0.0235068
0.00287326
0.0287783
0.040905
0.0109728
-0.0097512
0.0246606
0.044638
0.019819
-0.0250679
-0.00502263
-0.00993216
-0.0349774
-0.0251584
0.00468324
0.014457
0.00420812
-0.0260634
-0.0163123
0.0133937
0.0230995
-0.00223982
-0.00753394
0.012172
-0.0231448
-0.0235068
-0.0438235
-0.0341403
-0.0295475
-0.06
-0.0653846
-0.0357692
-0.031086
-0.0564932
-0.0569909
-0.0373981
-0.0327827
-0.0532126
-0.0485746
-0.0288687
-0.0291402
-0.0344117
-0.0396153
-0.0297284
-0.0298416
-0.055
-0.0600678
-0.0400905
-0.0249547
-0.0348642
-0.0596832
-0.0593891
-0.0290045
-0.0286877
-0.0483484
-0.0379185
-0.0224434
-0.0169683
-0.0215158
-0.0309728
-0.0304525
-0.0299773
-0.0394569
-0.0539593
-0.043371
-0.0277601
-0.0321946
-0.0417421
-0.0313575
-0.011267
-0.0167194
-0.0179412
-0.0152715
0.011086
-0.0288235
-0.0499095
-0.0570814
-0.0345701
-0.0514253
-0.0767647
-0.0952036
-0.0731674
-0.0731674
-0.0826244
-0.0923755
-0.0924208
-0.0825113
-0.0826244
-0.0877601
-0.0677375
-0.0577828
-0.062828
-0.0878959
-0.0928733
-0.072828
-0.0778506
-0.0777601
-0.0676244
-0.0523303
-0.0620814
-0.056923
-0.0567194
-0.0314479
-0.0411538
-0.0508597
-0.0655882
-0.0403619
-0.0500226
-0.0447284
-0.0494117
-0.0391176
-0.0388914
-0.0585973
-0.0583258
-0.0479864
-0.0477149
-0.0375339
-0.067285
-0.0569683
-0.0366742
-0.0565837
-0.071561
-0.0666063
-0.0367194
-0.0568326
-0.0619909
-0.0671266
-0.042285
-0.0275565
-0.0429185
-0.0532352
-0.048552
-0.0539592
-0.074457
-0.0749774
-0.055656
-0.0362669
-0.0420361
-0.0628959
-0.0438009
-0.0297737
-0.0308371
-0.0618778
-0.0529411
-0.0190724
-0.0352262
-0.0514254
-0.0526471
-0.0388914
-0.0500679
-0.0661991
-0.0624208
-0.0485746
-0.0547059
-0.0807693
-0.07181
-0.0529186
-0.0388914
-0.0697285
-0.0705656
-0.0513349
-0.0421041
-0.0528055
-0.0583937
-0.0588914
-0.0493213
-0.0547059
-0.0600453
-0.0453394
-0.0355204
-0.0506335
-0.0558145
-0.0559955
-0.0311086
-0.0262444
-0.0313802
-0.0264707
0.00346147
0.0284389
0.0834162
0.198394
0.383371
0.628416
0.873348
1.11837
1.3883
1.62824
1.69308
1.50799
1.1729
0.75776
0.627557
-0.0526018
-0.182805
-0.122986
-0.0582353
-0.0786425
-0.0839819
-0.0642761
-0.0845475
-0.0997964
-0.110113
-0.100407
-0.110724
-0.141131
-0.14138
-0.126674
-0.121855
-0.162036
-0.177149
-0.16224
-0.142217
-0.15224
-0.167262
-0.167285
-0.14733
-0.152376
-0.177421
-0.167489
-0.142398
-0.147421
-0.147421
-0.142443
-0.117511
-0.122534
-0.137511
-0.137579
-0.117534
-0.112534
-0.132602
-0.132579
-0.0976018
-0.0876245
-0.0976471
-0.0876471
-0.047715
-0.0426923
-0.0477602
-0.0527828
-0.0226471
-0.00251132
0.0075113
0.00246607
0.0174208
0.0424434
0.0424661
0.0275792
0.0427376
0.0728733
0.0879412
0.0730091
0.0880091
0.113077
0.123009
0.112851
0.117534
0.147014
0.155747
0.138688
0.125475
0.13095
0.145023
0.117828
0.0999547
0.0874887
0.0764253
0.0624887
0.0258597
0.0164253
0.0326018
0.00848413
-0.0160181
-0.0307693
-0.0255204
-0.0452489
-0.0800227
-0.079706
-0.0742987
-0.0788236
-0.108326
-0.132783
-0.117285
-0.116697
-0.141154
-0.150588
-0.13991
-0.134186
-0.143439
-0.162579
-0.151606
-0.130362
-0.133688
-0.146267
-0.11276
-0.0979865
-0.107104
-0.115091
-0.0870136
-0.06362
-0.0660181
-0.07
-0.0658824
-0.0472624
-0.0367421
-0.0519005
-0.0468326
-0.011448
-0.016086
-0.0258371
-0.0356335
-0.0204752
0.00468321
-0.00531679
-0.025362
-0.0104978
-0.0256788
-0.0209277
-0.0462444
-0.0365612
-0.036991
-0.052534
-0.0731901
-0.0637557
-0.039344
-0.0500454
-0.0558372
-0.0716743
-0.047534
-0.0535748
-0.0846608
-0.0657241
-0.0618327
-0.0578734
-0.0689141
-0.0799096
-0.0809051
-0.0619005
-0.077896
-0.0988463
-0.0746607
-0.0754752
-0.0862444
-0.101968
-0.0975567
-0.0730318
-0.0783032
-0.103462
-0.0885068
-0.073439
-0.0933259
-0.108077
-0.0926471
-0.0720362
-0.076448
-0.110792
-0.110023
-0.109231
-0.0984163
-0.0975566
-0.101629
-0.080543
-0.0494118
-0.0632806
-0.0621267
-0.0308371
0.0404072
0.071629
0.222896
0.399186
0.670452
0.951629
1.24781
1.53414
1.70038
1.60661
1.27267
0.813643
0.324638
-0.14448
-0.308688
-0.242941
-0.13733
-0.0716968
-0.0811765
-0.0907014
-0.0802263
-0.0898869
-0.11457
-0.134299
-0.123937
-0.123665
-0.128507
-0.153326
-0.143167
-0.123122
-0.1431
-0.158032
-0.157941
-0.152783
-0.152738
-0.157805
-0.13776
-0.117647
-0.112557
-0.14733
-0.147059
-0.126878
-0.121652
-0.126403
-0.136176
-0.120928
-0.115656
-0.135453
-0.130339
-0.11009
-0.0998416
-0.104615
-0.119299
-0.0989819
-0.0685973
-0.0782805
-0.0929864
-0.0676471
-0.0472172
-0.0368326
-0.0564706
-0.0411538
-0.010724
-0.005362
-0.02
-0.00963801
0.0307014
0.0309955
0.0263122
0.036629
0.0568778
0.0872172
0.0874208
0.102602
0.122738
0.14276
0.147828
0.13276
0.137489
0.15181
0.145453
0.128122
0.124751
0.130091
0.0992308
0.0723982
0.0549095
0.0726245
0.0465837
0.00728512
-0.0298642
-0.0163574
-0.0353846
-0.0642986
-0.0786199
-0.0783258
-0.0980995
-0.127715
-0.127353
-0.126878
-0.126493
-0.131041
-0.150611
-0.145136
-0.129525
-0.148891
-0.173281
-0.157624
-0.136991
-0.156335
-0.155611
-0.14457
-0.123348
-0.116403
-0.123688
-0.109819
-0.094638
-0.102986
-0.0952262
-0.091742
-0.0536425
-0.0319456
-0.0424208
-0.0501583
-0.0400226
-0.0156561
-0.0110407
-0.0409049
-0.0304751
-0.0150904
-0.0347511
-0.0394796
-0.0342986
-0.0191402
-0.0440723
-0.0540723
-0.0541176
-0.0441628
-0.0393212
-0.0395249
-0.044819
-0.0452262
-0.0456335
-0.0711991
-0.0668778
-0.0326244
-0.038371
-0.059095
-0.0697963
-0.0704751
-0.0712895
-0.0671719
-0.0931221
-0.0791176
-0.0600904
-0.0761085
-0.0921266
-0.0780769
-0.0440497
-0.0649773
-0.0809276
-0.0717194
-0.0574208
-0.0630316
-0.0886651
-0.084095
-0.0644796
-0.0497285
-0.0799095
-0.0899321
-0.0697511
-0.0745475
-0.0942986
-0.104004
-0.0935294
-0.0930317
-0.102489
-0.111833
-0.106176
-0.0804751
-0.0747059
-0.0988688
-0.0828733
-0.0518778
-0.0458823
-0.0498416
-0.0386878
-0.00248869
0.0487104
0.129796
0.270882
0.486946
0.7381
1.00923
1.25529
1.49636
1.64233
1.5881
1.29889
0.919706
0.470385
0.320837
-0.248688
-0.258281
-0.152919
-0.0876018
-0.0873756
-0.107285
-0.0822851
-0.11224
-0.127104
-0.142036
-0.136878
-0.136946
-0.167081
-0.177104
-0.152149
-0.132262
-0.142353
-0.147489
-0.132602
-0.132647
-0.142647
-0.152602
-0.147511
-0.132398
-0.14224
-0.172127
-0.132059
-0.126991
-0.136946
-0.161742
-0.141539
-0.131358
-0.131199
-0.126063
-0.115769
-0.125339
-0.125
-0.124683
-0.124321
-0.0990045
-0.0885973
-0.108235
-0.107896
-0.0826471
-0.0723756
-0.0770815
-0.0768778
-0.0565385
-0.0161086
-0.0107692
-0.025543
0.00968328
0.0399548
0.055181
0.0504977
0.0657466
0.0809502
0.0811312
0.0762444
0.0913575
0.126493
0.141629
0.131787
0.131923
0.147036
0.137104
0.122172
0.117376
0.142466
0.117579
0.0927828
0.0580543
0.0833032
0.0684842
0.0486425
0.00382352
0.0140724
-0.000791848
-0.0356787
-0.0605656
-0.0554751
-0.0354299
-0.0704751
-0.0905204
-0.0905656
-0.0755656
-0.0757014
-0.090905
-0.0960407
-0.0911086
-0.0962217
-0.0963801
-0.0814253
-0.071448
-0.0763801
-0.0814706
-0.0967647
-0.0671267
-0.052534
-0.0530769
-0.0887104
-0.0842081
-0.0595928
-0.0850905
-0.0855882
-0.0508371
-0.0303846
-0.0543439
-0.0579864
-0.0416289
-0.0294117
-0.0343665
-0.0548416
-0.0602715
-0.0404977
-0.0304977
-0.0406561
-0.0506108
-0.0706108
-0.0555882
-0.0806787
-0.0509049
-0.0311312
-0.0414479
-0.0567194
-0.066923
-0.0571266
-0.0272171
-0.0522624
-0.067285
-0.0673529
-0.0574208
-0.0625113
-0.0775113
-0.0774886
-0.0575113
-0.062647
-0.0627601
-0.0628733
-0.0680316
-0.0531221
-0.0632353
-0.068371
-0.0535068
-0.063552
-0.0885521
-0.0986878
-0.0837557
-0.0786878
-0.088733
-0.113801
-0.0988235
-0.078914
-0.0840045
-0.0991177
-0.104208
-0.0742987
-0.0995249
-0.119751
-0.104819
-0.0798869
-0.0799774
-0.115091
-0.100226
-0.0853394
-0.0752036
-0.085181
-0.0902715
-0.0753394
-0.075362
-0.075362
-0.100407
-0.0903846
-0.0652488
-0.0752036
-0.0803168
-0.0654072
-0.0604978
-0.0556787
-0.0757692
-0.0859728
-0.0861538
-0.0864706
-0.0967194
-0.0870362
-0.0722624
-0.0726471
-0.0779412
-0.0832805
-0.0637556
-0.0641855
-0.0745701
-0.0649095
-0.0552941
-0.0557014
-0.0760181
-0.0563348
-0.0365158
-0.02681
-0.0371493
-0.0525113
-0.0278959
-0.0231901
-0.0234616
-0.0487104
-0.00398192
0.0757919
0.14043
0.230136
0.399864
0.634661
0.854321
1.09894
1.36864
1.60828
1.69803
1.48792
1.06785
0.617692
0.167579
-0.172534
-0.262692
-0.157851
-0.0630543
-0.043371
-0.0936652
-0.0788688
-0.0990045
-0.119186
-0.13948
-0.129729
-0.0950226
-0.0951584
-0.105317
-0.125543
-0.115747
-0.0960408
-0.131403
-0.146629
-0.136923
-0.127217
-0.137466
-0.142692
-0.157919
-0.148145
-0.148416
-0.153665
-0.118846
-0.113959
-0.114118
-0.154367
-0.129525
-0.11457
-0.114729
-0.129842
-0.129977
-0.110226
-0.12552
-0.155928
-0.13129
-0.101516
-0.101878
-0.107353
-0.107692
-0.0780317
-0.0733258
-0.0786651
-0.0488461
-0.0291402
-0.0244569
-0.0197963
-0.0300678
0.00961544
0.0442082
0.0538688
-0.00647053
0.0331901
0.0728281
0.0674887
0.0521041
0.0616969
0.106312
0.105792
0.0702263
0.0896154
0.138778
0.122511
0.105679
0.118077
0.120204
0.115226
0.0788688
0.0663122
0.0680995
0.0601131
0.0134615
-0.00119911
-0.0136199
-0.0188235
-0.0230996
-0.0574434
-0.0621267
-0.0520362
-0.0770588
-0.0921267
-0.112172
-0.0971719
-0.127036
-0.116833
-0.111584
-0.101312
-0.101018
-0.120724
-0.11043
-0.105113
-0.104864
-0.119434
-0.10371
-0.0876245
-0.0761086
-0.0888914
-0.0906788
-0.0714028
-0.0609729
-0.0644118
-0.0817421
-0.0686652
-0.051448
-0.0511991
-0.0630317
-0.04681
-0.0270814
-0.0327828
-0.043077
-0.0229186
-0.00757921
-0.0174208
-0.0422398
-0.0422172
-0.0372624
-0.0323756
-0.0476018
-0.0527149
-0.0277828
-0.0228959
-0.0431901
-0.0335746
-0.00886878
-0.00934389
-0.0200226
-0.0357466
-0.0464706
-0.0422172
-0.0480543
-0.0641176
-0.0551358
-0.0411538
-0.0622172
-0.0782126
-0.0691855
-0.0551584
-0.0613122
-0.0974435
-0.0785068
-0.0745249
-0.0805656
-0.0816968
-0.0827828
-0.0438462
-0.0499774
-0.0910633
-0.0870588
-0.0479186
-0.0586878
-0.064457
-0.0900905
-0.0855883
-0.0909503
-0.091086
-0.106177
-0.0861991
-0.0761313
-0.0660634
-0.0808598
-0.0804299
-0.0648643
-0.0545476
-0.0590951
-0.0684842
-0.042896
-0.0371946
-0.0415385
-0.0357467
-0.0148643
0.0209275
0.0616968
0.152624
0.293507
0.469321
0.535181
0.981018
1.27686
1.54262
1.68835
1.629
1.34473
0.920339
0.425905
-0.06862
-0.278168
-0.242715
-0.167489
-0.127285
-0.0920363
-0.0718779
-0.0767196
-0.10672
-0.116697
-0.111742
-0.111674
-0.126674
-0.146652
-0.121606
-0.116539
-0.121493
-0.131493
-0.126493
-0.111493
-0.12638
-0.131267
-0.116109
-0.100973
-0.115882
-0.125792
-0.105679
-0.11052
-0.110385
-0.130317
-0.115249
-0.105181
-0.125045
-0.13491
-0.129796
-0.114661
-0.119525
-0.139321
-0.149118
-0.138869
-0.123597
-0.128394
-0.133213
-0.0979186
-0.0876471
-0.0974434
-0.0972398
-0.0770136
-0.0467647
-0.0464706
-0.0411086
-0.0107466
0.0095928
0.0198643
0.0150227
0.0301132
0.0652037
0.0652489
0.0652715
0.0703394
0.0903168
0.090181
0.0898643
0.0893666
0.108416
0.106697
0.0940498
0.0802489
0.0950905
0.0988462
0.0717648
0.0499322
0.0592308
0.0653394
0.0335294
0.00852944
0.00936653
0.0101358
-0.014638
-0.049638
-0.0695927
-0.0594796
-0.069276
-0.0839593
-0.0936878
-0.0832353
-0.0978054
-0.117443
-0.122059
-0.111448
-0.105792
-0.105294
-0.144751
-0.12414
-0.108484
-0.127783
-0.142104
-0.11629
-0.100226
-0.10371
-0.101629
-0.0937556
-0.0804751
-0.0752715
-0.0838461
-0.0711991
-0.0378959
-0.0447285
-0.0529411
-0.0482126
-0.0356787
-0.035362
-0.0410859
-0.0268099
-0.027104
-0.0271719
-0.0321493
-0.0471041
-0.0320814
-0.0221493
-0.0373529
-0.0526244
-0.0329412
-0.0282353
-0.0336878
-0.0591629
-0.0446606
-0.030181
-0.030724
-0.0463575
-0.056991
-0.042715
-0.0433711
-0.0541177
-0.0498643
-0.0355656
-0.0363349
-0.0571041
-0.0780543
-0.0589819
-0.0499322
-0.0557466
-0.0866517
-0.0725566
-0.0484616
-0.0593666
-0.0701811
-0.0658372
-0.0514933
-0.0721494
-0.102806
-0.0883032
-0.0786878
-0.0990046
-0.109163
-0.0992987
-0.074457
-0.0744797
-0.0994118
-0.0993213
-0.0890951
-0.0887783
-0.0934163
-0.0930317
-0.0775792
-0.0571041
-0.0614706
-0.0658145
-0.0502037
-0.0445475
-0.0439819
-0.033371
0.0172172
0.0728054
0.168213
0.303484
0.528665
0.788778
1.08371
1.32342
1.5079
1.49219
1.23588
0.794163
0.337036
-0.0257014
-0.224072
-0.218054
-0.127624
-0.0777149
-0.0982353
-0.119095
-0.159864
-0.170453
-0.155837
-0.19095
-0.205566
-0.194593
-0.188009
-0.230656
-0.247692
-0.224231
-0.210498
-0.221855
-0.238122
-0.244344
-0.220588
-0.217308
-0.234593
-0.24724
-0.23457
-0.23586
-0.26095
-0.240249
-0.214186
-0.218009
-0.216742
-0.245272
-0.223733
-0.192127
-0.200543
-0.203937
-0.182262
-0.145498
-0.16362
-0.171787
-0.154887
-0.137919
-0.135973
-0.14405
-0.122036
-0.100045
-0.0880543
-0.105996
-0.0889593
-0.0568326
-0.0447059
-0.0425113
-0.0453394
-0.0179412
-0.000520393
0.00680993
-0.0108597
0.0264706
0.0438461
0.0212443
0.0286651
0.0510407
0.0884841
0.0857918
0.0730543
0.0603846
0.0927828
0.0749774
0.0670588
0.0742307
0.0713801
0.033371
0.0152488
0.0070814
0.0187104
0.00011307
-0.0285973
-0.0474661
-0.046448
-0.0404978
-0.0447059
-0.0739819
-0.0733032
-0.0477602
-0.0772399
-0.0917874
-0.0713801
-0.0559729
-0.0606109
-0.0702036
-0.0897512
-0.0593213
-0.0488688
-0.0584163
-0.0329638
-0.0224887
-0.0168552
-0.016086
0.0247964
0.076267
0.0984163
0.106493
0.140701
0.216335
0.283077
0.310633
0.438077
0.549321
0.653552
0.760724
0.876199
1.01084
1.14054
1.23054
1.29068
1.34584
1.33604
1.28602
1.22579
1.15566
1.05545
0.910272
0.755045
0.579842
0.454615
0.349412
0.289231
0.269095
0.268937
0.273733
0.258552
0.348416
0.498281
0.593145
0.517964
0.287715
0.0275339
-0.137579
-0.217624
-0.257624
-0.272692
-0.29267
-0.322828
-0.352941
-0.347986
-0.343077
-0.358054
-0.383032
-0.392828
-0.382715
-0.397692
-0.417692
-0.42767
-0.407647
-0.417602
-0.427511
-0.442376
-0.437217
-0.427059
-0.45181
-0.476448
-0.47595
-0.455452
-0.505
-0.524548
-0.514027
-0.498303
-0.49776
-0.517059
-0.51629
-0.505588
-0.494842
-0.529095
-0.518213
-0.487262
-0.49138
-0.510543
-0.494661
-0.453846
-0.448077
-0.452262
-0.426493
-0.395905
-0.370407
-0.344977
-0.324615
-0.284299
-0.238982
-0.233891
-0.228891
-0.183846
-0.143756
-0.133823
-0.128959
-0.124004
-0.0991628
-0.0893438
-0.0945022
-0.0845927
-0.0795927
-0.06957
-0.0697284
-0.0797963
-0.0647963
-0.0597962
-0.0646831
-0.08957
-0.0694569
-0.0393211
-0.0740723
-0.0887103
-0.0682578
-0.0578732
-0.0776017
-0.0824207
-0.0774434
-0.0681673
-0.0595248
-0.0566741
-0.0596153
-0.0474207
-0.0607918
-0.0682352
-0.0383936
-0.0108822
-0.0259954
-0.0445248
-0.0228733
0.0232127
0.0288009
0.0189593
0.0086877
0.0379411
0.0465611
0.0143439
-0.00343895
0.0183936
0.0250678
0.0216515
0.0181447
0.00966063
0.026199
0.0331674
0.0206787
0.0235746
0.0561538
0.0427601
0.00321263
0.00785062
0.0221945
0.0314026
0.0105429
0.0195022
0.028371
0.0421493
0.040837
0.00957009
0.0281674
0.0216064
0.0199548
0.0283032
0.0466064
0.0548869
0.0530544
0.0362218
0.0442987
0.0524209
0.0554526
0.0334164
0.0264028
0.0292762
0.00703633
0.00472867
0.00746623
0.0300002
0.0274436
-0.0151129
0.00228527
-0.000293911
-0.00296363
-0.0157917
-0.0236198
-0.00633466
-0.00418538
-0.0270135
-0.0297962
-0.0376243
-0.0205202
-0.0284161
-0.0313346
-0.0392759
-0.0371718
-0.0400224
-0.0428052
-0.0404975
-0.0180541
-0.0305201
-0.0628052
-0.0349546
-0.0169455
-0.0238686
-0.0406107
-0.0371265
-0.0235292
-0.0197736
-0.02595
-0.0370587
-0.0230089
-0.0239139
-0.0497057
-0.0655202
-0.0461989
-0.0367645
-0.0423301
-0.0529184
-0.0534388
-0.0438686
-0.0394116
-0.0449998
-0.030475
-0.00606319
-0.00674191
0.0125341
0.0668554
0.156154
0.260385
0.434593
0.693824
0.973145
1.24751
1.32183
1.56118
1.4905
1.11486
0.614367
0.148937
-0.146561
-0.197127
-0.122624
-0.0729863
-0.0482804
-0.0536198
-0.0939818
-0.109321
-0.0995022
-0.0997963
-0.120181
-0.145543
-0.145905
-0.126176
-0.126403
-0.146787
-0.152104
-0.12233
-0.112579
-0.117941
-0.133213
-0.138507
-0.123914
-0.139389
-0.149796
-0.150136
-0.130475
-0.14086
-0.15129
-0.126606
-0.131833
-0.117285
-0.107692
-0.0980995
-0.0884841
-0.093733
-0.108937
-0.0941629
-0.0742534
-0.0643665
-0.0844796
-0.0796154
-0.0596154
-0.0546606
-0.0547963
-0.0548868
-0.0400226
-0.0301809
-0.0353619
-0.0355429
-0.0257239
-0.00101805
-0.00626692
-0.00665154
0.0279186
0.0374435
0.0217647
0.015724
0.0193213
0.037715
0.0397738
0.0307919
0.0408372
0.0801358
0.0840498
0.063258
0.0737105
0.0858598
0.0896154
0.0843892
0.0845476
0.0847059
0.0996154
0.0695928
0.059638
0.0647285
0.0549095
0.0401131
0.0103846
0.000769258
0.0112896
-0.0132353
-0.0278054
-0.0423529
-0.0319683
-0.0515837
-0.0761991
-0.0857693
-0.0652942
-0.0748643
-0.0995249
-0.0992082
-0.0688236
-0.0634163
-0.073077
-0.0676471
-0.0372172
-0.0366743
-0.050905
-0.0398643
-0.028258
-0.0208598
-0.0273304
-0.0276471
-0.0116516
0.00472848
0.00708143
-0.000927627
0.00441176
0.0175339
0.0135973
0.00323528
0.00262444
0.0123982
-0.00262445
-0.0076697
-0.0177376
0.00205879
-0.0282127
-0.0385068
-0.0388462
-0.0242082
-0.0197512
-0.0453847
-0.0609955
-0.0366064
-0.0373078
-0.0530996
-0.0638915
-0.0396381
-0.0303168
-0.0411766
-0.057172
-0.0380996
-0.0390725
-0.0449322
-0.0658372
-0.0465838
-0.0273078
-0.0380317
-0.0587331
-0.0393892
-0.0298869
-0.0352263
-0.040543
-0.0608145
-0.0510407
-0.036267
-0.0664027
-0.0764479
-0.0664027
-0.0513801
-0.0763801
-0.0863575
-0.0712669
-0.0760859
-0.0859276
-0.0808597
-0.0706561
-0.0455203
-0.0453619
-0.0602262
-0.0499773
-0.0196832
-0.00938909
-0.00898185
0.0313123
0.131539
0.216833
0.242104
0.537421
0.762851
0.998303
1.15873
1.24437
1.17516
0.905882
0.531652
0.177444
-0.041742
-0.100882
-0.110023
-0.0842307
-0.068371
-0.0626017
-0.0768552
-0.111176
-0.110475
-0.109864
-0.129366
-0.16405
-0.163733
-0.138461
-0.143235
-0.153145
-0.168099
-0.148032
-0.148054
-0.163145
-0.16319
-0.14319
-0.128235
-0.138348
-0.148394
-0.118303
-0.113145
-0.113032
-0.117873
-0.112624
-0.0824208
-0.102059
-0.101765
-0.0915158
-0.0662443
-0.0809728
-0.0906787
-0.0653167
-0.0548642
-0.0644344
-0.074095
-0.0837782
-0.0634389
-0.0581674
-0.0679412
-0.0627602
-0.0325566
-0.0323529
-0.0421945
-0.0420136
-0.0270136
-0.0169457
-0.0319231
-0.0169457
0.00305437
0.0179412
0.0178281
0.017715
0.0325114
0.0623304
0.0622399
0.0421268
0.0670362
0.091991
0.0919231
0.0869458
0.0519231
0.0619457
0.0469231
0.0318553
0.0218552
0.0418552
0.0267874
0.00683258
-0.0181448
-0.0131222
-0.0130543
-0.0282353
-0.0434842
-0.0486199
-0.0488688
-0.0593213
-0.0750679
-0.066086
-0.0528054
-0.0653168
-0.0888914
-0.088552
-0.0593665
-0.0861765
-0.083552
-0.0954751
-0.0859276
-0.0895022
-0.106199
-0.10638
-0.0958597
-0.0605656
-0.0603846
-0.0797511
-0.0685972
-0.0571266
-0.0743665
-0.0806561
-0.0558145
-0.0502036
-0.0690724
-0.0633032
-0.0538009
-0.0409729
-0.0397512
-0.0545928
-0.0546833
-0.0397285
-0.0396154
-0.0495023
-0.0542986
-0.0341176
-0.0491176
-0.0441855
-0.0492534
-0.0193891
-0.00959274
-0.0248416
-0.0300678
-0.0152488
0.00454758
-0.0207918
-0.0261312
-0.0214253
-0.0117873
-0.0320361
-0.0473303
-0.0325339
-0.0177375
-0.043009
-0.0682579
-0.053552
-0.0338461
-0.0541176
-0.0595248
-0.0848869
-0.060362
-0.0458371
-0.0613122
-0.0667647
-0.0622398
-0.0677375
-0.0932579
-0.103914
-0.0846154
-0.0703168
-0.0811312
-0.0769683
-0.0677375
-0.0485746
-0.0693439
-0.075
-0.0756561
-0.0614253
-0.0521493
-0.0779638
-0.068733
-0.0445248
-0.0452262
-0.0459276
-0.0616063
-0.0371719
-0.0176696
-0.0381448
-0.0685294
-0.0388235
-0.034095
-0.0541855
-0.0641629
-0.0640497
-0.0538687
-0.0688235
-0.0788461
-0.0487556
-0.0437104
-0.0536651
-0.0585746
-0.0635068
-0.0484162
-0.0533936
-0.0684615
-0.0335294
-0.00861984
-0.0187556
-0.0240497
0.0106109
0.0851358
0.159457
0.288643
0.452692
0.701606
0.935272
1.1786
1.40156
1.534
1.45615
1.12776
0.693846
0.284502
-0.0250226
-0.175543
-0.131787
-0.0732805
-0.0797058
-0.116063
-0.167262
-0.16319
-0.153756
-0.173778
-0.188054
-0.221561
-0.214276
-0.206154
-0.212602
-0.213823
-0.199887
-0.205882
-0.226878
-0.238235
-0.225181
-0.24233
-0.254163
-0.249977
-0.234729
-0.234118
-0.238077
-0.2569
-0.245611
-0.224231
-0.237715
-0.241131
-0.224367
-0.202602
-0.210747
-0.208914
-0.231991
-0.200045
-0.2031
-0.211131
-0.20414
-0.177149
-0.160181
-0.158167
-0.166018
-0.128982
-0.1069
-0.0999095
-0.0978281
-0.0856335
-0.0634615
-0.0712669
-0.074095
-0.0419005
0.000316754
0.00237557
-0.00552037
0.011629
0.0388235
0.0310407
0.0382126
0.0304072
0.0374661
0.0394344
0.0563122
0.0481674
0.0850679
0.0868326
0.0785294
0.075181
0.0967421
0.108281
0.0845701
0.0707919
0.0820588
0.0932806
0.0741856
0.0501132
0.0359729
0.0367422
0.0173756
-0.00214927
-0.00667416
0.018801
-0.0207465
-0.0252488
-0.0347963
-0.0242986
-0.0338009
-0.0583484
-0.0678959
-0.042466
-0.0420362
-0.0514706
-0.0558597
-0.0252941
-0.0146606
0.00604074
0.0370362
0.0783258
0.125226
0.147828
0.186493
0.271267
0.392172
0.494118
0.576584
0.698665
0.834367
0.933145
0.96
1.18043
1.35029
1.44045
1.42586
1.39127
1.36661
1.31686
1.21704
1.08713
0.942195
0.772353
0.572421
0.387489
0.297557
0.257624
0.222738
0.192805
0.192873
0.287964
0.417986
0.452986
0.377919
0.172828
-0.0772172
-0.152262
-0.252308
-0.25233
-0.267353
-0.302443
-0.337489
-0.337489
-0.357466
-0.382443
-0.407398
-0.397353
-0.407217
-0.432195
-0.447195
-0.437081
-0.426968
-0.45181
-0.471697
-0.466516
-0.476176
-0.470882
-0.485475
-0.490068
-0.484525
-0.493982
-0.503484
-0.512919
-0.502285
-0.511652
-0.540928
-0.515091
-0.504208
-0.498213
-0.517195
-0.516176
-0.495204
-0.479185
-0.468235
-0.452376
-0.431403
-0.410385
-0.409344
-0.403235
-0.37724
-0.341222
-0.320226
-0.314231
-0.27319
-0.232104
-0.221086
-0.23009
-0.18905
-0.163009
-0.142081
-0.141222
-0.120475
-0.0847058
-0.0740044
-0.0884388
-0.0928053
-0.0723755
-0.0569456
-0.076561
-0.0811764
-0.0758144
-0.0605429
-0.0604524
-0.0754298
-0.070656
-0.0562443
-0.0575112
-0.0795927
-0.0627601
-0.0568099
-0.0517194
-0.0622171
-0.0576922
-0.0473529
-0.0603167
-0.0661764
-0.0698189
-0.0466062
-0.0326696
-0.0486877
-0.0493664
-0.0247737
-0.00995466
-0.0241175
-0.0326017
-0.0156106
-0.00861973
-0.0166966
-0.0349093
-0.00339359
0.0377828
0.0333937
0.00832582
0.00255662
0.0160181
0.0286426
0.0257693
0.0176924
0.0445476
0.0413349
0.0180996
0.0252036
0.0480091
0.0510182
0.0486652
0.045181
0.0606335
0.0608371
0.0505656
0.0301811
0.0547059
0.0641177
0.0383485
0.027534
0.0416064
0.0556789
0.0445929
0.0234391
0.0222174
0.055973
0.0246156
0.0131676
0.00669703
0.0401359
0.0384617
0.00167432
-0.00020346
0.00796393
0.0260861
-0.000882179
-0.00289574
0.0151133
0.0181224
-0.00907221
-0.016312
-0.00852928
0.00416303
-0.00803158
-0.0453619
-0.0376696
-0.0149321
-0.0173076
-0.0247285
-0.0220814
0.000633478
-0.0266064
-0.0238236
-0.0409954
-0.0231901
-0.000407189
-0.0175791
-0.0196606
-0.00162888
-0.00350672
-0.0402714
-0.0419004
-0.0284162
-0.0298642
-0.0511764
-0.052466
-0.053552
-0.0295927
-0.0554751
-0.0612443
-0.0369683
-0.0276697
-0.0233258
-0.0288914
-0.0294344
-0.0198869
-0.0252715
-0.0306788
-0.00104079
0.0386651
0.0933257
0.162941
0.307624
0.517421
0.767149
0.981787
1.2014
1.37118
1.41102
1.25088
0.910724
0.525543
0.150385
-0.164842
-0.250091
-0.145272
-0.0904299
-0.0556109
-0.0808146
-0.0860634
-0.0663123
-0.0816064
-0.0969231
-0.117285
-0.112692
-0.103235
-0.128756
-0.134072
-0.129299
-0.144593
-0.175023
-0.175453
-0.155701
-0.15086
-0.171086
-0.186267
-0.181493
-0.161787
-0.187104
-0.19733
-0.192489
-0.147602
-0.162692
-0.182806
-0.177941
-0.1531
-0.148326
-0.158439
-0.153507
-0.143597
-0.138688
-0.163869
-0.153982
-0.12914
-0.124412
-0.144774
-0.135023
-0.105475
-0.0911539
-0.0972626
-0.0937105
-0.0658372
-0.0583711
-0.0679186
-0.0788689
-0.0707467
-0.063258
-0.0854752
-0.101244
-0.0699775
-0.0516517
-0.0664254
-0.0754526
-0.074706
-0.0343893
-0.0344345
-0.064706
-0.0398644
-0.00986436
-0.00975123
-0.014706
-0.00957023
0.00552025
0.0157691
0.0209049
0.0310632
0.0463574
0.0616062
0.056923
0.0422171
0.0575112
0.0677374
0.0529184
0.0280316
0.0381673
0.0583031
0.0333709
0.023371
0.00843883
0.0184162
0.0184841
-0.00126703
-0.0160634
-0.015905
-0.00567877
-0.0454299
-0.065181
-0.054819
-0.0494344
-0.0640498
-0.0686425
-0.0529186
-0.0518779
-0.0751132
-0.0774661
-0.0336878
-0.0139593
-0.0332354
-0.0469458
-0.0355431
-0.00979647
-0.0105883
-0.0182128
-0.00762457
0.0166062
0.0104976
-0.0152263
-0.0158598
0.00864244
0.0281899
0.00771484
0.00226232
0.0167646
0.0262216
0.020475
0.0246379
0.0438687
0.0330316
0.00214928
-0.0138236
0.00513572
0.0140045
-0.0170815
-0.0431901
-0.0392308
-0.0252489
-0.0213349
-0.0324434
-0.0234389
-0.0243665
-0.0402262
-0.056086
-0.0668099
-0.047466
-0.0431221
-0.0488235
-0.0544796
-0.0549548
-0.0552941
-0.0757466
-0.0862217
-0.0516063
-0.0520588
-0.0525113
-0.0479185
-0.0282127
-0.0184615
-0.00373302
0.0359502
0.125679
0.23543
0.385181
0.440023
0.88491
1.20484
1.42977
1.54468
1.47959
1.17955
0.734502
0.254547
-0.170407
-0.325294
-0.260158
-0.175158
-0.130068
-0.0699096
-0.0698869
-0.104751
-0.134548
-0.114389
-0.109186
-0.123891
-0.153575
-0.143235
-0.127851
-0.132376
-0.136901
-0.15129
-0.125611
-0.125
-0.144412
-0.133778
-0.103122
-0.107534
-0.126923
-0.111335
-0.095792
-0.0853621
-0.0899775
-0.114525
-0.129005
-0.108552
-0.0931901
-0.112828
-0.117444
-0.107149
-0.136946
-0.146787
-0.116652
-0.0814481
-0.0962218
-0.0959956
-0.110747
-0.0955431
-0.0953169
-0.0899775
-0.089706
-0.044525
-0.0294345
-0.0443893
-0.0443214
-0.0242309
-0.00409511
-0.018982
-0.0288462
-0.00861999
0.0265158
0.0316515
-0.00316751
-0.00285079
0.0125565
0.00791845
0.00323519
0.0285067
0.0538913
0.0492759
0.0397058
0.0451131
0.0705203
0.0708371
0.0611312
0.0514479
0.0766742
0.0668552
0.0419457
0.0421267
0.0523755
0.0475792
0.00773752
-0.017172
-0.0121041
0.00289589
-0.0270815
-0.0470136
-0.0319458
-0.01681
-0.0518552
-0.0920136
-0.0621267
-0.0472173
-0.0624887
-0.0726697
-0.0628507
-0.0479412
-0.0680091
-0.0980317
-0.083009
-0.0428733
-0.0375113
-0.0467194
-0.040543
-0.0285746
-0.0263122
-0.036991
-0.0363801
-0.00972852
0.0125113
-0.00542992
-0.00984165
0.00875559
0.0302715
-0.000135779
-0.0163801
0.0126923
0.0321945
0.0168778
0.0167194
0.0164932
0.0311311
0.0406334
0.0250226
0.00920811
0.01819
0.0216968
0.0146832
0.00176466
0.0127149
-0.00757921
-0.0342761
-0.0418552
-0.0295249
-0.0371267
-0.0620362
-0.0747059
-0.0702489
-0.0447738
-0.0593666
-0.0444344
-0.0496155
-0.0548191
-0.0700905
-0.0754299
-0.0706561
-0.0706788
-0.0657466
-0.0858598
-0.0859503
-0.0661765
-0.0563575
-0.0864706
-0.0964254
-0.0814027
-0.0863801
-0.101493
-0.111629
-0.0967647
-0.0668552
-0.0719005
-0.0718326
-0.0567421
-0.0416742
-0.0516516
-0.0714706
-0.0563122
-0.0361765
-0.0610633
-0.065905
-0.0655204
-0.0500905
-0.0597738
-0.0995023
-0.0942534
-0.0689367
-0.0485068
-0.0780543
-0.0726018
-0.0620815
-0.0665611
-0.0961991
-0.0908824
-0.065543
-0.0602263
-0.0700453
-0.0847964
-0.0596833
-0.0646154
-0.0745475
-0.0746381
-0.0546833
-0.0399095
-0.050362
-0.0508824
-0.0662217
-0.0566064
-0.0521946
-0.0728281
-0.038552
-0.0144118
-0.0254073
-0.0513349
-0.0221946
-0.00807692
-0.00898191
-0.0299548
-0.0309729
-0.021991
-0.0231222
-0.0341629
-0.0450905
-0.0509729
-0.0267873
-0.0525339
-0.0632127
-0.0738235
-0.0394117
-0.0449773
-0.0605656
-0.0860407
-0.0615384
-0.0669683
-0.0873982
-0.0877601
-0.0581448
-0.0635294
-0.0737783
-0.0689593
-0.0441629
-0.029276
-0.0345701
-0.0348416
0.0100226
0.0598869
0.089638
0.164344
0.289163
0.503959
0.748688
1.01839
1.31303
1.53265
1.55233
1.51695
0.931606
0.466177
-0.00929855
-0.254842
-0.225294
-0.105747
-0.0710859
-0.0714931
-0.0819909
-0.0825339
-0.0880542
-0.118597
-0.129231
-0.124706
-0.120249
-0.120837
-0.141335
-0.126765
-0.127285
-0.137828
-0.138348
-0.123823
-0.104276
-0.104751
-0.110249
-0.120588
-0.100882
-0.0911764
-0.10147
-0.0916741
-0.106832
-0.0821266
-0.0923981
-0.0976244
-0.0878732
-0.103077
-0.108303
-0.118597
-0.108869
-0.0892759
-0.109615
-0.139955
-0.120204
-0.095475
-0.115746
-0.126063
-0.0864026
-0.0517646
-0.0570813
-0.0624207
-0.0427149
-0.0329637
-0.0132579
-0.0285746
-0.0288914
0.0158145
0.000565648
0.000316784
0.0250906
0.0448643
0.0197286
-0.000542954
0.0242308
0.0490046
0.0837104
0.0785068
0.0683258
0.0830995
0.0828054
0.0726471
0.0674887
0.0922851
0.117149
0.0969231
0.0916968
0.0864253
0.100928
0.0950678
0.0686425
0.0566289
0.0485068
0.0290497
0.00321263
-0.0136652
0.00377826
-0.0138009
-0.0405204
-0.0703168
-0.057896
-0.054819
-0.0792082
-0.0935973
-0.0934842
-0.0885747
-0.0986878
-0.118688
-0.0786199
-0.0684616
-0.0883032
-0.103032
-0.0925113
-0.0717874
-0.0906561
-0.0890498
-0.0815385
-0.0578281
-0.0528507
-0.0615159
-0.0692082
-0.0267648
-0.0294118
-0.0247964
-0.0223077
-0.00192311
0.0023755
-0.0132354
-0.0233259
-0.013258
0.00187774
-0.00298651
-0.0129413
-0.00289604
0.0170135
-0.0131675
-0.0183485
-0.00846164
-0.00855213
-0.0138236
-0.0241178
-0.029525
-0.0199774
-0.0354525
-0.0559729
-0.061448
-0.0419231
-0.0474209
-0.0630996
-0.0637331
-0.0493666
-0.0550227
-0.0757014
-0.0665611
-0.0572625
-0.0479865
-0.0688009
-0.0846154
-0.0805657
-0.0514254
-0.0673756
-0.0783711
-0.0893213
-0.0652715
-0.0664028
-0.0923983
-0.0883711
-0.0692987
-0.0703847
-0.0963576
-0.102172
-0.0729412
-0.07862
-0.0992309
-0.104796
-0.0752037
-0.0806562
-0.0959503
-0.106063
-0.086154
-0.0761313
-0.0859956
-0.105769
-0.0906336
-0.09043
-0.0851359
-0.0897965
-0.0742535
-0.0536653
-0.0531223
-0.0625793
-0.0620589
-0.0465385
-0.0359955
-0.0704073
-0.049706
-0.0390272
-0.0283259
0.0122171
0.0827149
0.203213
0.35862
0.578937
0.86414
1.15925
1.42425
1.569
1.55864
1.34314
0.942376
0.446086
0.279366
-0.282738
-0.255385
-0.153643
-0.122444
-0.11681
-0.121697
-0.127149
-0.157919
-0.163756
-0.14948
-0.160091
-0.180498
-0.20052
-0.184955
-0.174163
-0.197172
-0.209321
-0.215815
-0.211991
-0.223145
-0.239163
-0.220045
-0.216018
-0.227443
-0.23457
-0.227149
-0.224208
-0.224955
-0.23957
-0.248597
-0.227398
-0.231154
-0.229774
-0.218235
-0.211584
-0.219819
-0.222986
-0.201154
-0.179299
-0.152489
-0.150679
-0.143846
-0.117014
-0.105204
-0.103326
-0.101448
-0.0695475
-0.0576244
-0.0456787
-0.0485973
-0.0315158
-0.00447963
-0.0123529
-0.0152262
0.00196833
0.0141629
0.0313575
0.00852942
0.020724
0.0429412
0.055181
0.0373077
0.0494796
0.0416742
0.0637557
0.0357014
0.0625792
0.0794344
0.0811312
0.0677601
0.0442986
0.0507239
0.0519909
0.0380543
0.0340271
-0.000135779
0.0055203
-0.0140046
-0.0386199
-0.0383484
-0.0381222
-0.0429412
-0.0778281
-0.0728507
-0.0578054
-0.0677375
-0.0826923
-0.0826018
-0.0673529
-0.0621267
-0.0719683
-0.0817873
-0.0664706
-0.0662443
-0.0809955
-0.0907014
-0.060362
-0.0347738
-0.0388462
-0.0424435
-0.0303168
-0.00714934
0.00223981
0.0128054
0.0646606
0.122285
0.149864
0.19638
0.291041
0.403597
0.495407
0.589615
0.708846
0.828642
0.95862
1.06348
1.16824
1.27812
1.3029
1.2576
1.21742
1.18222
1.11701
0.966697
0.916403
0.656244
0.486086
0.340882
0.255588
0.235294
0.240023
0.199683
0.219299
0.318914
0.49362
0.598348
0.468122
0.167896
-0.0723077
-0.187557
-0.242986
-0.263348
-0.28362
-0.298824
-0.35405
-0.384321
-0.389615
-0.389864
-0.4
-0.400136
-0.405158
-0.400181
-0.415136
-0.430045
-0.44991
-0.429729
-0.439525
-0.459186
-0.463914
-0.478507
-0.4831
-0.492692
-0.502149
-0.491652
-0.496131
-0.515566
-0.530068
-0.519525
-0.493982
-0.513348
-0.527647
-0.5119
-0.496267
-0.500611
-0.500113
-0.464547
-0.429072
-0.423439
-0.412828
-0.402194
-0.351538
-0.33095
-0.315407
-0.274932
-0.224366
-0.198869
-0.173665
-0.143529
-0.103326
-0.0681674
-0.0679411
-0.0777828
-0.0477375
-0.0177828
-0.0278506
-0.0378733
-0.0178959
-0.00800899
-0.0431221
-0.0483031
-0.033371
-0.0234388
-0.0436425
-0.0590044
-0.0448189
-0.0461764
-0.0484615
-0.0669004
-0.076561
-0.0674434
-0.079457
-0.0971266
-0.0895248
-0.0602036
-0.0852036
-0.11095
-0.109547
-0.0876696
-0.0760632
-0.10457
-0.102715
-0.0853393
-0.0573755
-0.0738913
-0.0748868
-0.0352714
-0.00506777
-0.0293891
-0.0233031
-0.002104
-0.00101805
0.00493218
-0.00429857
0.0111087
0.0308598
0.0203847
0.00361994
0.00601816
0.0228733
0.0294118
0.0158145
0.0171494
0.0483032
0.0545702
0.0263123
0.0187104
0.0215837
0.0289593
0.025
0.0198416
0.0491629
0.0533484
0.0274887
0.011448
0.0253846
0.0390724
0.0325792
0.0159729
0.00932127
0.0277149
0.0260634
0.0242308
0.0123078
0.0254299
0.0235069
0.0111991
0.00389147
0.0016064
0.0242761
0.00178741
-0.00592753
0.00626703
-0.0015384
-0.00438908
-0.0173981
-0.015475
0.00635757
0.00807703
-0.0202488
-0.0335519
-0.0318099
-0.0352035
-0.0335746
-0.0318325
-0.0100452
-0.0080995
-0.0210181
-0.0336199
-0.0161312
-0.0235067
-0.0457918
-0.0578054
-0.0446153
-0.0312217
-0.0676018
-0.0588008
-0.0299094
-0.0107691
-0.0464026
-0.0619003
-0.0772171
-0.0625564
-0.0428958
-0.0580994
-0.04819
-0.0433257
-0.0535294
-0.0487782
-0.0490044
-0.0193438
-0.0396606
-0.0500226
-0.0304072
0.0191176
0.118575
0.2231
0.417579
0.702149
0.996765
1.26131
1.50588
1.6605
1.62011
1.24482
1.09957
0.204208
-0.221244
-0.306652
-0.207059
-0.0924209
-0.0627602
-0.0880317
-0.123258
-0.118394
-0.113575
-0.118688
-0.143824
-0.143937
-0.124118
-0.124253
-0.144299
-0.154434
-0.14957
-0.134706
-0.139751
-0.139864
-0.114977
-0.100113
-0.125226
-0.140317
-0.130385
-0.110407
-0.11052
-0.115588
-0.120701
-0.0908145
-0.0910407
-0.11129
-0.116516
-0.0917647
-0.0919005
-0.116968
-0.127059
-0.107195
-0.117376
-0.117579
-0.107805
-0.0879865
-0.0781675
-0.0985068
-0.0889819
-0.0547059
-0.0308824
-0.057896
-0.0660181
-0.00549778
0.00861987
-0.0135973
-0.0316063
-0.00925342
0.0193891
0.0301583
0.0181448
0.018371
0.0647963
0.0758144
0.0762669
0.0864932
0.106765
0.126968
0.0970135
0.112036
0.122127
0.11224
0.0973303
0.0625565
0.0678959
0.0333484
0.0188009
-0.000746645
-0.0103168
-0.0199095
-0.0445475
-0.0742082
-0.0838009
-0.0734842
-0.0681675
-0.0978507
-0.117443
-0.107127
-0.111855
-0.106765
-0.116584
-0.11629
-0.111063
-0.110837
-0.105633
-0.0754299
-0.0701358
-0.0798869
-0.0895928
-0.064457
-0.0492987
-0.0491177
-0.0487783
-0.0479412
-0.0366063
-0.0543665
-0.0759276
-0.0612217
-0.0452489
-0.0532353
-0.0556788
-0.0533484
-0.0226697
-0.0125792
-0.0166969
-0.0278733
-0.00938915
-0.0104299
-0.0461086
-0.0616742
-0.0573077
-0.0530769
-0.0638688
-0.0847512
-0.045724
-0.0267648
-0.0428507
-0.0539593
-0.0600905
-0.0462444
-0.0474209
-0.0636878
-0.0747964
-0.0458372
-0.06181
-0.0777376
-0.0835521
-0.0743439
-0.0751131
-0.100837
-0.0814027
-0.0617874
-0.0471493
-0.077534
-0.0628055
-0.0579865
-0.0581448
-0.0583937
-0.0885747
-0.0736652
-0.0638462
-0.079095
-0.0843213
-0.0645475
-0.0446606
-0.0597511
-0.0748869
-0.0448869
0.00509046
0.0601357
0.160204
0.335339
0.595407
0.895452
1.19572
1.48604
1.66138
1.60674
1.30213
0.827602
0.353145
-0.146312
-0.410815
-0.330113
-0.199321
-0.123439
-0.127602
-0.136787
-0.110815
-0.0999548
-0.113982
-0.113054
-0.102172
-0.106267
-0.12552
-0.159842
-0.169276
-0.148688
-0.148167
-0.16276
-0.162489
-0.142308
-0.142262
-0.157217
-0.147149
-0.116946
-0.116765
-0.131719
-0.136765
-0.111787
-0.116742
-0.121697
-0.121742
-0.111765
-0.101697
-0.111697
-0.126697
-0.116629
-0.0965158
-0.0814932
-0.0964253
-0.0812896
-0.0660407
-0.0757692
-0.080543
-0.0852941
-0.0650679
-0.0499095
-0.0647737
-0.0497059
-0.014638
-0.00447963
-0.0144117
-0.0293665
0.005724
0.0358597
0.025905
0.0209728
0.0560181
0.0608597
0.0503393
0.0443665
0.0528733
0.0754751
0.0867194
0.0716063
0.075362
0.09319
0.0906787
0.068914
0.0590724
0.0814027
0.0593439
0.0401583
0.0262669
0.0418778
0.0321493
0.00221717
-0.017715
-0.0176245
-0.0325113
-0.0724208
-0.0822398
-0.0819005
-0.0766063
-0.0961991
-0.120792
-0.105339
-0.0947738
-0.114389
-0.119027
-0.113575
-0.0980769
-0.107579
-0.132104
-0.126516
-0.0958824
-0.115249
-0.129683
-0.133914
-0.102873
-0.0913123
-0.0990951
-0.0957919
-0.0760634
-0.0599095
-0.0725566
-0.0795023
-0.0467195
-0.0252715
-0.0209502
-0.0288688
-0.0190272
-0.020362
-0.0314027
-0.0519005
-0.0321494
-0.00739822
-0.022715
-0.0280317
-0.0383258
-0.0186652
-0.0189593
-0.0394344
-0.0400226
-0.0207014
-0.0315159
-0.0524434
-0.0583484
-0.0441629
-0.0250679
-0.031086
-0.0321041
-0.0431222
-0.0391403
-0.0652037
-0.0911765
-0.0821946
-0.0532354
-0.0642761
-0.0752942
-0.0863123
-0.0672625
-0.0681675
-0.0890951
-0.0700227
-0.0408371
-0.0516516
-0.0724435
-0.0630543
-0.0485295
-0.0489593
-0.0743666
-0.0797059
-0.07
-0.0651132
-0.0802489
-0.0903394
-0.0752489
-0.0501358
-0.0649774
-0.0947512
-0.0794797
-0.0491177
-0.0537783
-0.0684164
-0.0579412
-0.0424661
-0.0369684
-0.0263123
0.0393212
0.144909
0.265498
0.456063
0.736652
1.07735
1.34808
1.53871
1.60437
1.43507
1.02572
0.546312
0.396923
-0.247511
-0.281946
-0.186425
-0.12595
-0.0855204
-0.0751358
-0.0798191
-0.109548
-0.0843213
-0.0841856
-0.104095
-0.12405
-0.134005
-0.128982
-0.139027
-0.164072
-0.154118
-0.134186
-0.144163
-0.169163
-0.174186
-0.14914
-0.154186
-0.179253
-0.194276
-0.149389
-0.144548
-0.149706
-0.164864
-0.134887
-0.114864
-0.129864
-0.14491
-0.119955
-0.1
-0.0951357
-0.105249
-0.110294
-0.0902488
-0.0952262
-0.10009
-0.0849095
-0.0747737
-0.0547058
-0.0596832
-0.0546606
-0.0297737
-0.0250226
-0.0307692
-0.0420362
0.00588237
0.0226018
0.0180543
0.00717194
0.015181
0.0224661
-0.00513575
-0.00676469
0.0136425
0.0311991
0.0309955
0.017172
0.0386199
0.0496606
0.0604525
0.0507466
0.0460634
0.066448
0.0618326
0.0420815
0.0324208
0.0478055
0.0581448
0.0235973
0.00909504
0.0145475
-0.00499998
-0.0194796
-0.043914
-0.033371
-0.0328733
-0.0523982
-0.096991
-0.0965158
-0.0859728
-0.110362
-0.129774
-0.12414
-0.103484
-0.102941
-0.132489
-0.1419
-0.111222
-0.105588
-0.114932
-0.124321
-0.123643
-0.112896
-0.111923
-0.11552
-0.0985294
-0.0756561
-0.0815837
-0.0910407
-0.054276
-0.0265385
-0.0235973
-0.0215611
-0.00642534
0.0165384
0.0088235
-0.0119457
-0.017896
0.00662895
0.0064027
-0.0138688
-0.0190498
-0.00911766
-0.0143892
-0.0346833
-0.0350905
-0.0255204
-0.0210634
-0.0366742
-0.0473756
-0.0331448
-0.023982
-0.0397964
-0.0656335
-0.0564933
-0.0374209
-0.0633937
-0.0692761
-0.0600905
-0.0409276
-0.0417874
-0.0475113
-0.0531901
-0.0237104
-0.0442308
-0.0646154
-0.0599321
-0.0350905
-0.0252488
-0.0453394
-0.040362
-0.020181
-0.0199773
-0.0397964
-0.0445249
-0.0591855
-0.0688235
-0.0685068
-0.0732353
-0.0428507
-0.0173756
-0.00192305
0.0234842
0.123914
0.259412
0.439819
0.685362
0.96595
1.28163
1.51733
1.65803
1.62873
1.42946
1.00027
0.521041
0.0267873
-0.287353
-0.341539
-0.275656
-0.244819
-0.123869
-0.0979638
-0.122104
-0.13129
-0.110362
-0.109434
-0.118552
-0.127692
-0.131742
-0.110792
-0.109887
-0.129005
-0.133167
-0.127376
-0.121629
-0.136041
-0.135407
-0.109887
-0.119548
-0.149231
-0.173891
-0.153688
-0.138507
-0.158371
-0.16319
-0.128032
-0.127964
-0.15276
-0.157444
-0.152104
-0.126765
-0.136561
-0.141425
-0.126176
-0.115792
-0.125452
-0.130113
-0.114706
-0.0992534
-0.0988235
-0.123326
-0.102783
-0.0722172
-0.0615837
-0.0609503
-0.0602489
-0.0296381
-0.0240724
-0.0335747
-0.0279638
0.022647
0.0132126
-0.0161991
-0.000701383
0.029819
0.055181
0.0405656
0.0459276
0.0513348
0.0767647
0.082104
0.0723303
0.0776244
0.103032
0.098371
0.0886199
0.0938914
0.0991176
0.0793212
0.0594796
0.0496606
0.064932
0.0602714
0.0206108
0.00599539
0.00628951
0.0115384
-0.0382354
-0.0530091
-0.0429186
-0.0381901
-0.0788915
-0.0952037
-0.0974435
-0.100815
-0.125339
-0.141267
-0.123235
-0.110498
-0.122715
-0.152511
-0.145385
-0.111177
-0.110068
-0.127828
-0.115385
-0.092534
-0.0787784
-0.0937784
-0.0973304
-0.0747286
-0.0514254
-0.0682353
-0.0759729
-0.0356336
-0.00735302
-0.0312444
-0.0366064
-0.0322399
-0.0124887
-0.0276019
-0.0273304
-0.0220136
0.00821263
-0.0215838
-0.0412218
-0.0409503
-0.0206335
-0.0303847
-0.0651132
-0.0698417
-0.0595476
-0.0692761
-0.0740498
-0.0888915
-0.04362
-0.0533259
-0.0480996
-0.0528734
-0.0476245
-0.0424662
-0.0374888
-0.052534
-0.0374888
-0.0274661
-0.0225114
-0.0325566
-0.0725793
-0.0676697
-0.0677602
-0.077896
-0.0579639
-0.043077
-0.0582354
-0.0884616
-0.0837557
-0.0690951
-0.064344
-0.0845928
-0.0949548
-0.0803394
-0.0707014
-0.081086
-0.101493
-0.0918778
-0.0872851
-0.077715
-0.088077
-0.0785521
-0.0790272
-0.0794796
-0.0898417
-0.100181
-0.0705882
-0.080905
-0.0661312
-0.0713122
-0.0564706
-0.0615385
-0.0816063
-0.0716289
-0.0315385
-0.0363801
-0.0761764
-0.0859049
-0.0554977
-0.04
-0.0544117
-0.0538235
-0.03319
-0.0175113
-0.0369457
-0.0563575
-0.0607466
-0.0402262
-0.0397737
-0.0494343
-0.0391176
-0.0139366
0.0262218
0.0864027
0.186584
0.341606
0.546561
0.776539
1.02636
1.32118
1.54097
1.60591
1.59084
1.08581
0.685656
0.240498
-0.154593
-0.304638
-0.214706
-0.124751
-0.0797963
-0.0748189
-0.0799321
-0.100068
-0.115226
-0.120339
-0.115475
-0.120633
-0.145633
-0.160611
-0.150611
-0.145656
-0.165611
-0.165498
-0.130317
-0.115068
-0.119977
-0.124842
-0.139728
-0.119593
-0.139502
-0.134502
-0.144502
-0.124547
-0.129661
-0.144819
-0.140045
-0.120158
-0.140271
-0.160249
-0.145317
-0.120339
-0.135407
-0.145475
-0.13052
-0.10552
-0.11052
-0.125588
-0.115701
-0.0807692
-0.0857918
-0.0960859
-0.101335
-0.0866063
-0.0769004
-0.0771267
-0.072285
-0.0424886
-0.0177375
-0.018009
-0.0432805
-0.028552
0.0111313
0.0155204
-0.0154977
0.00803174
0.0407919
0.0431675
0.0430317
0.0415385
0.0490724
0.0711991
0.0539593
0.0483258
0.0747512
0.0583937
0.0436652
0.0395701
0.0501357
0.0654298
0.0454977
0.0305204
0.0355883
0.0506335
0.0307692
0.00601812
0.00128959
0.0114706
-0.0233937
-0.05319
-0.0678959
-0.0626018
-0.0922851
-0.121855
-0.10638
-0.0958824
-0.105452
-0.125045
-0.124638
-0.0992081
-0.0888009
-0.108416
-0.118009
-0.112466
-0.106538
-0.110249
-0.108416
-0.110588
-0.0716063
-0.0865158
-0.085181
-0.082828
-0.0551583
-0.0626471
-0.0524887
-0.0391402
-0.0178054
-0.0282805
-0.0445022
-0.0403846
-0.0208145
-0.0159955
-0.0162217
-0.0215385
-0.00199094
0.00253396
-0.0180769
-0.0288009
-0.029457
-0.010181
-0.031086
-0.0271041
-0.0430543
-0.0390724
-0.0701131
-0.0860859
-0.0470362
-0.0280316
-0.0540497
-0.0802715
-0.0714932
-0.0327149
-0.0438914
-0.0702036
-0.0614706
-0.0426697
-0.0388235
-0.0699773
-0.0859729
-0.0719231
-0.0628507
-0.0686878
-0.0643891
-0.0600452
-0.0606109
-0.0661312
-0.0815611
-0.0519231
-0.0322398
-0.0375792
-0.0578507
-0.0380769
-0.0432805
-0.0384389
-0.0435973
-0.0388009
-0.0389819
-0.0441629
-0.0645928
-0.0550679
-0.0405883
-0.0362444
-0.0471267
0.00680991
0.110407
0.218484
0.37629
0.438756
1.00079
1.30256
1.52382
1.59952
1.46486
1.10466
0.644208
0.138959
-0.236154
-0.351131
-0.290928
-0.220181
-0.178643
-0.156335
-0.173846
-0.190136
-0.200747
-0.186041
-0.196335
-0.21672
-0.217014
-0.202466
-0.208529
-0.225385
-0.232805
-0.240226
-0.236787
-0.262195
-0.26681
-0.266154
-0.245453
-0.249751
-0.253891
-0.237783
-0.216606
-0.205362
-0.229095
-0.207715
-0.171244
-0.184729
-0.208281
-0.201674
-0.180068
-0.183371
-0.186742
-0.164977
-0.148167
-0.146267
-0.144299
-0.137285
-0.120249
-0.103303
-0.111357
-0.119389
-0.102398
-0.0852489
-0.0731222
-0.0810634
-0.0540045
-0.021991
-0.0400227
-0.0481448
-0.0211991
0.0157013
0.00764705
0.00432126
0.0109502
0.0325566
0.0440498
0.050543
0.0520136
0.0832806
0.104367
0.0852715
0.0812896
0.102195
0.112896
0.0934842
0.0690272
0.0745475
0.0599095
0.0301584
0.00536199
0.000610858
-0.00414026
-0.0288914
-0.0587556
-0.0536199
-0.0485068
-0.0683937
-0.0932579
-0.0780543
-0.0578507
-0.0727602
-0.0876244
-0.102534
-0.087353
-0.0671268
-0.0719231
-0.06681
0.0182578
0.0533257
0.0634388
0.0685067
0.133688
0.213914
0.294366
0.380226
0.466538
0.578665
0.681086
0.750973
0.872195
1.01946
1.1371
1.25405
1.31437
1.30269
1.25876
1.21312
1.1669
1.05604
0.895566
0.705271
0.650023
0.384751
0.24948
0.15914
0.133778
0.148371
0.137919
0.137534
0.242127
0.401674
0.531222
0.500747
0.280158
0.0396832
-0.125815
-0.19629
-0.226878
-0.227466
-0.238009
-0.28353
-0.31905
-0.344525
-0.34491
-0.36543
-0.390905
-0.401267
-0.391606
-0.392036
-0.412489
-0.437851
-0.42819
-0.438552
-0.463801
-0.479027
-0.484253
-0.474412
-0.489548
-0.484638
-0.479706
-0.464751
-0.464819
-0.499932
-0.500023
-0.464977
-0.46
-0.469932
-0.469728
-0.449593
-0.444434
-0.454185
-0.458959
-0.413642
-0.398326
-0.423054
-0.412805
-0.372375
-0.346923
-0.326561
-0.311109
-0.260588
-0.245113
-0.22957
-0.209027
-0.173416
-0.142737
-0.132172
-0.126606
-0.116154
-0.0908144
-0.0905882
-0.0954072
-0.0903393
-0.0602714
-0.0603167
-0.0603845
-0.0754977
-0.0506561
-0.0459275
-0.0511991
-0.0464026
-0.0365836
-0.0317873
-0.047104
-0.0624434
-0.0526244
-0.0327375
-0.0278054
-0.0476017
-0.0473076
-0.0218778
-0.0414026
-0.0607692
-0.0547963
-0.0384162
-0.0266289
-0.0445248
-0.0419909
-0.0189592
-0.00556552
-0.00665149
-0.00714925
0.0228734
0.0333712
0.0240725
0.0296381
0.0401132
0.0654073
0.0554977
0.0499774
0.058733
0.0767421
0.0694797
0.0559276
0.0617421
0.0822399
0.0826697
0.0731222
0.0584841
0.078914
0.0848869
0.0714932
0.07362
0.0956335
0.0767421
0.0567873
0.0459503
0.0698191
0.0885973
0.0722173
0.0606561
0.0738688
0.081878
0.0692988
0.0709956
0.0766065
0.0809277
0.0538915
0.0405883
0.0414255
0.0323304
0.0133711
0.00771503
-0.000746503
0.00751142
0.00624445
-0.0104976
-0.0127375
-0.0100225
-0.00214922
-0.0192306
-0.0262669
-0.00321259
0.00486431
-0.0171719
-0.0141402
-0.0109954
-0.012828
-0.0197058
-0.0365384
-0.0333484
0.00481907
-0.0270814
-0.0338235
-0.020475
0.00282814
-0.0288008
-0.0303393
-0.0117873
-0.00314474
0.000633553
-0.0104298
-0.0314931
-0.0124207
-0.0182578
-0.0539818
-0.0546153
-0.0501583
-0.0406108
-0.0460859
-0.0465837
-0.0419909
-0.0223529
-0.0477601
-0.0530995
-0.0435294
-0.0290045
-0.0395701
-0.0401584
-0.0257692
-0.0213348
-0.0419005
-0.052534
-0.0432127
-0.0239367
-0.0397512
-0.0606561
-0.0665385
-0.0423982
-0.0283484
-0.0493665
-0.055362
-0.0264706
-0.0225566
-0.0337557
-0.0399774
-0.0261539
-0.0123982
-0.0236878
-0.0399548
-0.0411765
-0.0323756
-0.0386199
-0.0348643
-0.026086
-0.0122851
-0.0384615
-0.044638
-0.0456109
-0.0214932
-0.0223303
-0.0481901
-0.0440272
-0.0247964
-0.0204751
-0.0410634
-0.0515837
-0.0421041
-0.0326018
-0.0482127
-0.0637783
-0.0441855
-0.0295701
-0.0349774
-0.0554072
-0.0609729
-0.0314932
-0.0370136
-0.0474887
-0.0128959
0.0167873
0.0214932
0.0310181
0.135566
0.295204
0.514864
0.77448
1.06412
1.35371
1.54328
1.50787
1.45244
0.731991
0.236538
-0.169005
-0.289615
-0.190204
-0.0707919
-0.0764027
-0.107081
-0.112715
-0.108258
-0.128846
-0.169434
-0.145023
-0.125475
-0.14586
-0.161267
-0.151697
-0.142059
-0.142466
-0.147941
-0.138213
-0.128439
-0.13371
-0.148959
-0.154072
-0.134321
-0.129502
-0.129615
-0.144796
-0.129842
-0.114819
-0.130045
-0.130272
-0.120475
-0.110747
-0.121018
-0.136425
-0.121787
-0.0921494
-0.112534
-0.127964
-0.113439
-0.0993666
-0.0807919
-0.0729639
-0.071267
-0.0459729
-0.0420815
-0.0642987
-0.0666064
-0.0478734
-0.0370136
-0.0438462
-0.0385521
-0.007353
0.0085746
0.00889135
0.00886874
0.0238461
0.0438914
0.0488914
0.0240045
0.0541855
0.0742986
0.0744117
0.069638
0.0799321
0.0952941
0.0956561
0.0859276
0.0911538
0.116403
0.116742
0.0971493
0.0925565
0.0979185
0.0732579
0.0385068
0.0187556
0.0291402
0.0394796
0.0148416
-0.0197738
-0.0343439
-0.0290045
-0.0286652
-0.0434163
-0.0331448
-0.0228281
-0.0525566
-0.0723303
-0.0670362
-0.0417195
-0.0315158
-0.061448
-0.0712896
-0.0561086
-0.0509276
-0.0856561
-0.100317
-0.045
-0.0395701
-0.0687104
-0.0672851
-0.0447964
-0.036086
-0.0410634
-0.034819
-0.0227376
-0.0108371
-0.00925344
-0.00606339
0.00986421
0.0340045
0.0275791
0.0115384
0.0160633
0.0356108
0.0349547
-0.000814527
0.00348412
0.0277601
0.036923
-0.0138236
-0.0245249
-0.015181
-0.0107919
-0.0313575
-0.0368326
-0.0172851
-0.0226471
-0.0629864
-0.0583484
-0.0486199
-0.0538462
-0.0540045
-0.0692534
-0.064457
-0.0395701
-0.0647059
-0.0899095
-0.0550679
-0.035181
-0.0453167
-0.0654525
-0.0655656
-0.0307692
-0.0310181
-0.0362443
-0.0314253
-0.0165837
0.01319
0.0879412
0.19267
0.367534
0.632466
0.932421
1.24244
1.50258
1.52769
1.27778
0.797941
0.298235
-0.151358
-0.365905
-0.325475
-0.195023
-0.0944344
-0.0788009
-0.113167
-0.107534
-0.101719
-0.111018
-0.105249
-0.109389
-0.118462
-0.117534
-0.141629
-0.155701
-0.134796
-0.113824
-0.12276
-0.136674
-0.140588
-0.124434
-0.138416
-0.137443
-0.116561
-0.0907919
-0.120091
-0.134457
-0.133778
-0.118145
-0.122692
-0.122285
-0.131878
-0.101471
-0.096086
-0.120656
-0.125272
-0.095
-0.0947738
-0.104525
-0.0992308
-0.0738688
-0.0635747
-0.0733485
-0.0831222
-0.0678281
-0.0525792
-0.0424661
-0.0571268
-0.0467874
-0.0115838
-0.0264028
-0.0361539
-0.0358824
-0.0155883
-0.0103168
-0.00515842
0.0100452
0.0403393
0.0456561
0.0360181
0.0414253
0.0567873
0.0519683
0.0417647
0.0560407
0.0747285
0.0623755
0.0438461
0.0241176
0.0232579
0.026199
-0.0110861
-0.0422851
-0.0465159
-0.0585747
-0.0649548
-0.0888689
-0.0828055
-0.0672852
-0.0920589
-0.116878
-0.136697
-0.0963802
-0.101063
-0.120747
-0.130362
-0.0999775
-0.0945928
-0.119163
-0.113665
-0.103167
-0.0976245
-0.0871946
-0.091629
-0.0810182
-0.0603621
-0.0846607
-0.0839593
-0.0630996
-0.0418779
-0.0501811
-0.0527829
-0.0491856
-0.0291404
-0.0376924
-0.0401132
-0.0224887
-0.00599551
-0.0166969
-0.0447059
-0.0497738
-0.0158145
-0.00658375
-0.0369005
-0.0468326
-0.0316742
-0.0115385
-0.0464706
-0.0463801
-0.0313349
-0.031267
-0.0463349
-0.0515838
-0.0368327
-0.0270816
-0.0223757
-0.0477376
-0.063077
-0.0433712
-0.043801
-0.0793214
-0.0548417
-0.0404073
-0.0459729
-0.0564933
-0.061991
-0.0375793
-0.0382127
-0.0539141
-0.0496381
-0.0553621
-0.0511313
-0.0520136
-0.0629186
-0.063801
-0.0447738
-0.0507919
-0.0617195
-0.0625566
-0.0483258
-0.0539819
-0.0697059
-0.0653847
-0.0509503
-0.0614706
-0.0869231
-0.0722851
-0.0674661
-0.0626697
-0.0628281
-0.0578281
-0.0527828
-0.0526697
-0.0676245
-0.0625566
-0.0323756
-0.0371494
-0.06181
-0.0663801
-0.0608598
-0.0453168
-0.0397059
-0.0141177
0.0764479
0.212014
0.342647
0.538235
0.803756
1.0943
1.35471
1.57002
1.61036
1.38068
0.950905
0.451041
0.296086
-0.228733
-0.228733
-0.148778
-0.0787783
-0.0588236
-0.0639367
-0.0941629
-0.109321
-0.104457
-0.0946607
-0.119864
-0.144977
-0.12009
-0.115294
-0.125407
-0.155588
-0.130724
-0.125701
-0.135701
-0.150633
-0.15543
-0.140204
-0.145045
-0.149842
-0.14957
-0.129299
-0.129005
-0.148778
-0.148575
-0.138416
-0.123258
-0.123077
-0.118009
-0.107896
-0.102851
-0.102873
-0.122828
-0.0927376
-0.0776923
-0.0826924
-0.112624
-0.0924887
-0.0924661
-0.0924435
-0.0924435
-0.067353
-0.0372851
-0.0373303
-0.0623982
-0.0674887
-0.0325566
-0.0178734
-0.0386426
-0.0249774
-0.0120589
-0.000248894
-0.00970592
-0.015543
-0.0125566
-4.52697e-05
-0.0167874
-0.0265385
-0.0138914
0.00595021
0.00144794
0.0125792
0.0283031
0.0637782
0.0640724
0.0592986
0.0645927
0.0749774
0.0553167
0.0306334
0.0109728
0.0514027
0.0519004
0.017285
-0.00233035
-0.00187786
-0.00647063
-0.0360634
-0.0457014
-0.0452942
-0.044819
-0.0693439
-0.0939367
-0.0783937
-0.062896
-0.082353
-0.08681
-0.0962896
-0.0858598
-0.10043
-0.115045
-0.124661
-0.104186
-0.103597
-0.112624
-0.111063
-0.0788914
-0.0707693
-0.0865611
-0.0661086
-0.0344118
-0.0217647
-0.0390045
-0.0373982
-0.0127602
-0.000362039
-0.0337104
-0.0194797
-0.00524889
-0.000633523
-0.0157014
-0.0258371
-0.0210407
0.00364253
-0.00676472
-0.0121946
-0.0226471
-0.013258
-0.00891405
-0.0146154
-0.0303168
-0.00597288
-0.01181
-0.0375792
-0.0384163
-0.0442534
-0.0550679
-0.085905
-0.0717874
-0.0626245
-0.0583711
-0.0690951
-0.0798191
-0.0654525
-0.0460182
-0.0515385
-0.0620363
-0.0573982
-0.0226018
-0.0477376
-0.0628507
-0.0529186
-0.0328733
-0.0329186
-0.0528507
-0.052828
-0.0527602
-0.0477828
-0.0577375
-0.0577602
-0.0377602
-0.0576018
-0.0674887
-0.0473077
-0.0271493
-0.0120588
-0.0119005
0.0184389
0.103801
0.249072
0.414389
0.62457
0.929864
1.25029
1.50577
1.60122
1.4317
1.01719
0.48776
-0.0116968
-0.151086
-0.295407
-0.199638
-0.143824
-0.112896
-0.0969457
-0.0909502
-0.114932
-0.113891
-0.107896
-0.0969457
-0.121063
-0.15009
-0.119072
-0.10319
-0.127398
-0.141652
-0.125995
-0.110362
-0.114842
-0.129389
-0.123891
-0.103394
-0.133054
-0.13776
-0.142511
-0.112262
-0.112014
-0.116833
-0.121629
-0.106493
-0.0913348
-0.106312
-0.106244
-0.101109
-0.0959728
-0.100837
-0.115566
-0.0902489
-0.0750226
-0.0897285
-0.0843439
-0.0688914
-0.0434163
-0.038009
-0.0426244
-0.0322398
-0.0219231
-0.0214932
-0.0259955
-0.025543
0.00990951
0.0203168
0.0157692
0.0212444
0.0316969
0.0472172
0.0575339
0.0427828
0.0781222
0.0835973
0.0639367
0.0742987
0.0846833
0.105045
0.0953847
0.0755204
0.0755883
0.100634
0.0857919
0.0608824
0.0560408
0.0761765
0.0562218
0.0213122
0.0113801
0.0165159
0.00167425
-0.0331674
-0.0428733
-0.0375339
-0.0422398
-0.0669457
-0.0666515
-0.0612895
-0.0358823
-0.0504298
-0.0600905
-0.0547737
-0.039457
-0.0441629
-0.0788461
-0.043552
-0.0282579
-0.0229638
-0.0327149
-0.052285
-0.0568325
-0.0462669
-0.0454072
-0.0388913
0.00848423
0.00178736
-0.0286651
-0.0327149
-0.0105203
0.0121946
0.00404979
-0.0110633
0.011448
0.0167874
-0.00359729
-0.0147059
-0.010362
-0.000723958
-0.00597285
-0.0212217
-0.0214479
-0.0166063
-0.0268326
-0.0420588
-0.0472624
-0.0274208
-0.0377376
-0.0430317
-0.0433484
-0.033733
-0.0191403
-0.0445928
-0.03
-0.0153394
-0.0256787
-0.0510407
-0.0413575
-0.0167647
0.00785068
-0.0125792
-0.0179186
-0.0132806
-0.0086199
-0.0089819
-0.029457
-0.009819
-0.000203624
-0.0155883
-0.0260634
-0.0265159
-0.0269005
-0.0323529
-0.0327602
-0.03319
-0.0286199
-0.0390045
-0.0693439
-0.0596154
-0.0348416
-0.025
-0.045181
-0.0552715
-0.0552715
-0.0402262
-0.0551584
-0.0549774
-0.0597285
-0.0394797
-0.0441855
-0.0639593
-0.0287104
-0.0033032
-0.0180091
-0.0527149
-0.0374208
-0.0171267
-0.0267421
-0.0463123
-0.0408597
-0.000429899
0.00490947
-0.0197738
-0.0293666
-0.00398193
-0.0135747
-0.0183485
-0.00814484
-0.00298648
0.0220588
0.00194566
-0.0132806
-0.00855207
-0.0038462
-0.0391403
-0.0447059
-0.0356561
-0.017172
-0.0344344
-0.067534
-0.0815837
-0.0617195
-0.0580543
-0.0754525
-0.0783258
-0.070724
-0.0915611
-0.105294
-0.0870362
-0.0571041
-0.0815837
-0.0865611
-0.0820136
-0.0623982
-0.0625792
-0.0877149
-0.0827376
-0.0527376
-0.0428507
-0.0629864
-0.0830996
-0.0630543
-0.0429412
-0.0479412
-0.0679638
-0.0479185
-0.032828
-0.0377602
-0.0476697
-0.0425792
-0.0274661
-0.0273982
-0.067353
-0.0523756
-0.047353
-0.0423304
-0.0774209
-0.0724888
-0.047534
-0.0275566
-0.037715
-0.0479412
-0.023077
-0.018258
-0.0383937
-0.0535747
-0.0438236
-0.0341856
-0.0444571
-0.0547512
-0.0499548
-0.0401585
-0.0353394
-0.0456109
-0.0459277
-0.00628965
-0.0167195
-0.0271494
-0.0275566
-0.0030317
-0.00355208
-0.0242082
-0.0249321
-0.010724
0.00852941
-0.00728507
-0.0131674
-0.00909501
-0.000113115
-0.0061086
-0.0271267
-0.0130995
-0.0240724
-0.0451584
-0.0613801
-0.0675792
-0.0587783
-0.0650679
-0.0714253
-0.0776697
-0.053914
-0.0453167
-0.071629
-0.0627828
-0.028914
-0.0250905
-0.0461538
-0.0571493
-0.0580995
-0.0440271
-0.0499321
-0.0505882
-0.0461312
-0.0416968
-0.0522624
-0.0827602
-0.0482353
-0.0236199
-0.0339366
-0.0442308
-0.0194118
0.0104073
0.00515839
-0.0251583
-0.0354072
0.0292308
0.108869
0.208507
0.373167
0.562873
0.797444
1.02188
1.27638
1.51593
1.63548
1.525
1.14448
0.713959
0.288371
-0.0771493
-0.217579
-0.128145
-0.0286652
-0.0341629
-0.0796154
-0.0850905
-0.0655204
-0.0809276
-0.091267
-0.0965611
-0.0869005
-0.107285
-0.137579
-0.132783
-0.107941
-0.11819
-0.148394
-0.153597
-0.153801
-0.143937
-0.154072
-0.159163
-0.154208
-0.134389
-0.154525
-0.169729
-0.149864
-0.135091
-0.150249
-0.160385
-0.130407
-0.10543
-0.110543
-0.125611
-0.120634
-0.0956788
-0.0908145
-0.0909729
-0.101109
-0.0711765
-0.0662896
-0.0863801
-0.0964028
-0.0713801
-0.0563349
-0.0463801
-0.0513349
-0.0312444
-0.0261313
-0.0259729
-0.025724
0.00450223
0.0196832
0.029819
0.0199773
0.0352941
0.0556561
0.0559502
0.0461538
0.0514253
0.0817647
0.0820135
0.0622624
0.0774887
0.107647
0.117805
0.102828
0.122828
0.132851
0.127896
0.122851
0.137851
0.152919
0.143009
0.1231
0.0982127
0.088371
0.0935068
0.0735973
0.0487104
0.048914
0.0341176
0.0143439
-0.00547512
-0.0152263
-0.00495477
-0.0197964
-0.0445928
-0.049276
-0.0489367
-0.0486652
-0.0683258
-0.0679412
-0.0474661
-0.0571041
-0.0668326
-0.0713122
-0.060362
-0.0438688
-0.0665837
-0.063552
-0.0394118
-0.0241629
-0.0178959
-0.0206561
-0.00289595
0.0295475
0.0202036
0.0288688
0.035543
0.0456787
0.0501357
0.0349547
0.0352489
0.0455882
0.0507692
0.0158371
0.0159729
0.031086
0.0311991
0.0211991
0.0111765
0.0111312
0.0110181
-0.0040724
-0.00416288
0.00570136
0.020543
0.0153394
-0.00990948
-0.00511311
-0.000339374
-0.0106561
-0.0209728
-0.0162217
0.00357468
-0.00674206
-0.0220135
-0.0321719
-0.0123982
-0.0176244
-0.0277375
-0.0178054
-0.00287329
-0.00805429
-0.0234616
-0.0191403
-0.00527151
-0.00212671
-0.0292986
-0.0333484
-0.0384616
-0.0495701
