ekg
0
-0.00666666
-0.014
-0.00642855
0.01
0.0136364
-0.00692308
-0.0233333
-0.0191177
-0.0210526
-0.0230952
-0.0119565
-0.00739999
-0.012037
-0.0113793
-0.0220968
-0.0289394
-0.0248571
-0.0259459
-0.0330769
-0.0346341
-0.0298837
-0.00922222
0.000851065
-0.00448979
-0.0093137
-0.0134906
-0.0232727
-0.00824562
-0.00805084
0.0176229
0.0234127
0.0288461
0.0193283
0.0103623
0.016338
0.0265754
0.0416667
0.0475325
0.0437975
0.0342592
0.0244578
0.00564706
-0.00810343
0.00247192
0.00280222
0.0187097
0.0244211
0.0197938
0.00994949
0.0101485
-0.00941747
-0.00400001
0.0157944
0
0.0136937
0.00707965
0.00460871
-0.00320512
-0.0157143
-0.0226033
-0.0245122
-0.03092
-0.0215748
-0.0168217
-0.0169466
-0.0268421
-0.0365185
-0.0465693
-0.0523741
-0.0334397
-0.0245455
-0.0161379
-0.0137075
-0.0273826
-0.0422516
-0.0787582
-0.0911936
-0.0955733
-0.095
-0.0908075
-0.107945
-0.137212
-0.166048
-0.164763
-0.162281
-0.150607
-0.134686
-0.117797
-0.110698
-0.114116
-0.13265
-0.141027
-0.124465
-0.128148
-0.10699
-0.110725
-0.0993846
-0.0932234
-0.0971859
-0.0960945
-0.110025
-0.104146
-0.108527
-0.103038
-0.0774881
-0.0671127
-0.0471395
-0.032212
-0.012169
-0.00705882
0.00298642
0.017828
0.0475339
0.0772172
0.0869231
0.0866063
0.081086
0.0654298
0.0397059
0.0390045
0.0433484
0.0428733
0.0325791
-0.00271497
-0.00805432
-0.0534389
-0.0588462
-0.0541629
-0.0643892
-0.0645249
-0.0746607
-0.0847511
-0.0897738
-0.0997285
-0.0847285
-0.0547285
-0.0297285
-0.00477372
0.0052489
0.000294134
0.000497751
0.015724
0.0309955
0.0611991
0.10129
0.141335
0.186403
0.231606
0.296855
0.317104
0.417308
0.467421
0.507376
0.547262
0.622172
0.767104
0.972149
1.25726
1.54231
1.77229
1.86222
1.75201
1.44686
0.956855
0.291833
-0.408122
-0.863077
-0.968054
-0.773122
-0.453235
-0.193326
-0.0583937
-0.0334615
-0.0934616
-0.113371
-0.188258
-0.183235
-0.163281
-0.138371
-0.123529
-0.123507
-0.123439
-0.138303
-0.1431
-0.142919
-0.132783
-0.122851
-0.112851
-0.107873
-0.102805
-0.112579
-0.122285
-0.122059
-0.131991
-0.107036
-0.117149
-0.102217
-0.102127
-0.106923
-0.111674
-0.116425
-0.101335
-0.0912896
-0.0911538
-0.0661086
-0.065905
-0.0457014
-0.0604299
-0.0601358
-0.0599095
-0.0497059
-0.0345475
-0.00941176
0.0107466
0.0109729
0.00135747
-0.00325791
-0.00780542
-0.0173077
-0.00665159
-0.000995487
0.00966062
0.0254072
0.0313122
0.0323529
0.0334842
0.0545928
0.0656561
0.0817194
0.0726018
0.0584615
0.0293439
-0.0047059
-0.00880092
0.00196832
0.0026923
0.00312217
-0.0115158
-0.0312217
-0.0559729
-0.0557014
-0.0604977
-0.0554525
-0.0605882
-0.0558824
-0.0611765
-0.0663801
-0.0664027
-0.0662444
-0.0709502
-0.0806335
-0.080362
-0.0850226
-0.0795702
-0.0638688
-0.0478507
-0.0415385
-0.0549774
-0.0581901
-0.0610407
-0.058733
-0.0458823
-0.0277602
-0.0244344
-0.0159276
-0.0171719
-0.0226923
-0.0273077
-0.0106336
0.00228503
0.0212217
0.0405656
0.0443891
0.0368778
0.0321719
0.0345022
0.0286199
0.0306787
0.0422172
0.0395701
0.028371
0.023371
0.018914
0.0145022
-0.000339389
-0.00570138
0.00278278
0.00518095
0.00128955
0.00703615
-0.0194118
-0.0264028
-0.0378507
-0.0526245
-0.0598869
-0.0589593
-0.0400227
-0.0545702
-0.0394345
-0.0408598
-0.0489594
-0.0583938
-0.0585068
-0.0538236
-0.0390046
-0.0289141
-0.028801
-0.0485973
-0.0585068
-0.0635747
-0.0687331
-0.0539367
-0.0540498
-0.0591177
-0.0441629
-0.0591629
-0.0641177
-0.0690498
-0.0691177
-0.0592534
-0.0543892
-0.0595023
-0.0495023
-0.0594344
-0.0693213
-0.0791856
-0.0691629
-0.0642308
-0.0593439
-0.0746154
-0.0699322
-0.0602942
-0.0655883
-0.0708372
-0.0711539
-0.0815611
-0.0771042
-0.0726245
-0.0882128
-0.0737558
-0.0693666
-0.0700454
-0.0860182
-0.0872852
-0.0936653
-0.0900453
-0.0714933
-0.0628734
-0.0442761
-0.045792
-0.0524209
-0.0490951
-0.0258146
0.00746594
0.0307917
0.0441628
0.0526017
0.0360406
0.0195701
-0.00183266
-0.0131901
-0.00443448
-0.00554305
-0.0165838
-0.0425792
-0.0732353
-0.09862
-0.108846
-0.114072
-0.129276
-0.14448
-0.16457
-0.17448
-0.179208
-0.178846
-0.158416
-0.173032
-0.16776
-0.167602
-0.157398
-0.152149
-0.151833
-0.146425
-0.156018
-0.160724
-0.170566
-0.160453
-0.160385
-0.150294
-0.135113
-0.134932
-0.139796
-0.124728
-0.109729
-0.0747285
0.0202715
0.200226
0.445204
0.750272
0.855362
1.35548
1.47548
1.3555
0.970453
0.410407
-0.294638
-0.949638
-1.2745
-1.19443
-0.844321
-0.469208
-0.184185
-0.0442081
0.000769258
-0.0392081
-0.0740045
-0.0887104
-0.0934389
-0.0683032
-0.0382805
-0.0233032
-0.0183258
-0.02319
-0.0229864
-0.0277375
-0.0124208
-0.0222624
-0.00712666
0.00800908
0.0231448
0.0233485
0.0286199
0.0188688
0.0292081
0.039457
0.0345927
0.0496833
0.0648416
0.0700452
0.0952941
0.115475
0.130633
0.12586
0.131018
0.151154
0.171312
0.201357
0.216448
0.241561
0.246652
0.251855
0.252149
0.287398
0.317534
0.337557
0.347602
0.362738
0.348009
0.338371
0.343778
0.344118
0.354412
0.359729
0.365204
0.350837
0.34672
0.327692
0.323665
0.304457
0.290136
0.275747
0.241335
0.212014
0.192738
0.188416
0.128959
0.0843665
0.0545475
0.039638
0.0296154
0.0245023
-0.000769228
-0.0311765
-0.0566742
-0.0772398
-0.0879185
-0.0835973
-0.0693439
-0.0550453
-0.0557466
-0.0612896
-0.0666968
-0.0770814
-0.0823529
-0.0726244
-0.0528733
-0.0431448
-0.0383484
-0.0384842
-0.0433937
-0.04319
-0.0429412
-0.0326696
-0.0223982
-0.027104
-0.0416742
-0.0357466
-0.0290045
-0.0410859
-0.0418099
-0.032104
-0.020181
-0.0177375
-0.000859722
-0.00567868
-0.00800902
-0.0184841
-0.0369457
-0.0469457
-0.0516742
-0.0598868
-0.0514705
-0.051742
-0.0514026
-0.0559954
-0.0811312
-0.0921945
-0.0893665
-0.0828506
-0.0726244
-0.0735068
-0.0850226
-0.11129
-0.131109
-0.148552
-0.148122
-0.124842
-0.119842
-0.119502
-0.114253
-0.115995
-0.123982
-0.122783
-0.132104
-0.121538
-0.105973
-0.105362
-0.109706
-0.113937
-0.118167
-0.117376
-0.106516
-0.110633
-0.0998416
-0.0991402
-0.103303
-0.0873529
-0.0913122
-0.0901357
-0.098914
-0.107738
-0.121652
-0.110633
-0.0994796
-0.0732126
-0.0818325
-0.095475
-0.104118
-0.112918
-0.101878
-0.0858144
-0.0797511
-0.0786877
-0.0876018
-0.086561
-0.115656
-0.119864
-0.109276
-0.0837556
-0.0734615
-0.0782579
-0.0831221
-0.0932352
-0.103575
-0.104118
-0.0997285
-0.100724
-0.0769683
-0.0683936
-0.0499095
-0.0464253
-0.0279412
-0.0195249
-0.0112217
-0.00303164
0.0200679
0.0381675
0.036267
0.029525
0.0279639
0.00144802
-0.0250226
-0.03138
-0.0526697
-0.0639592
-0.075
-0.0807692
-0.086267
-0.101561
-0.141697
-0.15181
-0.161855
-0.171833
-0.156652
-0.146357
-0.140905
-0.155475
-0.155
-0.16957
-0.164276
-0.153982
-0.143597
-0.13819
-0.132805
-0.142376
-0.146991
-0.156697
-0.151493
-0.136403
-0.11629
-0.101177
-0.086086
-0.0909276
-0.0858371
-0.0557466
0.0242986
0.194163
0.423982
0.708824
1.01869
1.29376
1.44889
1.399
1.074
0.548869
-0.0913349
-0.706516
-1.09656
-1.15658
-1.12152
-0.666425
-0.391403
-0.206448
-0.101539
-0.0666291
-0.056629
-0.0714933
-0.0663123
-0.076086
-0.0709276
-0.0508598
-0.0457693
-0.0356109
-0.0204978
0.00468323
-0.00511317
-0.00993219
0.000361934
-0.0144118
0.000746548
0.0158597
0.0409728
0.0560407
0.0611764
0.0663575
0.0616968
0.0769683
0.0921946
0.11233
0.137421
0.137557
0.137783
0.148077
0.148394
0.163643
0.178869
0.198914
0.223891
0.233914
0.264095
0.269412
0.269729
0.290023
0.310249
0.335339
0.34543
0.37052
0.380634
0.390928
0.396267
0.386629
0.381923
0.372172
0.367398
0.367557
0.367738
0.358054
0.363439
0.343778
0.319027
0.309208
0.294276
0.264253
0.239299
0.234276
0.189321
0.149389
0.0995023
0.0596607
0.0247738
0.0147512
-0.000271425
-0.0152714
-0.0402262
-0.0549773
-0.0946379
-0.104276
-0.109027
-0.0938461
-0.0787782
-0.0836425
-0.0984389
-0.0981674
-0.0978507
-0.0974887
-0.0972172
-0.0820362
-0.0719004
-0.0618099
-0.0716515
-0.0713348
-0.0709276
-0.0754751
-0.0601584
-0.0598869
-0.0545928
-0.0389819
-0.0378507
-0.0360181
-0.0285746
-0.0556561
-0.062647
-0.0602262
-0.0539819
-0.0397511
-0.0425113
-0.0516515
-0.0663801
-0.0752488
-0.102217
-0.107919
-0.0965837
-0.0896832
-0.0779864
-0.0861312
-0.0952941
-0.109796
-0.119502
-0.134276
-0.124095
-0.108891
-0.113688
-0.118439
-0.113213
-0.117896
-0.122489
-0.122172
-0.131946
-0.121742
-0.106652
-0.106493
-0.116267
-0.120973
-0.125543
-0.125113
-0.134774
-0.129593
-0.134412
-0.124186
-0.123891
-0.123439
-0.127986
-0.137579
-0.142285
-0.137081
-0.131923
-0.121742
-0.111538
-0.111244
-0.12095
-0.140634
-0.145407
-0.145272
-0.140158
-0.12
-0.119729
-0.114548
-0.119276
-0.133982
-0.13371
-0.118507
-0.0983484
-0.0682353
-0.0532127
-0.0282353
-0.02319
-0.0280996
-0.0230543
-0.0129638
0.00208144
0.0169909
0.0169231
0.0118326
-0.00830318
-0.0134389
-0.0385068
-0.0536199
-0.0688009
-0.0841855
-0.0895701
-0.100023
-0.110362
-0.125611
-0.145769
-0.17595
-0.186131
-0.186425
-0.176719
-0.162014
-0.152195
-0.162172
-0.167104
-0.172036
-0.176991
-0.181968
-0.171991
-0.157036
-0.157014
-0.141787
-0.141493
-0.15629
-0.161176
-0.156131
-0.131154
-0.116131
-0.0910859
-0.081018
-0.0258144
0.0493666
0.199548
0.404706
0.659661
0.94457
1.1545
1.2745
1.18959
0.854683
0.369729
-0.210271
-0.690271
-0.935407
-0.930611
-0.780769
-0.550837
-0.480814
-0.220792
-0.135769
-0.105882
-0.0860633
-0.0862896
-0.0864706
-0.0665837
-0.0716064
-0.0566063
-0.0616063
-0.0566516
-0.0467195
-0.0318552
-0.0170136
-0.00710402
-0.00708139
-0.00699088
0.003077
-0.0119004
-0.0069004
0.0180091
0.0478734
0.0628055
0.0677376
0.0727376
0.0627376
0.0626924
0.0726019
0.107466
0.127308
0.152195
0.162127
0.177127
0.182217
0.192285
0.217308
0.242195
0.262104
0.286991
0.296878
0.296833
0.326833
0.331878
0.336878
0.351833
0.371742
0.371629
0.376629
0.386787
0.392082
0.377444
0.367738
0.367941
0.363032
0.353054
0.358054
0.343145
0.333235
0.313303
0.288235
0.268077
0.232783
0.207444
0.202082
0.161674
0.141448
0.10629
0.071086
0.0358824
0.0156109
0.000226319
-0.015113
-0.0254072
-0.0304977
-0.0404751
-0.0704072
-0.0854298
-0.100588
-0.0958145
-0.0911312
-0.0815611
-0.0769457
-0.0773529
-0.112873
-0.118416
-0.10905
-0.0899548
-0.0760634
-0.067353
-0.0636199
-0.070181
-0.0719457
-0.0889593
-0.0860182
-0.0879186
-0.0794344
-0.0654752
-0.0661539
-0.0715159
-0.0822172
-0.0885746
-0.0910634
-0.0900226
-0.0950679
-0.105611
-0.105407
-0.0982579
-0.0988688
-0.113235
-0.122285
-0.132195
-0.141946
-0.1269
-0.121923
-0.12681
-0.126516
-0.126109
-0.150588
-0.160136
-0.154661
-0.149276
-0.148891
-0.133484
-0.137964
-0.142353
-0.151697
-0.166041
-0.170407
-0.164751
-0.164231
-0.143733
-0.1431
-0.152285
-0.156357
-0.160407
-0.15948
-0.14862
-0.142851
-0.142036
-0.141041
-0.144932
-0.148665
-0.152376
-0.161041
-0.154751
-0.153462
-0.142059
-0.15052
-0.143891
-0.137104
-0.130362
-0.138665
-0.141923
-0.135249
-0.138507
-0.126674
-0.104729
-0.107828
-0.110905
-0.123959
-0.112036
-0.090181
-0.0734163
-0.041629
-0.0148869
0.0068326
0.00355206
0.00518103
0.00674212
0.0181901
0.0344344
0.0405656
0.0365837
0.027534
0.0235747
-0.0204751
-0.0445928
-0.0438914
-0.0583936
-0.0630316
-0.0677375
-0.0874434
-0.0971041
-0.131787
-0.141471
-0.141244
-0.131199
-0.106267
-0.0963575
-0.0814027
-0.0613348
-0.0611991
-0.041086
-0.0160408
0.00380087
0.0236199
0.0684615
0.108439
0.153484
0.173575
0.253688
0.32371
0.388756
0.453642
0.493575
0.558507
0.658552
0.833642
1.04878
1.33387
1.59887
1.76389
1.75387
1.50887
1.03885
0.393914
-0.28095
-0.770747
-0.895543
-0.735453
-0.475453
-0.250498
-0.120566
-0.075543
-0.0854525
-0.125317
-0.150181
-0.155068
-0.145113
-0.135204
-0.120271
-0.115271
-0.110181
-0.119932
-0.124751
-0.124661
-0.124638
-0.119774
-0.114887
-0.0999548
-0.0899095
-0.0946832
-0.104412
-0.114186
-0.114095
-0.104072
-0.0990498
-0.0789367
-0.0787556
-0.0835068
-0.0882579
-0.0980769
-0.0929412
-0.0878733
-0.0728281
-0.0627375
-0.0626018
-0.0674208
-0.0672398
-0.0770362
-0.0568552
-0.0466063
-0.026448
-0.00631221
-0.0161312
-0.0209955
-0.0257692
-0.0154299
-0.0150678
-0.00972846
0.000497788
0.000656217
0.0109729
0.00638017
0.0119005
0.0075793
0.0133259
0.0190046
0.0245702
0.0300001
0.0503847
0.0558372
0.0463349
0.0367421
0.0120589
-0.00773752
-0.012828
-0.00807688
0.00169685
-0.00357458
-0.00871035
-0.0237782
-0.0488913
-0.0540271
-0.0592307
-0.0495022
-0.0396606
-0.0297737
-0.0396832
-0.044457
-0.064095
-0.0686425
-0.0582127
-0.0427375
-0.0321946
-0.0316742
-0.0260407
-0.0352488
-0.0343665
-0.0333484
-0.0323982
-0.0161991
-0.019819
0.00174209
-0.00147054
0.000271529
-0.0128507
-0.0057466
-0.0131674
-0.00497738
0.00911766
0.00425348
0.0200453
0.0256336
0.0346607
0.0108145
-0.00212663
-0.014457
-0.0252714
-0.0273981
-0.0287783
-0.0377149
-0.0484389
-0.0556334
-0.0645927
-0.0765611
-0.0730543
-0.0652036
-0.0534389
-0.0519683
-0.0517421
-0.0616969
-0.081629
-0.101448
-0.0912217
-0.0759955
-0.0707693
-0.0505883
-0.0604073
-0.0652263
-0.0899548
-0.109638
-0.119412
-0.119276
-0.0941856
-0.0841403
-0.0840951
-0.093982
-0.103756
-0.118484
-0.118168
-0.107941
-0.102851
-0.0927376
-0.0976245
-0.102376
-0.112014
-0.111584
-0.121244
-0.120973
-0.110792
-0.120498
-0.110136
-0.109661
-0.114027
-0.108507
-0.118054
-0.122647
-0.132353
-0.132059
-0.12172
-0.0963575
-0.111018
-0.115656
-0.110294
-0.12
-0.114751
-0.104502
-0.0792761
-0.0490499
-0.0288462
-0.0285295
-0.0332354
-0.0180544
-0.00798649
0.0118551
0.031561
0.0412217
0.036018
0.0309502
-0.00400457
-0.0239367
-0.0339593
-0.0391403
-0.0592534
-0.0543439
-0.0793666
-0.0791856
-0.0988688
-0.11862
-0.133394
-0.133303
-0.128235
-0.1181
-0.107851
-0.082534
-0.0871947
-0.0768101
-0.0565386
-0.041335
-0.00610867
0.0191176
0.0494343
0.0747284
0.0901583
0.140543
0.17595
0.226244
0.296516
0.376742
0.461968
0.497195
0.517398
0.552692
0.653009
0.818348
1.07848
1.37355
1.6536
1.81862
1.81376
1.53403
1.04937
0.399593
-0.270271
-0.720204
-0.865226
-0.745181
-0.510068
-0.434887
-0.149706
-0.0945022
-0.0943891
-0.114389
-0.13448
-0.139434
-0.139321
-0.129118
-0.123846
-0.11862
-0.123439
-0.123371
-0.108348
-0.0983936
-0.0984614
-0.0883709
-0.0782126
-0.0880542
-0.0929185
-0.102828
-0.117828
-0.102873
-0.0828959
-0.0828959
-0.0777828
-0.0926244
-0.107511
-0.122443
-0.107443
-0.0925565
-0.0826696
-0.0877149
-0.0927601
-0.0976696
-0.112602
-0.0976017
-0.0876244
-0.0827601
-0.0479638
-0.0482352
-0.0534162
-0.048552
-0.0436425
-0.038914
-0.0443438
-0.0248416
-0.0204524
-0.0160859
-0.00667417
-0.00214925
0.00751135
0.00230774
0.012172
0.0270136
0.041991
0.0670589
0.0772625
0.0826471
0.0582127
0.038801
0.00941184
-9.04202e-05
0.00533944
0.0157693
-0.00380084
-0.0134615
-0.0180542
-0.052828
-0.0726696
-0.0676244
-0.067828
-0.0582126
-0.0586651
-0.0641629
-0.0746832
-0.0802488
-0.0858597
-0.0916967
-0.0777149
-0.0638913
-0.070181
-0.0715837
-0.0781221
-0.0797737
-0.0914932
-0.0882579
-0.095
-0.0870588
-0.0797058
-0.0823529
-0.0815837
-0.0766742
-0.0875565
-0.103756
-0.114344
-0.117873
-0.0981447
-0.0891176
-0.0808823
-0.064751
-0.0675792
-0.0760633
-0.0817647
-0.055543
-0.037828
-0.0334389
-0.0311991
-0.0495249
-0.0622624
-0.0688913
-0.0701809
-0.0752488
-0.0651583
-0.0601357
-0.0601809
-0.0802714
-0.0803167
-0.0953846
-0.0904298
-0.0904524
-0.0855203
-0.085656
-0.0957692
-0.0907918
-0.0857013
-0.0955882
-0.100407
-0.100271
-0.105226
-0.105249
-0.100294
-0.0903845
-0.0853619
-0.085294
-0.100204
-0.115136
-0.110158
-0.110317
-0.0955203
-0.0806561
-0.0807239
-0.0857013
-0.0957013
-0.115769
-0.11095
-0.10129
-0.0915837
-0.0768552
-0.067104
-0.0621945
-0.0823076
-0.082466
-0.0676018
-0.0427602
-0.0129638
0.00676474
0.0216064
0.0314028
0.0311765
0.0309955
0.0308371
0.0206335
0.00531676
0.00504529
-0.010181
-0.0202036
-0.03
-0.0496154
-0.0792081
-0.0889592
-0.0987557
-0.108733
-0.113643
-0.123484
-0.128145
-0.127851
-0.137624
-0.122489
-0.107443
-0.102534
-0.0676018
-0.0426697
-0.027647
-0.0125565
0.00246611
0.0224209
0.0573077
0.102195
0.152059
0.207014
0.246991
0.306923
0.361833
0.41672
0.456606
0.481403
0.526177
0.630928
0.810769
0.880679
1.31061
1.58557
1.79554
1.88548
1.78532
1.4302
0.875023
0.184955
-0.450045
-0.81
-0.874887
-0.734932
-0.525113
-0.330385
-0.205566
-0.140611
-0.115566
-0.135407
-0.145362
-0.155407
-0.15552
-0.140656
-0.120747
-0.105747
-0.110633
-0.120475
-0.135385
-0.130407
-0.125498
-0.125588
-0.110633
-0.100588
-0.10552
-0.110543
-0.125565
-0.130566
-0.135633
-0.115656
-0.105724
-0.095837
-0.100928
-0.10595
-0.115928
-0.105882
-0.110882
-0.100995
-0.096199
-0.0813573
-0.0865157
-0.0865383
-0.0864479
-0.0963121
-0.0962895
-0.0863574
-0.066561
-0.0467646
-0.0419004
-0.0369683
-0.036923
-0.0368099
-0.0316968
-0.0266515
-0.0266289
-0.0166063
-0.00147054
0.00886881
0.00436655
0.0199774
0.0305204
0.0310182
0.0314254
0.0517874
0.0721041
0.072353
0.0775566
0.0476698
0.0226697
-0.00748867
-0.00782806
0.00165161
-0.0090045
0.000271529
-0.0254525
-0.0361764
-0.0669231
-0.0776923
-0.0734163
-0.0591855
-0.074819
-0.0653846
-0.0658145
-0.0659728
-0.0759955
-0.0909276
-0.0807692
-0.0754978
-0.0649548
-0.0692534
-0.0683484
-0.0721946
-0.0607466
-0.0542081
-0.0475113
-0.0456787
-0.043733
-0.0317195
-0.0196154
-0.0173756
-0.0247285
-0.0263801
-0.0278506
-0.0226017
-0.0113348
0.000610888
0.0178734
0.0092988
0.0288916
0.0257694
0.014344
-0.000180811
-0.0167418
-0.00418538
-0.00192297
-0.00484154
-0.0130542
-0.0368551
-0.0610406
-0.0900677
-0.0883483
-0.0849093
-0.0788686
-0.0747963
-0.0878958
-0.094751
-0.111606
-0.119457
-0.123439
-0.0983032
-0.0985521
-0.0938688
-0.104027
-0.11905
-0.123869
-0.113756
-0.10871
-0.108824
-0.104005
-0.119231
-0.109344
-0.104367
-0.109344
-0.119344
-0.119367
-0.11948
-0.109547
-0.0996833
-0.0947738
-0.0997964
-0.0997059
-0.114615
-0.124548
-0.13448
-0.114502
-0.104548
-0.0945928
-0.0895023
-0.094276
-0.0990046
-0.10871
-0.113439
-0.108258
-0.113122
-0.107964
-0.0927829
-0.0925566
-0.107195
-0.121833
-0.131584
-0.106357
-0.0961765
-0.0760634
-0.065905
-0.0656335
-0.0652941
-0.0549548
-0.0496833
-0.0345928
-0.00968331
0.0100452
0.0197737
0.0396154
0.044457
0.0342986
0.0290271
0.0235746
0.0229185
0.0122398
0.0115837
-0.00398189
-0.00452492
-0.0300227
-0.0554525
-0.0608598
-0.066267
-0.0716968
-0.0820362
-0.122285
-0.122421
-0.122511
-0.127557
-0.137602
-0.117602
-0.0926018
-0.0676018
-0.0376244
-0.0125565
-0.00742078
0.0078055
0.0230317
0.0481675
0.0782579
0.128258
0.178281
0.238348
0.258507
0.34371
0.393869
0.439027
0.479118
0.529118
0.619027
0.748891
0.953892
1.20403
1.46416
1.71923
1.86916
1.85903
1.67376
1.28351
0.698371
0.0283032
-0.58172
-0.836787
-0.821968
-0.607285
-0.367647
-0.187964
-0.0981221
-0.0782805
-0.113416
-0.128575
-0.163846
-0.154163
-0.144412
-0.124593
-0.114774
-0.109955
-0.115181
-0.125317
-0.125407
-0.125543
-0.125792
-0.116018
-0.116222
-0.106425
-0.106561
-0.116584
-0.126606
-0.131584
-0.126674
-0.126833
-0.117104
-0.112285
-0.102376
-0.112376
-0.122308
-0.127308
-0.127376
-0.122511
-0.102692
-0.087828
-0.0878506
-0.0928054
-0.0926923
-0.10767
-0.0978054
-0.0779412
-0.0581222
-0.0381222
-0.0230769
-0.0329185
-0.0377376
-0.0326244
-0.0325792
-0.0124435
-0.0023303
0.0128507
0.0231448
0.0235294
0.00895925
-0.000520393
0.00997734
0.0104298
0.0408371
0.0561991
0.0515837
0.0519231
0.0472398
0.0275339
0.0278054
0.0129637
0.00798637
-0.00205889
-0.012172
-0.0222399
-0.037353
-0.0525566
-0.067715
-0.0779638
-0.0833485
-0.0838462
-0.0793213
-0.0746833
-0.0700001
-0.0902037
-0.0953621
-0.105611
-0.105905
-0.0962218
-0.0914932
-0.076629
-0.0815159
-0.0861765
-0.100498
-0.0996833
-0.103462
-0.0870136
-0.075362
-0.0635068
-0.0512443
-0.0484842
-0.0550905
-0.0707919
-0.0602941
-0.0385068
-0.0154978
-0.00678736
0.0118552
0.0246606
0.0157014
0.0140498
0.009276
0.00165159
0.0127601
0.0188235
0.0157692
-0.00128964
-0.0126018
-0.0135747
-0.0146607
-0.0211313
-0.0129639
-0.0102715
-0.0176244
-0.0303846
-0.03319
-0.0310407
-0.0390498
-0.0524208
-0.0615837
-0.0617421
-0.0530769
-0.0656109
-0.0790498
-0.0778055
-0.0909502
-0.117579
-0.126923
-0.138371
-0.127127
-0.119321
-0.101357
-0.0992082
-0.108167
-0.117964
-0.128258
-0.118688
-0.109027
-0.104321
-0.0993892
-0.104389
-0.134389
-0.144434
-0.144548
-0.124683
-0.10491
-0.120158
-0.120317
-0.135385
-0.135271
-0.140045
-0.134955
-0.119932
-0.104887
-0.11491
-0.104864
-0.104683
-0.104389
-0.104027
-0.10371
-0.103484
-0.0933937
-0.0932805
-0.0881448
-0.082828
-0.0874435
-0.0870814
-0.0817647
-0.0914706
-0.0863348
-0.0862444
-0.0812217
-0.0711991
-0.0612444
-0.0763348
-0.0765385
-0.0968326
-0.10724
-0.0878055
-0.0634616
-0.049095
-0.0347738
-0.0354525
-0.0211312
-0.01681
-0.00257923
0.0215837
0.0456108
0.0645927
0.0786199
0.077647
0.0717421
0.0708371
0.0548869
0.0438462
0.0377828
0.0367873
0.035905
0.0302036
-0.0104072
-0.0309276
-0.0413575
-0.0368099
-0.0524434
-0.0780995
-0.0936199
-0.0989593
-0.0942307
-0.0944117
-0.0946154
-0.0848416
-0.0651357
-0.0454977
-0.0208823
0.00389142
0.0237557
0.0436426
0.0584616
0.0731448
0.117783
0.167421
0.232059
0.301765
0.321584
0.421403
0.451154
0.47086
0.510498
0.585068
0.74957
0.969073
1.22862
1.49326
1.70285
1.77244
1.64704
1.31161
0.796109
0.145611
-0.455023
-0.795588
-0.831041
-0.64138
-0.391833
-0.19733
-0.0978959
-0.078552
-0.10414
-0.114638
-0.160045
-0.155407
-0.140747
-0.131312
-0.121968
-0.117579
-0.113145
-0.098552
-0.0989139
-0.0992307
-0.119661
-0.130113
-0.110656
-0.101199
-0.101652
-0.0869683
-0.0822624
-0.102466
-0.112647
-0.117873
-0.10819
-0.103529
-0.0838235
-0.0790498
-0.0841855
-0.0942534
-0.0942987
-0.0944344
-0.0845928
-0.0847059
-0.0698191
-0.0599095
-0.0600227
-0.0651358
-0.0602263
-0.0602715
-0.045362
-0.0404752
-0.0306788
-0.0109503
-0.00115387
-0.0112443
-0.00126697
0.00382355
0.00889142
0.0140046
0.0140724
0.0242082
0.0444344
0.0548417
0.055362
0.0609955
0.061629
0.057172
0.0626471
0.0680543
0.0733937
0.0537783
0.0442308
0.0146833
0.00509055
-0.0047511
-0.0247285
-0.0297511
-0.00972848
0.000271499
-0.0147511
-0.0398642
-0.0550226
-0.0652036
-0.0553846
-0.0655203
-0.0556335
-0.0456335
-0.0455429
-0.0652941
-0.0749999
-0.0797285
-0.0795248
-0.0592533
-0.0489593
-0.0484841
-0.0528959
-0.0570814
-0.0759502
-0.0797737
-0.07319
-0.0614253
-0.0396606
-0.0276923
-0.0203167
-0.0220814
-0.0227602
-0.0221719
-0.0102941
-0.00748868
0.0106108
0.0181448
0.0192081
0.0181221
0.0392081
0.032647
0.0095022
-0.00393668
0.0183937
0.0167873
0.0210181
0.0307466
0.0254977
0.0150226
-0.000633478
-0.00662895
-0.0177149
0.00106333
0.00981899
-0.00158371
0.0067647
-0.0101584
-0.0373303
-0.0497737
-0.042466
-0.0404525
-0.0287104
-0.0273303
-0.0365837
-0.05681
-0.0780996
-0.0955656
-0.108846
-0.107082
-0.0944118
-0.0947964
-0.107489
-0.112195
-0.129661
-0.136358
-0.133575
-0.116901
-0.111403
-0.116177
-0.126425
-0.126425
-0.121222
-0.115905
-0.110679
-0.110475
-0.115362
-0.110226
-0.110023
-0.104729
-0.0993213
-0.0989367
-0.09862
-0.108258
-0.102919
-0.0975566
-0.0821494
-0.0816969
-0.0761992
-0.090611
-0.0950001
-0.104434
-0.103869
-0.0883485
-0.0728281
-0.0722852
-0.0666969
-0.0810634
-0.0954752
-0.0949774
-0.0896381
-0.0744119
-0.0642535
-0.064163
-0.0690951
-0.0789367
-0.0987784
-0.0937331
-0.0888915
-0.0791404
-0.0794345
-0.0897738
-0.0851358
-0.0904752
-0.0907467
-0.101086
-0.0865159
-0.0620815
-0.0276924
-0.0283032
-0.018801
-0.0142308
0.0103619
0.0248642
0.0242986
0.0335972
0.0428959
0.0322624
0.0517194
0.0463348
0.0310407
0.00588228
-0.0143214
-0.0344345
-0.0545702
-0.0497286
-0.0448417
-0.044887
-0.0548417
-0.0947738
-0.119683
-0.134502
-0.124412
-0.0944119
-0.0744797
-0.059344
-0.049163
-0.0589141
-0.0436652
-0.0183485
0.0118099
0.0417873
0.0667873
0.111719
0.126787
0.171968
0.232127
0.29724
0.367217
0.427014
0.481787
0.526584
0.576403
0.676425
0.826425
1.04136
1.29118
1.55586
1.71554
1.69518
1.48993
1.06982
0.479751
-0.160407
-0.650634
-0.825973
-0.721335
-0.476742
-0.217036
-0.14724
-0.0424434
-0.0826697
-0.117896
-0.143077
-0.128281
-0.118462
-0.0986878
-0.088914
-0.0990497
-0.109163
-0.114253
-0.099276
-0.0943439
-0.0944117
-0.0845023
-0.0845475
-0.0895701
-0.099457
-0.0992986
-0.0991855
-0.0941403
-0.0841629
-0.0792534
-0.0693439
-0.0742987
-0.0741403
-0.0789367
-0.0837557
-0.0936878
-0.0837104
-0.0787557
-0.063733
-0.0585747
-0.0633258
-0.0630996
-0.0628733
-0.0527602
-0.0427828
-0.0227602
-0.0177376
-0.0176018
0.00253393
-0.00235297
0.00282806
-0.00210406
0.0128959
0.0128507
0.0328733
0.0380091
0.0383485
0.0337105
0.0291403
0.0245702
0.0400679
0.0506109
0.0611765
0.0567648
0.0474209
0.0380543
0.0238462
0.0145928
-0.00972846
-0.00423074
-0.0288235
-0.0285294
-0.0183257
-0.0329864
-0.037647
-0.057285
-0.0669683
-0.0768552
-0.0769004
-0.0620135
-0.062104
-0.0569909
-0.0767421
-0.0864253
-0.0961312
-0.085905
-0.105679
-0.0803394
-0.0548416
-0.0641855
-0.058371
-0.0673756
-0.0814253
-0.085362
-0.0640951
-0.0475792
-0.0307919
-0.0337557
-0.0265158
-0.0241403
-0.051629
-0.038733
-0.0251583
-0.0106335
0.0100679
0.00710402
0.0199321
0.012647
0.00954743
0.00959268
0.0220135
0.0316062
0.0339818
0.0255882
0.0327149
0.0211312
0.00585967
0.000927553
-0.0035747
-0.00334845
-0.0083711
0.00151579
0.0014253
0.0113574
0.00631218
-0.0087557
-0.0140272
-0.0145476
-0.0252263
-0.0159503
-0.0167647
-0.022715
-0.0288236
-0.0301584
-0.0469457
-0.0590951
-0.0464932
-0.0490272
-0.0417648
-0.0398417
-0.0435521
-0.0631675
-0.0790498
-0.096267
-0.0946381
-0.0935068
-0.0974661
-0.0992534
-0.113416
-0.129299
-0.137308
-0.128869
-0.130362
-0.11267
-0.100973
-0.105045
-0.0994118
-0.113869
-0.113281
-0.117489
-0.126629
-0.105837
-0.090181
-0.0894344
-0.0887557
-0.0879412
-0.0970136
-0.101086
-0.105226
-0.0994796
-0.0887783
-0.083009
-0.0871493
-0.0811765
-0.0852488
-0.0893213
-0.103507
-0.0978054
-0.0971945
-0.0816742
-0.0811086
-0.0755882
-0.0750678
-0.0994796
-0.0940045
-0.0985972
-0.0983031
-0.093009
-0.082828
-0.0826018
-0.0773076
-0.0919683
-0.101652
-0.101448
-0.0863574
-0.0812895
-0.066199
-0.0662443
-0.0712216
-0.0760633
-0.0859728
-0.0809049
-0.0559049
-0.0359954
-0.0211312
-0.0111764
-0.00113119
0.00393669
0.0139593
0.0289593
0.0488688
0.0635295
0.0631449
0.0678055
0.057534
0.0274661
0.0123982
0.0173756
-0.00773752
-0.0178054
-0.0279185
-0.043009
-0.0429411
-0.0477375
-0.0574434
-0.0971267
-0.1269
-0.131742
-0.121629
-0.101493
-0.0813574
-0.0861538
-0.0759049
-0.0706335
-0.055362
-0.0401357
-0.00502262
0.0400905
0.0702489
0.095362
0.120543
0.150633
0.195701
0.245679
0.340747
0.410679
0.465566
0.495452
0.545317
0.630249
0.775249
0.985204
1.26005
1.5548
1.80452
1.90928
1.91907
1.44896
0.873914
0.163801
-0.466403
-0.791719
-0.807081
-0.627466
-0.397738
-0.217873
-0.132986
-0.1081
-0.118281
-0.143529
-0.163824
-0.144163
-0.119299
-0.124276
-0.10914
-0.119072
-0.139027
-0.13905
-0.12914
-0.109208
-0.104231
-0.104208
-0.114163
-0.129163
-0.124118
-0.134118
-0.119118
-0.109163
-0.0991855
-0.104208
-0.109095
-0.123914
-0.123756
-0.128597
-0.11862
-0.10862
-0.103665
-0.11371
-0.0986877
-0.108597
-0.108507
-0.118394
-0.108394
-0.103484
-0.0885746
-0.0935973
-0.088552
-0.0783937
-0.0682353
-0.0730543
-0.0679638
-0.0579412
-0.0529186
-0.0477828
-0.0424887
-0.0420815
-0.0466516
-0.036267
-0.0309276
-0.0207014
-0.000452504
0.0248642
0.0452489
0.0456561
0.0410181
0.0112669
0.00126694
-0.00386877
0.000927597
-0.0193665
-0.0146154
-0.00990948
-0.035181
-0.060362
-0.0854751
-0.0805656
-0.0708371
-0.0711991
-0.0665837
-0.0769004
-0.0769909
-0.0968325
-0.0966063
-0.101335
-0.0910859
-0.085905
-0.0756787
-0.080362
-0.0897964
-0.0891403
-0.0934389
-0.0727601
-0.0721493
-0.0564253
-0.0756561
-0.0595701
-0.0583031
-0.041991
-0.0358145
-0.0397511
-0.0486199
-0.0371041
-0.0248416
-0.0115158
-0.0121945
-0.00255658
0.0013801
-0.0110633
-0.0220136
-0.0214932
-0.0241855
-0.0195927
-0.013371
-0.0191403
-0.0307692
-0.048914
-0.0556335
-0.0478733
-0.0464706
-0.0312444
-0.0266969
-0.0272399
-0.0524208
-0.0722851
-0.0971267
-0.0819457
-0.0769684
-0.072172
-0.0622625
-0.0723303
-0.0773078
-0.0772851
-0.0772625
-0.0723077
-0.0775114
-0.0726697
-0.077896
-0.0830317
-0.0830996
-0.0831222
-0.0981448
-0.113213
-0.103394
-0.103597
-0.088801
-0.088982
-0.0841177
-0.0842308
-0.094344
-0.0994118
-0.0995702
-0.0997964
-0.0900453
-0.0803394
-0.0806562
-0.080905
-0.0911539
-0.101357
-0.101606
-0.111855
-0.0972399
-0.0926471
-0.0880091
-0.0883032
-0.103597
-0.113824
-0.10914
-0.0895701
-0.075
-0.0404073
-0.0307919
-0.0260634
-0.0261991
-0.0312217
-0.016267
-0.00133483
0.0234163
0.0381448
0.0578733
0.0527149
0.0325792
0.0325792
0.0126245
-0.0073982
-0.0274887
-0.0426697
-0.0428054
-0.0528733
-0.0528959
-0.0578507
-0.0878507
-0.12276
-0.142783
-0.142851
-0.132964
-0.103077
-0.0980996
-0.0830543
-0.0929864
-0.0829638
-0.0679638
-0.0380317
0.00696833
0.0269231
0.0670136
0.0920362
0.122172
0.167353
0.227534
0.302647
0.372692
0.43267
0.47776
0.517964
0.593213
0.773394
1.0336
1.34878
1.6538
1.8588
1.85882
1.82894
1.14412
0.464412
-0.270362
-0.810226
-0.945181
-0.745181
-0.420181
-0.170136
-0.0449774
-0.0447738
-0.10457
-0.14948
-0.15948
-0.149638
-0.114729
-0.0947964
-0.119819
-0.114728
-0.114683
-0.109638
-0.109638
-0.104683
-0.0846833
-0.0897059
-0.0846833
-0.089638
-0.0945249
-0.0944118
-0.0993213
-0.0943439
-0.0844796
-0.0795701
-0.0845928
-0.0795249
-0.0794117
-0.0792534
-0.0891177
-0.084095
-0.0741629
-0.0592082
-0.064276
-0.0442081
-0.034095
-0.0339593
-0.0388688
-0.0438462
-0.023914
-0.0140045
0.010905
0.020905
0.0209728
0.0110407
0.0160633
0.00592764
0.025724
0.0454751
0.0553847
0.0553394
0.0604525
0.0556109
0.0507014
0.0457014
0.0505883
0.0504525
0.060362
0.0554525
0.0506788
0.030905
0.00606339
-0.018914
-0.0239366
-0.0340724
-0.044276
-0.0495701
-0.0549095
-0.0602036
-0.0704751
-0.0806787
-0.0809049
-0.10129
-0.096923
-0.0876244
-0.0832579
-0.0736425
-0.0886425
-0.0934615
-0.103122
-0.102805
-0.0975113
-0.0871945
-0.0818552
-0.0713122
-0.0856108
-0.0897285
-0.0988008
-0.107828
-0.0917646
-0.0704524
-0.0588461
-0.0519909
-0.0647737
-0.0771719
-0.0742533
-0.0609728
-0.056923
-0.0468325
-0.0204524
-0.0178506
-0.00970587
-0.0172398
-0.0110181
-0.019276
-0.00710407
-0.00457016
-0.0148416
-0.0257918
-0.0293665
-0.0441176
-0.0548642
-0.0571945
-0.0526696
-0.0480542
-0.0448642
-0.0333257
-0.0330316
-0.0333936
-0.0388913
-0.0544569
-0.0549547
-0.0604072
-0.0509049
-0.0414479
-0.0470814
-0.0477148
-0.0534615
-0.0642533
-0.0849773
-0.0856334
-0.0812216
-0.0718325
-0.0625791
-0.0634388
-0.0794116
-0.0853166
-0.0960859
-0.101742
-0.097466
-0.0833483
-0.0692307
-0.0751356
-0.0709954
-0.0919682
-0.0929411
-0.0990044
-0.0901809
-0.0864705
-0.0778506
-0.0742081
-0.0855656
-0.0918551
-0.103167
-0.0995927
-0.0912443
-0.0729863
-0.0698189
-0.0566289
-0.0734162
-0.0701809
-0.0720135
-0.0738687
-0.0558596
-0.0378958
-0.0198641
-0.00180982
0.00119922
-0.0157917
-0.0327827
-0.0147284
-0.00656094
0.0015386
0.00950238
0.0125341
0.00561097
0.00382365
-0.00287317
-0.0144343
-0.0308596
-0.0472849
-0.0487103
-0.045113
-0.0262669
-0.0321718
-0.0479411
-0.0935972
-0.149208
-0.184932
-0.205633
-0.21129
-0.196742
-0.186991
-0.162172
-0.162262
-0.177353
-0.177466
-0.16267
-0.142941
-0.118303
-0.113575
-0.103688
-0.0886877
-0.108643
-0.14871
-0.178846
-0.184072
-0.174231
-0.144434
-0.114661
-0.0797059
0.00529416
0.155294
0.400158
0.704955
1.03466
1.32446
1.4043
1.41914
1.09398
0.573892
-0.0613122
-0.691629
-1.10201
-1.1824
-0.912624
-0.55767
-0.27267
-0.0926696
-0.0427601
-0.0528732
-0.0630316
-0.0731674
-0.0582805
-0.0482579
-0.0231221
-0.00300899
0.0171041
0.0321042
0.0120363
-0.00807683
-0.0230995
-0.0230542
0.0120137
0.0470589
0.0771494
0.0571494
0.0320589
0.00685528
0.0216743
0.046629
0.0516969
0.0668553
0.0719458
0.0920363
0.112036
0.142081
0.167104
0.187104
0.202104
0.217149
0.227285
0.237398
0.252466
0.277511
0.317511
0.342557
0.352738
0.367986
0.383326
0.388643
0.403959
0.414276
0.43948
0.444729
0.42509
0.425633
0.436312
0.446946
0.442421
0.42776
0.383077
0.373394
0.37871
0.359072
0.339389
0.299547
0.27457
0.239593
0.204706
0.194774
0.184796
0.179751
0.104683
0.0547738
0.0348869
0.0150226
0.0149321
0.024638
0.0142534
-0.00617649
-0.0515837
-0.0917874
-0.0968778
-0.111787
-0.101697
-0.111606
-0.0965385
-0.0914027
-0.0811765
-0.0857919
-0.100362
-0.114977
-0.11957
-0.109253
-0.109118
-0.0890272
-0.0938688
-0.0836199
-0.0733032
-0.0928733
-0.107285
-0.106335
-0.0897059
-0.0720136
-0.0579186
-0.0573529
-0.050543
-0.0436199
-0.0371493
-0.0430769
-0.0275792
-0.0153394
-0.0132126
-0.023914
-0.070362
-0.119932
-0.12629
-0.129072
-0.108416
-0.104977
-0.104819
-0.104774
-0.110928
-0.128484
-0.14224
-0.141719
-0.141403
-0.120973
-0.115339
-0.124661
-0.144027
-0.153462
-0.148009
-0.132443
-0.14181
-0.136086
-0.120475
-0.105
-0.114638
-0.139231
-0.148778
-0.153348
-0.142828
-0.137285
-0.136652
-0.145996
-0.145294
-0.129525
-0.123688
-0.122828
-0.136946
-0.140973
-0.135045
-0.139186
-0.123258
-0.122217
-0.131018
-0.139774
-0.143529
-0.152353
-0.14629
-0.145181
-0.119163
-0.108054
-0.111968
-0.131041
-0.140249
-0.124502
-0.103869
-0.0883711
-0.0629638
-0.0527602
-0.0426018
-0.0424887
-0.0274887
0.00235295
0.0319683
0.0264706
-0.00418553
-0.00995475
-0.0157014
-0.00140269
0.00789593
-0.00800903
-0.019095
-0.040181
-0.0363122
-0.047172
-0.0628733
-0.0735747
-0.0842534
-0.114932
-0.130566
-0.14595
-0.14629
-0.161584
-0.156855
-0.156968
-0.157014
-0.1669
-0.17181
-0.151833
-0.141991
-0.142172
-0.142217
-0.162217
-0.182172
-0.192195
-0.177172
-0.172081
-0.172127
-0.167262
-0.167421
-0.157376
-0.162217
-0.156968
-0.14181
-0.0866968
0.0282806
0.233281
0.503235
0.588326
1.08853
1.30376
1.38898
1.24398
0.888778
0.383552
-0.196742
-0.76181
-1.1519
-1.13699
-0.882059
-0.557217
-0.282534
-0.097896
-0.0332579
-0.0385973
-0.0688009
-0.0989366
-0.10905
-0.109231
-0.0844344
-0.0746833
-0.0549322
-0.0452263
-0.0404752
-0.0356109
-0.0356788
-0.0307467
-0.0158372
-0.00595029
-0.011086
-0.0111766
-0.0112444
0.00368772
0.0235746
0.0334614
0.038371
0.0483031
0.05819
0.048009
0.0678732
0.097828
0.107783
0.122873
0.112986
0.112986
0.127919
0.157783
0.187692
0.192624
0.222557
0.22767
0.237828
0.252986
0.283077
0.303054
0.338077
0.363213
0.368394
0.368688
0.36905
0.384434
0.389751
0.405068
0.415453
0.415928
0.41638
0.40672
0.391991
0.372195
0.367308
0.337308
0.327127
0.306855
0.296493
0.236177
0.210905
0.200611
0.175204
0.129819
0.0793213
0.0188462
-0.00665151
-0.0070135
-0.0223302
-0.0425791
-0.0527827
-0.0779185
-0.078009
-0.0680995
-0.0530316
-0.052828
-0.0725791
-0.0823529
-0.0722398
-0.0622398
-0.0623077
-0.0673303
-0.0573982
-0.0524887
-0.0475339
-0.0776018
-0.0875339
-0.0975339
-0.082534
-0.0725792
-0.0423982
-0.0467195
-0.0450453
-0.0570815
-0.0639593
-0.0540272
-0.0489366
-0.0295701
-0.0212443
-0.0169457
-0.00622168
-0.0437556
-0.048371
-0.0629864
-0.0797059
-0.0720589
-0.0552942
-0.0558824
-0.0509955
-0.0521268
-0.0597286
-0.0685973
-0.0833259
-0.0884616
-0.0937105
-0.0788236
-0.0638236
-0.0637105
-0.0685973
-0.0785295
-0.0783937
-0.0882806
-0.108235
-0.113145
-0.113122
-0.113167
-0.11319
-0.11319
-0.113167
-0.113167
-0.103213
-0.103326
-0.0933711
-0.0933937
-0.108462
-0.123507
-0.128394
-0.143235
-0.147986
-0.132851
-0.127805
-0.117805
-0.137715
-0.137466
-0.137217
-0.151968
-0.151855
-0.15681
-0.161742
-0.146674
-0.141516
-0.146267
-0.14095
-0.140724
-0.145588
-0.140566
-0.125611
-0.110634
-0.0956336
-0.0855883
-0.0855204
-0.0904752
-0.0805204
-0.0706562
-0.0359277
-0.00119914
0.0233936
0.0330542
0.0326696
0.0273755
0.00685515
-0.00366519
0.0108597
-0.00470592
-0.0102263
-0.0307693
-0.0414254
-0.0719684
-0.097353
-0.107738
-0.1181
-0.133394
-0.15371
-0.158937
-0.173959
-0.193869
-0.20371
-0.198665
-0.193733
-0.188778
-0.183778
-0.178778
-0.16371
-0.158552
-0.163371
-0.158145
-0.178122
-0.168213
-0.163394
-0.138484
-0.133507
-0.128348
-0.143167
-0.157986
-0.107896
-0.00782809
0.172172
0.417172
0.50224
1.03735
1.32242
1.46262
1.35774
0.967896
0.343099
-0.366765
-0.951629
-1.26136
-1.181
-0.890611
-0.570159
-0.319774
-0.159548
-0.0794119
-0.0542535
-0.0590725
-0.0737784
-0.0783938
-0.0680317
-0.0526923
-0.0625113
-0.0572851
-0.0371267
-0.0320136
-0.00687784
0.00334843
-0.00144795
-0.00631221
0.00377829
0.0288462
0.0489367
0.0690724
0.0643439
0.0696607
0.0699774
0.0852037
0.0803394
0.0804073
0.0754072
0.0904299
0.110475
0.135475
0.145634
0.140815
0.146018
0.176244
0.21129
0.236222
0.246063
0.275837
0.275611
0.29043
0.300204
0.324864
0.344367
0.368801
0.39819
0.397692
0.40733
0.407127
0.402082
0.406991
0.416833
0.421697
0.431765
0.427149
0.427783
0.40362
0.394502
0.365407
0.356312
0.332217
0.313122
0.309095
0.255
0.210905
0.176674
0.127353
0.0928733
0.0782579
0.0536878
0.0290498
0.00932129
-0.010543
-0.0454072
-0.0553846
-0.0704298
-0.0655882
-0.0507466
-0.0459502
-0.0461312
-0.0462895
-0.0664479
-0.0767647
-0.0775113
-0.0840271
-0.0714932
-0.0602714
-0.0554298
-0.0669456
-0.0790723
-0.0957466
-0.110588
-0.112534
-0.106199
-0.107014
-0.0813121
-0.0754071
-0.0697284
-0.0699999
-0.0489366
-0.0572397
-0.0601357
-0.058552
-0.0686651
-0.061561
-0.0526244
-0.0714026
-0.101697
-0.111652
-0.135271
-0.132466
-0.108575
-0.10405
-0.114208
-0.124276
-0.134412
-0.13957
-0.134819
-0.135158
-0.110498
-0.12095
-0.116403
-0.126697
-0.136991
-0.157172
-0.152443
-0.137873
-0.128371
-0.123937
-0.129457
-0.129932
-0.160317
-0.160814
-0.161448
-0.157217
-0.153054
-0.143959
-0.14491
-0.155928
-0.146923
-0.132896
-0.158891
-0.184864
-0.190928
-0.196991
-0.172919
-0.14871
-0.134412
-0.125045
-0.110543
-0.116041
-0.111471
-0.0818326
-0.0469683
-0.0369457
-0.0216968
-0.0311538
-0.0454298
-0.0645927
-0.0886199
-0.0774886
-0.066199
-0.0596606
-0.0928959
-0.125905
-0.143756
-0.161584
-0.15948
-0.162353
-0.165271
-0.183235
-0.191199
-0.189231
-0.187217
-0.190407
-0.178846
-0.167466
-0.161357
-0.155339
-0.174366
-0.168439
-0.162692
-0.152036
-0.156561
-0.146267
-0.151041
-0.135905
-0.130769
-0.115475
-0.115158
-0.114796
-0.109434
-0.0592081
0.0408824
0.206041
0.421131
0.691312
1.00661
1.31199
1.47235
1.37767
0.977873
0.323009
-0.416855
-0.996674
-1.23138
-1.09591
-0.800407
-0.504864
-0.264389
-0.118891
-0.0684389
-0.0580317
-0.0725566
-0.0820588
-0.0915611
-0.0760181
-0.0505204
-0.0451358
-0.049819
-0.0445702
-0.0342761
-0.0138462
-0.00337109
0.00203614
0.0124208
0.00276016
0.0180317
0.0482805
0.063552
0.0789366
0.084276
0.0696832
0.0750226
0.0752941
0.105407
0.135475
0.145566
0.170769
0.186018
0.196199
0.196244
0.216086
0.250724
0.280317
0.309887
0.319547
0.329276
0.339027
0.34871
0.363394
0.393077
0.397624
0.412081
0.416629
0.41629
0.421244
0.42638
0.421561
0.421787
0.421991
0.422172
0.417511
0.393145
0.37905
0.355023
0.321041
0.281968
0.267738
0.238348
0.198733
0.169072
0.124344
0.0795927
0.0396154
-0.000656083
-0.00624433
-0.0170136
-0.0331674
-0.0545475
-0.0561086
-0.0830091
-0.0902489
-0.107738
-0.120475
-0.113507
-0.111946
-0.106086
-0.126222
-0.137602
-0.16043
-0.154367
-0.163643
-0.152443
-0.15448
-0.153846
-0.149887
-0.142805
-0.159072
-0.155249
-0.162443
-0.160928
-0.149751
-0.129344
-0.143552
-0.1319
-0.13414
-0.14009
-0.144638
-0.137851
-0.125294
-0.10319
-0.0929638
-0.0907466
-0.0969231
-0.130701
-0.155566
-0.164842
-0.17776
-0.169389
-0.159977
-0.164932
-0.164638
-0.184253
-0.203937
-0.198688
-0.198507
-0.203281
-0.203009
-0.19267
-0.19733
-0.201946
-0.206538
-0.211063
-0.205566
-0.210091
-0.209593
-0.199118
-0.188529
-0.192805
-0.192014
-0.191222
-0.200543
-0.195
-0.189412
-0.173846
-0.158145
-0.147308
-0.161403
-0.165475
-0.154525
-0.123597
-0.107715
-0.0616968
-0.050543
-0.0392081
-0.0527602
-0.056267
-0.0597963
-0.0533031
-0.0418099
-0.0252488
-0.0185068
-0.0216968
-0.0447738
-0.0727828
-0.110724
-0.123597
-0.116425
-0.114253
-0.0920815
-0.0898417
-0.117511
-0.150136
-0.172805
-0.175543
-0.168348
-0.156357
-0.134615
-0.117941
-0.0913801
-0.0699548
-0.0435747
-0.0324434
-0.0166063
0.0140046
0.0644118
0.0847737
0.170113
0.21543
0.250701
0.305996
0.371109
0.426109
0.481018
0.540815
0.640724
0.805815
1.03091
1.31088
1.61077
1.86054
1.94038
1.84532
1.45041
0.87052
0.130656
-0.544185
-0.904004
-0.908937
-0.683869
-0.398823
-0.318756
-0.0985519
-0.0831899
-0.107828
-0.137421
-0.152104
-0.146855
-0.136674
-0.146493
-0.14129
-0.125973
-0.115656
-0.105317
-0.11
-0.104864
-0.0998867
-0.104909
-0.094932
-0.0848415
-0.0796153
-0.0843664
-0.0941854
-0.0941854
-0.0893212
-0.0844569
-0.0795248
-0.0645474
-0.07457
-0.0795475
-0.0845927
-0.0797059
-0.0749094
-0.0701357
-0.0602941
-0.0554298
-0.0605882
-0.0706787
-0.0707013
-0.0707013
-0.0557918
-0.025905
-0.0111538
-0.0164253
-0.0117194
-0.0119457
-0.0121719
-0.017466
0.00214931
0.0116064
0.026086
0.035724
0.0254525
0.0303846
0.0204299
0.025543
0.0256109
0.040724
0.0458598
0.056086
0.0564027
0.0467874
0.0372625
0.0278054
0.0183484
0.0038009
-0.00592759
-0.0107692
-0.0155656
-0.0153393
-0.0301131
-0.0498191
-0.0647738
-0.08
-0.0804978
-0.0911313
-0.0817874
-0.0674435
-0.0681222
-0.0738688
-0.0846833
-0.105656
-0.0967874
-0.0781448
-0.0697059
-0.0663801
-0.0630091
-0.0697286
-0.0812896
-0.0931901
-0.100769
-0.088439
-0.0729412
-0.0735295
-0.0647059
-0.0857693
-0.12552
-0.11776
-0.106358
-0.0856562
-0.0658145
-0.0534163
-0.0607466
-0.0644796
-0.0562443
-0.0515158
-0.0505204
-0.0525791
-0.0511086
-0.0545023
-0.0618326
-0.0678733
-0.0885294
-0.103167
-0.11776
-0.117557
-0.102489
-0.0975566
-0.0925792
-0.0924888
-0.0923983
-0.102308
-0.0972399
-0.102172
-0.102104
-0.0920815
-0.0769911
-0.0817648
-0.0914707
-0.106086
-0.125747
-0.13543
-0.120226
-0.100023
-0.0898417
-0.0845702
-0.0992308
-0.113891
-0.113462
-0.113122
-0.102873
-0.0926697
-0.0774887
-0.0773304
-0.0871493
-0.0969457
-0.0917647
-0.0966968
-0.101787
-0.111968
-0.0921719
-0.0873755
-0.0674886
-0.0575339
-0.0476244
-0.0476697
-0.032828
-0.00800902
-0.00328049
0.0265159
0.0313349
0.0261765
0.0211087
0.0209955
0.00592762
0.000791878
-0.00434387
-0.019457
-0.0293891
-0.0442308
-0.0539366
-0.0535294
-0.0681221
-0.0877602
-0.112443
-0.122172
-0.121878
-0.111561
-0.116199
-0.120882
-0.100566
-0.115339
-0.0902036
-0.0651357
-0.0301357
-0.00506786
0.00502264
0.015181
0.0404072
0.0706109
0.110814
0.16595
0.225973
0.286063
0.346267
0.401606
0.441991
0.482353
0.532647
0.652828
0.837986
0.913122
1.38333
1.67857
1.86389
1.89928
1.70957
1.31966
0.739751
0.0698417
-0.544955
-0.859706
-0.839434
-0.624253
-0.349163
-0.154095
-0.0690724
-0.069095
-0.104095
-0.139072
-0.149027
-0.148937
-0.153869
-0.158937
-0.154118
-0.134389
-0.134615
-0.119683
-0.124706
-0.139661
-0.149593
-0.144661
-0.124819
-0.114909
-0.105023
-0.100113
-0.110113
-0.135023
-0.154977
-0.165045
-0.145136
-0.135294
-0.115407
-0.125385
-0.120226
-0.135045
-0.144796
-0.139661
-0.14457
-0.134502
-0.119412
-0.114299
-0.104163
-0.0939592
-0.0936877
-0.0885067
-0.0783484
-0.0582126
-0.0330769
-0.0130316
-0.00803161
0.00705889
0.017172
0.0174209
0.0226697
0.0178733
0.0430091
0.0480769
0.06319
0.0683032
0.0735294
0.0836878
0.0737104
0.0736199
0.0684615
0.0732353
0.0780543
0.0728959
0.0476923
0.0324887
0.0122851
-0.0129412
-0.0230995
-0.0232353
-0.0234615
-0.023733
-0.0440045
-0.0591855
-0.0741855
-0.069095
-0.0690045
-0.0638462
-0.0638462
-0.0638688
-0.0638461
-0.0787556
-0.0934615
-0.0982352
-0.0980995
-0.0930542
-0.0980316
-0.0929411
-0.0877375
-0.0923981
-0.096923
-0.11638
-0.12086
-0.110543
-0.100385
-0.0852488
-0.0897285
-0.088552
-0.0875792
-0.0753394
-0.0828959
-0.0809049
-0.0741403
-0.0644796
-0.0564027
-0.0497737
-0.0643213
-0.0691628
-0.0777149
-0.0790271
-0.0734841
-0.0668778
-0.0553846
-0.0445023
-0.0491855
-0.0492534
-0.0544797
-0.0696833
-0.069819
-0.0599321
-0.0500905
-0.0452036
-0.0552262
-0.0752941
-0.0803167
-0.0903619
-0.0954977
-0.0656787
-0.0558822
-0.0659954
-0.0660859
-0.0710859
-0.081018
-0.0859954
-0.0811312
-0.0664253
-0.0768099
-0.0821266
-0.102376
-0.117466
-0.127511
-0.122489
-0.132556
-0.122715
-0.127941
-0.123235
-0.128484
-0.123642
-0.11871
-0.118756
-0.133823
-0.12405
-0.129299
-0.119593
-0.124796
-0.109819
-0.109751
-0.109751
-0.109842
-0.12009
-0.110362
-0.0906108
-0.0757918
-0.0457239
-0.0305203
-0.0252489
-0.0199547
0.000271499
0.0254299
0.0454525
0.0604299
0.0604073
0.0454751
0.0355656
0.0306787
0.0206561
0.00558823
0.000429869
-0.0147737
-0.0349773
-0.0351131
-0.0501583
-0.0601357
-0.0801357
-0.110226
-0.13543
-0.140656
-0.135928
-0.116109
-0.0861538
-0.0710859
-0.0509954
-0.0709955
-0.0461538
-0.0164027
0.0283485
0.0632127
0.0880317
0.117919
0.147828
0.177624
0.222376
0.281991
0.366561
0.441177
0.495905
0.530747
0.570521
0.690272
0.88
1.12973
1.41446
1.49914
1.7738
1.73351
1.47333
1.06324
0.513122
-0.086991
-0.562172
-0.757353
-0.717557
-0.497715
-0.277828
-0.152873
-0.102941
-0.102941
-0.117941
-0.133077
-0.143213
-0.138326
-0.143348
-0.143281
-0.133258
-0.128348
-0.128484
-0.123688
-0.123959
-0.114027
-0.114005
-0.109027
-0.118959
-0.128959
-0.12905
-0.119186
-0.104276
-0.0942534
-0.0891629
-0.094095
-0.109118
-0.129253
-0.139457
-0.134661
-0.124887
-0.105045
-0.0952262
-0.0953167
-0.100452
-0.115588
-0.110701
-0.095837
-0.0610406
-0.051199
-0.0313348
-0.0314705
-0.0465836
-0.0466289
-0.0267194
0.00814486
0.0530544
0.0579865
0.0580091
0.0381901
0.00843894
-0.0161764
-0.0157465
-0.0153845
0.00497743
0.0303168
0.0507241
0.0612444
0.0568779
0.0424887
0.0428733
0.0331222
0.0381675
0.0330996
0.0329186
0.0177829
0.00760183
-0.00764701
-0.0279185
-0.0432126
-0.0585067
-0.0537556
-0.0440271
-0.0343438
-0.0246379
-0.0399094
-0.0699999
-0.0948868
-0.0996606
-0.0942986
-0.0739366
-0.0585068
-0.0578733
-0.0770362
-0.0710633
-0.08
-0.0788688
-0.0576244
-0.0513122
-0.0398416
-0.0330995
-0.0309276
-0.0433711
-0.0505656
-0.0376471
-0.0295927
-0.0210181
-0.00669682
-0.0113348
0.00529414
0.022172
0.0300227
0.0220815
0.0170816
0.0148869
0.0130544
0.0174209
0.00907245
0.0101584
-0.00230762
-0.00667414
-0.0125791
-0.0105882
-0.0218551
-0.0230542
-0.00518095
-0.00361985
0.00185522
-0.00837103
-0.0238235
-0.0243213
-0.0197737
-0.0151583
-0.0105882
-0.00104067
-0.0165158
-0.0269456
-0.0274207
-0.0479411
-0.0385293
-0.029208
-0.0249094
-0.0305881
-0.0411764
-0.0666968
-0.0672397
-0.0678054
-0.058552
-0.0544795
-0.0504977
-0.0564479
-0.0623302
-0.0631221
-0.0789366
-0.0748868
-0.0710407
-0.0723302
-0.0685746
-0.0698416
-0.0709728
-0.0821493
-0.0733032
-0.0845928
-0.0860407
-0.0775339
-0.0690272
-0.0804751
-0.0967421
-0.108032
-0.124344
-0.125814
-0.127489
-0.124344
-0.106267
-0.103145
-0.0799548
-0.0715611
-0.0780317
-0.0893892
-0.085724
-0.0521041
-0.0335521
0.00502256
0.0187556
0.0276018
0.0116515
0.00570133
-0.000181049
0.00398186
-0.00690052
-0.0176698
-0.0483485
-0.0738688
-0.0892308
-0.0994797
-0.0996155
-0.119751
-0.135045
-0.145407
-0.155769
-0.176086
-0.16629
-0.18138
-0.181493
-0.176652
-0.17181
-0.157036
-0.152285
-0.137421
-0.127466
-0.127489
-0.137443
-0.147511
-0.147692
-0.137941
-0.12819
-0.123394
-0.0985295
-0.0785068
-0.0734842
-0.0434616
0.0165611
0.151493
0.346335
0.421176
0.896041
1.13595
1.26093
1.19091
0.910905
0.445814
-0.0992534
-0.614321
-0.949299
-0.964321
-0.774344
-0.499253
-0.269163
-0.10905
-0.0639592
-0.0539819
-0.053914
-0.0638235
-0.0537104
-0.0435747
-0.038371
-0.0382579
-0.0281674
-0.0130996
-0.00812218
0.00187784
0.00694568
0.0120362
0.00717194
0.00230767
0.0123755
0.0124208
0.0375113
0.0575792
0.0676923
0.057828
0.0529864
0.0531222
0.0681901
0.0981448
0.1381
0.1531
0.148077
0.168145
0.173235
0.193326
0.208326
0.238326
0.258235
0.26819
0.288281
0.313439
0.318529
0.328529
0.333439
0.348235
0.363054
0.377851
0.392692
0.382647
0.38767
0.367805
0.358009
0.343167
0.333258
0.328281
0.343484
0.328801
0.299321
0.269887
0.225498
0.210996
0.18638
0.16172
0.152014
0.112217
0.077353
0.0473756
0.0222398
0.00696835
-0.00846153
-0.0240045
-0.0197059
-0.0304525
-0.0361991
-0.0419005
-0.0476471
-0.0583032
-0.0540951
-0.0648869
-0.0606109
-0.0561991
-0.0516064
-0.0568779
-0.0719684
-0.066991
-0.0769005
-0.0518552
-0.0418552
-0.0367873
-0.0266742
-0.0314932
-0.0413122
-0.0660407
-0.0756561
-0.0652262
-0.0547059
-0.0339366
-0.0275113
-0.0352262
-0.0426244
-0.0478733
-0.0470588
-0.0407239
-0.0297285
-0.0100679
-0.0125566
-0.0176244
-0.0401584
-0.0494117
-0.0593212
-0.0741402
-0.0788461
-0.0837782
-0.094095
-0.0898416
-0.115339
-0.119615
-0.121923
-0.121652
-0.123937
-0.115023
-0.116131
-0.10819
-0.106448
-0.100656
-0.105317
-0.105158
-0.119909
-0.129638
-0.139344
-0.13405
-0.143778
-0.128462
-0.133122
-0.132692
-0.142353
-0.142059
-0.126833
-0.116606
-0.111267
-0.115679
-0.110045
-0.124412
-0.128756
-0.128213
-0.117624
-0.107036
-0.0963574
-0.105543
-0.124774
-0.128891
-0.122941
-0.117059
-0.106176
-0.0954525
-0.0996606
-0.0938461
-0.0979864
-0.102104
-0.11138
-0.110701
-0.115271
-0.109955
-0.104774
-0.0846606
-0.089638
-0.0945701
-0.0996154
-0.0948642
-0.0952715
-0.0859728
-0.0667647
-0.0626697
-0.0486425
-0.0395927
-0.0356787
-0.0418778
-0.03319
-0.0196606
0.00382355
0.0272625
0.0407014
0.0342987
0.0229638
0.00174209
-0.00938913
-0.0204299
-0.00651586
-0.00744346
-0.0182579
-0.0438914
-0.0693439
-0.0945927
-0.119842
-0.125113
-0.150362
-0.150588
-0.150656
-0.165588
-0.165407
-0.17009
-0.164842
-0.159706
-0.164728
-0.169819
-0.159842
-0.154751
-0.164525
-0.159231
-0.154027
-0.153959
-0.149004
-0.139072
-0.13414
-0.119185
-0.109186
-0.0841176
-0.0540497
-0.00909501
0.120769
0.290588
0.540339
0.820113
1.06493
1.20477
1.15964
0.889367
0.444163
-0.116063
-0.646357
-0.906674
-0.901923
-0.682172
-0.402353
-0.187489
-0.0776244
-0.0327828
-0.0479864
-0.0582806
-0.0685973
-0.0588009
-0.0539593
-0.0391629
-0.0242987
-0.0344571
-0.0247286
-0.0200453
-0.00533938
0.00950228
0.0144796
-0.000452489
0.00457014
-0.000452459
0.0144344
0.0442308
0.054095
0.0690951
0.0791855
0.0693213
0.0893665
0.0843213
0.0941855
0.11405
0.124005
0.164027
0.164118
0.174208
0.179367
0.189434
0.214457
0.229389
0.264321
0.279276
0.294276
0.299344
0.314502
0.31957
0.329615
0.344593
0.349615
0.369615
0.374706
0.374864
0.365113
0.35043
0.340747
0.331063
0.326335
0.336674
0.332014
0.327511
0.31319
0.283982
0.259661
0.230272
0.205747
0.181177
0.181561
0.152082
0.117624
0.0831448
0.0485068
0.00875568
0.00386882
-0.0062217
-0.00635746
-0.0216063
-0.0318778
-0.0522398
-0.0727376
-0.0933484
-0.0840724
-0.0698643
-0.0607013
-0.0565385
-0.0623529
-0.0780769
-0.0887557
-0.0995249
-0.0902941
-0.0710407
-0.0567421
-0.0572624
-0.0576018
-0.0578959
-0.0530769
-0.0732126
-0.0781674
-0.0729411
-0.057466
-0.0513574
-0.0444344
-0.0463801
-0.0520362
-0.0565837
-0.0455203
-0.0297285
-0.0401357
-0.0325339
-0.0174887
-0.019819
-0.0332805
-0.0417194
-0.0542308
-0.0654978
-0.0608598
-0.0607919
-0.0504977
-0.0453167
-0.0502262
-0.0852715
-0.0903846
-0.0907919
-0.0912443
-0.0928507
-0.0704525
-0.0740272
-0.0836199
-0.103801
-0.128869
-0.148054
-0.145611
-0.130928
-0.124005
-0.105385
-0.116267
-0.132828
-0.140407
-0.139072
-0.128462
-0.127964
-0.112534
-0.1069
-0.121109
-0.125271
-0.129321
-0.133484
-0.14267
-0.126878
-0.121018
-0.110068
-0.109095
-0.117964
-0.121787
-0.130566
-0.129367
-0.113167
-0.112014
-0.100837
-0.104615
-0.098371
-0.107059
-0.100724
-0.114457
-0.113371
-0.102421
-0.0965837
-0.0908371
-0.0950905
-0.0793439
-0.0886651
-0.103054
-0.112647
-0.0924208
-0.0874208
-0.0776244
-0.078009
-0.0785747
-0.0941402
-0.0999321
-0.105928
-0.0971493
-0.0985973
-0.0952715
-0.0769457
-0.0735973
-0.0752489
-0.0719683
-0.0536652
-0.0404978
-0.0174208
0.000588208
0.0187104
0.0319683
0.025362
0.0138688
0.00246607
-0.00393665
0.00459275
0.00823529
0.00703621
-0.00389139
-0.0395701
-0.0701131
-0.0755657
-0.0859955
-0.0862896
-0.101629
-0.111946
-0.122195
-0.132262
-0.142285
-0.142308
-0.147285
-0.147353
-0.142444
-0.127511
-0.132534
-0.137624
-0.132647
-0.137647
-0.14767
-0.147783
-0.132941
-0.128213
-0.113552
-0.0988461
-0.104118
-0.0942308
-0.0843665
-0.0645701
-0.0399321
0.0296154
0.0541403
0.323665
0.533326
0.758168
0.988009
1.13276
1.12242
0.931923
0.55638
0.0659277
-0.434412
-0.794638
-0.874796
-0.714977
-0.475317
-0.225747
-0.0761312
-0.0314027
-0.0216516
-0.0567873
-0.0719457
-0.0721493
-0.0573982
-0.0327149
-0.0180316
-0.00834838
-0.013552
-0.00873299
0.0011539
0.00104079
0.0058824
0.0106788
0.0204299
0.035181
0.05
0.0548643
0.0598643
0.0597512
0.0646381
0.0645023
0.0793666
0.109118
0.123846
0.138665
0.148507
0.143416
0.153349
0.163303
0.173145
0.202896
0.212625
0.237489
0.252398
0.26733
0.282263
0.282195
0.302036
0.31181
0.326539
0.341335
0.351177
0.346086
0.331109
0.331131
0.331109
0.316109
0.326154
0.326267
0.321584
0.306991
0.292511
0.273054
0.253507
0.228892
0.214208
0.219502
0.184864
0.160226
0.120566
0.0808824
0.0509277
0.030724
0.0255204
0.000181064
-0.0102262
-0.0207013
-0.0313348
-0.0570361
-0.0628054
-0.0586198
-0.0744117
-0.0652715
-0.0711086
-0.0718326
-0.0723982
-0.0728733
-0.0832579
-0.0736199
-0.0689366
-0.0593212
-0.0547059
-0.0399774
-0.0351131
-0.0400679
-0.0448643
-0.0696607
-0.059457
-0.0492534
-0.0490045
-0.0336425
-0.0279185
-0.0270588
-0.0549547
-0.0668779
-0.0628733
-0.042828
-0.0321719
-0.0116063
-0.0118778
-0.0238008
-0.033009
-0.0545022
-0.0577375
-0.0714253
-0.0594344
-0.0515385
-0.0627602
-0.0787104
-0.085181
-0.0975339
-0.0911086
-0.100724
-0.100995
-0.0963575
-0.105837
-0.118846
-0.12991
-0.128891
-0.131131
-0.12733
-0.123371
-0.115407
-0.113484
-0.112376
-0.111674
-0.121109
-0.140611
-0.120136
-0.114615
-0.11914
-0.113733
-0.103281
-0.0977376
-0.107149
-0.106448
-0.115724
-0.125181
-0.114638
-0.099095
-0.0935068
-0.0977602
-0.106991
-0.111109
-0.105181
-0.104299
-0.103394
-0.0976244
-0.0867873
-0.0808823
-0.0848869
-0.0937783
-0.102738
-0.106878
-0.101131
-0.0904298
-0.0897511
-0.0791855
-0.0785747
-0.098077
-0.0976471
-0.102353
-0.0922624
-0.0773303
-0.0725792
-0.0680091
-0.0685294
-0.0740272
-0.0697738
-0.0656787
-0.0717873
-0.0480995
-0.0245701
-0.0311538
-0.0127601
0.000633523
-0.000995442
0.0223982
0.0257693
0.0289367
0.0270589
0.0202263
0.0284164
0.02181
0.000316799
-0.021018
-0.0473303
-0.0735746
-0.0747964
-0.0908823
-0.0867647
-0.0874661
-0.0979864
-0.123326
-0.148597
-0.168869
-0.174186
-0.164525
-0.154774
-0.144887
-0.144887
-0.154842
-0.159796
-0.164774
-0.169932
-0.150113
-0.150271
-0.140317
-0.130294
-0.135272
-0.145272
-0.130362
-0.125543
-0.100837
-0.0811765
-0.0715385
-0.0318552
0.0228507
0.112534
0.272195
0.47681
0.71138
0.925973
1.0705
1.10509
0.934729
0.624389
0.204072
-0.261312
-0.641697
-0.862104
-0.897511
-0.672873
-0.438167
-0.248416
-0.143643
-0.0988235
-0.0791402
-0.0695475
-0.0798869
-0.0652036
-0.0504751
-0.0456334
-0.0357465
-0.0308144
-0.0409728
-0.0361539
-0.00140269
0.00828059
0.0180317
0.017896
0.0128055
0.017715
0.0175792
0.0223982
0.0472399
0.0570589
0.0868552
0.0917422
0.0866969
0.0816743
0.0716516
0.0965611
0.131448
0.141244
0.151041
0.155905
0.165814
0.165814
0.190814
0.200701
0.215543
0.245362
0.260226
0.280181
0.295226
0.300249
0.300272
0.320272
0.330294
0.335317
0.340317
0.345362
0.35052
0.350679
0.325973
0.32129
0.306652
0.302172
0.32267
0.328167
0.323688
0.304231
0.269774
0.240294
0.205724
0.201041
0.186086
0.170973
0.15086
0.110633
0.0804072
0.0452036
0.0198869
0.00932126
0.00361989
0.0077828
-0.0131222
-0.0239367
-0.0446606
-0.070362
-0.0660181
-0.0616969
-0.0573077
-0.047896
-0.0584615
-0.0638462
-0.0741403
-0.084276
-0.0693213
-0.0693213
-0.0643213
-0.0542986
-0.0492308
-0.0390498
-0.043733
-0.038371
-0.0327828
-0.0369683
-0.0457918
-0.0388914
-0.0361086
-0.0272851
-0.0124208
-0.0168552
-0.0111312
-0.0162217
-0.0278054
-0.0213801
-0.0221041
-0.0245928
-0.0280769
-0.0416742
-0.0544344
-0.0664253
-0.0730995
-0.0844796
-0.067104
-0.0707239
-0.0703619
-0.0756787
-0.0959728
-0.120362
-0.123167
-0.128823
-0.117353
-0.109276
-0.100452
-0.0916968
-0.0938009
-0.101719
-0.105475
-0.109774
-0.109321
-0.103982
-0.103597
-0.0980769
-0.092466
-0.106719
-0.110973
-0.110249
-0.114525
-0.109004
-0.113394
-0.0976696
-0.0918552
-0.0959728
-0.105113
-0.114253
-0.113439
-0.107534
-0.0966968
-0.095837
-0.0948416
-0.0988009
-0.112624
-0.101493
-0.100407
-0.0994117
-0.0983936
-0.0923982
-0.0913801
-0.0753846
-0.0743665
-0.078371
-0.0875113
-0.0768099
-0.0862443
-0.0957692
-0.0853167
-0.0798189
-0.0843665
-0.0940271
-0.0838687
-0.0839819
-0.0843439
-0.0798642
-0.0454524
-0.0360859
-0.0368099
-0.027647
-0.0236425
-0.0298868
-0.0162895
0.0121946
0.0156336
0.0240951
0.0326471
0.0211765
0.00970595
0.0130996
0.00138013
-0.00520357
-0.0266063
-0.037828
-0.0488461
-0.069819
-0.0906335
-0.116403
-0.127149
-0.142783
-0.153281
-0.143665
-0.148891
-0.148937
-0.158846
-0.158733
-0.168575
-0.163439
-0.153326
-0.153258
-0.143122
-0.137941
-0.15267
-0.162353
-0.162149
-0.151968
-0.1319
-0.111878
-0.101833
-0.0916969
-0.091629
-0.101493
-0.0614932
0.0034163
0.123258
0.163077
0.482919
0.722828
0.957783
1.09774
1.10769
0.922489
0.577217
0.111968
-0.353281
-0.718507
-0.878733
-0.828869
-0.628914
-0.439005
-0.254163
-0.139367
-0.0795702
-0.0547965
-0.0599322
-0.0650001
-0.0749775
-0.0749096
-0.0699548
-0.0700679
-0.0752037
-0.0404073
-0.0355204
-0.0256335
-0.0356109
-0.040543
-0.0305657
-0.0206336
-0.0107919
-0.0059277
0.0190271
0.0290497
0.0290723
0.0341176
0.0241402
0.0490723
0.0640271
0.0839592
0.0988687
0.113778
0.11371
0.12371
0.123733
0.133778
0.163778
0.17371
0.19862
0.203462
0.203281
0.213167
0.228054
0.247828
0.267398
0.291923
0.316357
0.315769
0.325158
0.319683
0.324253
0.328824
0.323439
0.348032
0.34767
0.347466
0.347443
0.337511
0.322715
0.308032
0.298303
0.308507
0.308823
0.284208
0.249683
0.215181
0.180656
0.161063
0.121335
0.101493
0.0864932
0.0764479
0.0463801
0.026267
0.00122172
-0.0338688
-0.0539593
-0.0641177
-0.0692308
-0.0594118
-0.0596833
-0.0598869
-0.0701584
-0.0803846
-0.0956561
-0.0961086
-0.0817873
-0.0779185
-0.0646154
-0.0720814
-0.0754977
-0.0999999
-0.0904298
-0.111357
-0.0967421
-0.0903846
-0.0864027
-0.0842534
-0.0949547
-0.0835068
-0.0864027
-0.0743212
-0.0669456
-0.0411538
-0.0416968
-0.0439819
-0.0483258
-0.0446832
-0.0426696
-0.0614026
-0.0799773
-0.0777375
-0.0747284
-0.0709049
-0.076561
-0.0719457
-0.0872171
-0.102511
-0.117896
-0.123348
-0.113869
-0.104457
-0.10009
-0.0906787
-0.106154
-0.111606
-0.127104
-0.132692
-0.118394
-0.119118
-0.109864
-0.115611
-0.13129
-0.136878
-0.137511
-0.143258
-0.144163
-0.140181
-0.136154
-0.132081
-0.127941
-0.128824
-0.129706
-0.145701
-0.136742
-0.142896
-0.13905
-0.135068
-0.121063
-0.116946
-0.122783
-0.128643
-0.124502
-0.105226
-0.0708824
-0.051448
-0.0318779
-0.0271267
-0.0173529
-0.012466
-0.0125566
-0.0125792
-0.0124434
-0.00221719
-0.0167647
-0.0361538
-0.045362
-0.0594344
-0.0783937
-0.0923982
-0.0914253
-0.0854072
-0.104208
-0.127828
-0.151425
-0.175181
-0.179095
-0.173167
-0.162353
-0.156674
-0.146063
-0.145498
-0.154909
-0.154457
-0.159095
-0.153937
-0.153937
-0.149027
-0.159208
-0.154412
-0.129548
-0.134706
-0.119864
-0.120113
-0.105385
-0.0807692
-0.0411538
0.0585747
0.193303
0.383122
0.612986
0.862828
1.0776
1.18735
1.05708
0.711946
0.196855
-0.383213
-0.818213
-0.973303
-0.878326
-0.638371
-0.563439
-0.20353
-0.0935069
-0.0534616
-0.0633259
-0.0832128
-0.0880544
-0.0828961
-0.0678734
-0.0479187
-0.0278734
-0.0227151
-0.0225114
-0.0223078
-0.0221268
-0.0220589
-0.00705893
-0.00214945
0.0127601
0.0327827
0.0428506
0.0279863
0.0381673
0.0382352
0.0582804
0.0682352
0.0881673
0.103213
0.118258
0.128371
0.118416
0.123394
0.143394
0.168371
0.208235
0.223122
0.238032
0.242964
0.247896
0.267851
0.282783
0.307557
0.32724
0.351878
0.361516
0.361109
0.365724
0.365407
0.360045
0.36457
0.374004
0.358507
0.363213
0.363122
0.358235
0.343484
0.338778
0.324118
0.31457
0.305023
0.27552
0.251131
0.226946
0.19276
0.153462
0.124118
0.0896154
0.0850679
0.0754299
0.0558371
0.0262896
-0.0133484
-0.0430769
-0.0429864
-0.0430316
-0.0431221
-0.0382126
-0.04819
-0.0532126
-0.0581674
-0.07319
-0.0733936
-0.0736877
-0.0541176
-0.0547285
-0.0556108
-0.0469457
-0.0489819
-0.0568099
-0.0554977
-0.0595249
-0.0543439
-0.0639592
-0.0573755
-0.0589819
-0.0683936
-0.0604977
-0.0609049
-0.070475
-0.0597963
-0.0590271
-0.0330769
-0.0370362
-0.0416968
-0.0379864
-0.0365384
-0.0527601
-0.0509954
-0.0650226
-0.0736651
-0.0661991
-0.0634389
-0.0690498
-0.0791629
-0.104185
-0.104276
-0.109548
-0.104932
-0.0903393
-0.0906561
-0.10586
-0.125882
-0.130973
-0.136041
-0.126176
-0.116425
-0.116742
-0.112036
-0.117285
-0.132489
-0.132647
-0.142851
-0.143213
-0.133597
-0.134095
-0.129525
-0.129909
-0.140271
-0.140588
-0.14595
-0.136357
-0.136991
-0.147647
-0.143258
-0.123688
-0.128937
-0.129163
-0.129344
-0.124615
-0.124909
-0.120113
-0.0852488
-0.0802488
-0.0600904
-0.0647963
-0.0493891
-0.0489818
-0.0484388
-0.0329411
-0.0123981
0.00332586
-0.00579177
-0.0298868
-0.0388009
-0.0626018
-0.0714027
-0.0751131
-0.0737782
-0.0923529
-0.0908597
-0.0992533
-0.122738
-0.156244
-0.169909
-0.163688
-0.162624
-0.141719
-0.150905
-0.145068
-0.154208
-0.158394
-0.157851
-0.162443
-0.147217
-0.141991
-0.136674
-0.131312
-0.145905
-0.13052
-0.135204
-0.119932
-0.089751
-0.0696153
-0.0444569
0.000746727
0.0609956
0.166222
0.311516
0.491787
0.707014
0.777217
0.967466
0.922738
0.673032
0.298462
-0.146109
-0.555747
-0.795317
-0.789955
-0.614683
-0.384367
-0.209027
-0.118529
-0.0930316
-0.0776017
-0.0922172
-0.0818552
-0.0715837
-0.051267
-0.0409276
-0.045543
-0.0350905
-0.034638
-0.0342534
-0.013914
-0.00871038
0.0114706
0.0317195
0.0420362
0.0373982
0.0327602
0.0130091
0.0331448
0.0282127
0.0432806
0.0684389
0.0836652
0.0938914
0.0891629
0.094344
0.104457
0.124548
0.14457
0.15957
0.184615
0.189751
0.189932
0.205068
0.210158
0.235204
0.255158
0.295068
0.304955
0.314796
0.299615
0.299502
0.309321
0.313982
0.338552
0.348122
0.34767
0.347376
0.342308
0.327285
0.322353
0.307421
0.307602
0.282896
0.293303
0.278869
0.244593
0.22052
0.201403
0.167217
0.142941
0.138507
0.104072
0.0895928
0.055181
0.0306788
-0.00382346
-0.013371
-0.0330769
-0.0229411
-0.0328732
-0.0378054
-0.0327149
-0.0475339
-0.0573755
-0.0722172
-0.0821267
-0.0521493
-0.0622624
-0.0524434
-0.052647
-0.0728733
-0.0832579
-0.0890724
-0.0957466
-0.0883936
-0.0873529
-0.0874887
-0.0833936
-0.0943212
-0.0893212
-0.102262
-0.0975112
-0.0997511
-0.0892533
-0.0771267
-0.0594118
-0.0625792
-0.0510859
-0.0558144
-0.0721945
-0.0704525
-0.0658371
-0.0780543
-0.0713349
-0.0695475
-0.0769909
-0.0884615
-0.104186
-0.114548
-0.109842
-0.100136
-0.0954751
-0.0907919
-0.0960407
-0.111244
-0.126403
-0.131629
-0.1269
-0.117149
-0.117443
-0.112715
-0.107941
-0.1281
-0.138213
-0.133326
-0.133507
-0.123801
-0.119299
-0.109774
-0.115339
-0.12586
-0.13129
-0.131719
-0.137217
-0.122828
-0.123552
-0.119321
-0.115045
-0.110656
-0.111244
-0.131742
-0.13733
-0.128009
-0.128665
-0.119412
-0.105045
-0.0854978
-0.0807466
-0.0809276
-0.0710634
-0.0662896
-0.0565837
-0.0218326
-0.00203617
0.00296384
0.00812221
-0.0216516
-0.0363574
-0.0410407
-0.0407239
-0.0452941
-0.0548416
-0.0792307
-0.103552
-0.12276
-0.136878
-0.166018
-0.165249
-0.174547
-0.163869
-0.153235
-0.162624
-0.157104
-0.171561
-0.171176
-0.170905
-0.170747
-0.160633
-0.160543
-0.160407
-0.155317
-0.160249
-0.160204
-0.165226
-0.160317
-0.155566
-0.135882
-0.116041
-0.106267
-0.0864253
-0.076561
-0.0367873
0.0629413
0.237602
0.467195
0.751833
1.02652
1.22627
1.25111
1.07091
0.660724
0.125453
-0.434842
-0.89509
-1.07527
-0.990385
-0.72543
-0.460475
-0.235566
-0.120679
-0.0808597
-0.0560633
-0.0611764
-0.0662895
-0.0762895
-0.0712669
-0.0563348
-0.0464253
-0.0365837
-0.026742
-0.0118552
-0.0168552
-0.0118326
-0.0167195
-0.00667422
-0.00671946
0.00316741
0.0230317
0.0178733
0.0278506
0.0428507
0.0378507
0.0428733
0.0527828
0.0626471
0.0724887
0.0923529
0.11724
0.132195
0.147262
0.152285
0.157262
0.17224
0.197172
0.217036
0.247014
0.266968
0.277014
0.272104
0.282217
0.287308
0.312217
0.332059
0.341946
0.366878
0.366923
0.347036
0.342217
0.33733
0.337353
0.342308
0.357217
0.357149
0.352217
0.33233
0.307398
0.292398
0.277195
0.2669
0.251606
0.221357
0.201176
0.165995
0.125769
0.11052
0.0752489
0.0449774
0.0396154
0.034276
0.00398189
-0.0111765
-0.0111991
-0.0261539
-0.046086
-0.0461313
-0.0462217
-0.0563575
-0.0564254
-0.0714254
-0.0714254
-0.0714028
-0.0713801
-0.0613575
-0.0613575
-0.0564707
-0.0366064
-0.0316743
-0.0365838
-0.0313349
-0.0361313
-0.0408371
-0.0406109
-0.0403168
-0.0296381
-0.0181901
-0.0158371
-0.0175792
-0.0238236
-0.0303847
-0.0232353
-0.0182806
-0.011267
-0.00701362
-0.029525
-0.0472399
-0.0632127
-0.071086
-0.0804525
-0.0622625
-0.0633032
-0.0650453
-0.0580544
-0.0721494
-0.0819684
-0.0970589
-0.0972399
-0.0823077
-0.0872173
-0.0870589
-0.0969005
-0.101719
-0.116539
-0.116448
-0.131357
-0.121312
-0.116267
-0.116267
-0.116244
-0.106109
-0.126018
-0.13086
-0.125679
-0.125498
-0.120407
-0.120317
-0.110158
-0.115023
-0.109796
-0.119502
-0.134208
-0.128891
-0.128688
-0.133552
-0.123416
-0.1131
-0.122715
-0.117217
-0.131742
-0.136335
-0.136018
-0.130769
-0.110611
-0.100339
-0.1
-0.109661
-0.124231
-0.123891
-0.118733
-0.0986878
-0.0786878
-0.0536878
-0.0385747
-0.0333258
-0.0280543
-0.0177602
-0.00257918
0.017466
0.0324661
0.0374208
0.0324434
0.0224434
0.00230768
-0.00785068
-0.0230996
-0.0434615
-0.0587557
-0.0740498
-0.0843213
-0.0895475
-0.109661
-0.129751
-0.149796
-0.174774
-0.174729
-0.164661
-0.154593
-0.144434
-0.159276
-0.164027
-0.163891
-0.168756
-0.16371
-0.16871
-0.163597
-0.143416
-0.133122
-0.14276
-0.157421
-0.172149
-0.151878
-0.151719
-0.126538
-0.101335
-0.0861086
-0.0808371
-0.0505656
0.034638
0.199751
0.469774
0.779796
1.08482
1.32495
1.40011
1.23032
0.815453
0.25052
-0.34948
-0.85948
-1.15948
-1.10441
-0.834321
-0.514231
-0.249072
-0.0939593
-0.038914
-0.0290045
-0.0491177
-0.0691629
-0.0741856
-0.0641177
-0.0590498
-0.0440046
-0.0290724
-0.0241629
-0.0193665
-0.00945705
0.000520349
0.00552034
0.000588223
0.00570136
0.000701368
0.0105882
0.00549774
0.0304073
0.040362
0.0353394
0.0503846
0.0503846
0.060362
0.0752715
0.0850679
0.114955
0.13491
0.14991
0.134955
0.140023
0.144977
0.169932
0.194842
0.209729
0.234615
0.259525
0.259525
0.26457
0.274638
0.279683
0.29957
0.319457
0.339344
0.344276
0.344389
0.32457
0.309864
0.305136
0.29543
0.300611
0.305792
0.301041
0.29629
0.271516
0.261629
0.261584
0.24638
0.231063
0.215656
0.185158
0.149683
0.114231
0.0988009
0.0683937
0.0329185
0.00744341
-0.00803171
-0.0285973
-0.0540498
-0.0543439
-0.0745249
-0.0845702
-0.104683
-0.0948417
-0.0950679
-0.0753394
-0.0656109
-0.0808824
-0.0960408
-0.116041
-0.111018
-0.100996
-0.091086
-0.086267
-0.0664254
-0.0765611
-0.081629
-0.0865611
-0.086448
-0.0763122
-0.0611991
-0.0457918
-0.0347738
-0.0425565
-0.034276
-0.0502715
-0.0411992
-0.0381448
-0.0373077
-0.0344797
-0.0347512
-0.0472172
-0.0653168
-0.0723304
-0.0864254
-0.0919231
-0.0996154
-0.101176
-0.0930996
-0.0761312
-0.0702489
-0.0701358
-0.0804525
-0.100792
-0.111063
-0.111267
-0.10138
-0.0965158
-0.086629
-0.101719
-0.111787
-0.116833
-0.131855
-0.131968
-0.127081
-0.107353
-0.107579
-0.107783
-0.112941
-0.118032
-0.123167
-0.118303
-0.108529
-0.103801
-0.0940045
-0.109163
-0.124186
-0.139072
-0.138914
-0.133846
-0.118914
-0.114095
-0.119163
-0.119185
-0.119163
-0.11905
-0.118891
-0.118801
-0.123801
-0.128869
-0.108959
-0.108982
-0.103914
-0.0937557
-0.113597
-0.103529
-0.113597
-0.103756
-0.103914
-0.069095
-0.0541855
-0.0492307
-0.0343212
-0.0244117
-0.00463797
0.0200679
0.0347738
0.0494344
0.0540498
0.0537331
0.0333258
0.012896
-0.00257917
-0.0130317
-0.0185746
-0.0392307
-0.0597963
-0.0652715
-0.0907013
-0.116109
-0.131425
-0.151878
-0.152376
-0.147941
-0.133371
-0.128665
-0.123801
-0.128846
-0.148959
-0.164163
-0.159548
-0.169955
-0.160317
-0.155543
-0.140679
-0.145747
-0.135837
-0.141041
-0.13629
-0.136652
-0.101968
-0.0821946
-0.052353
-0.047353
0.0275565
0.172398
0.397149
0.696946
1.01679
1.26667
1.38661
1.27156
0.901493
0.361335
-0.228846
-0.754027
-1.05428
-1.03959
-0.80491
-0.505158
-0.255249
-0.105181
-0.0300905
-0.0300905
-0.0352036
-0.045362
-0.0504751
-0.0305203
-0.0304977
-0.0304072
-0.025362
-0.0204298
-0.0206335
-0.00585972
-0.00110859
0.0287557
0.0287783
0.0188009
0.0338688
0.0288914
0.0338235
0.0486878
0.0685973
0.088552
0.0885747
0.0886878
0.088733
0.0786878
0.083552
0.088371
0.123235
0.15319
0.15319
0.168235
0.173258
0.178281
0.193258
0.208258
0.233213
0.258122
0.268054
0.273077
0.273167
0.273303
0.278462
0.298484
0.308507
0.313416
0.308416
0.303439
0.288643
0.283982
0.289253
0.284593
0.289842
0.295045
0.295339
0.290724
0.286086
0.256448
0.246697
0.216742
0.191606
0.171403
0.161199
0.151041
0.10586
0.0706335
0.0404299
0.0101132
-0.0101809
-0.000452459
-0.000746563
-0.0059728
-0.0261086
-0.0560859
-0.0709276
-0.0807466
-0.0806108
-0.0756335
-0.0557013
-0.045724
-0.045724
-0.0656108
-0.0804299
-0.0752262
-0.0800905
-0.0599774
-0.0548643
-0.0297285
-0.0296154
-0.0342534
-0.0338009
-0.0582579
-0.0477149
-0.0270135
-0.0257692
-0.0286199
-0.0354525
-0.0414932
-0.042285
-0.0387104
-0.037104
-0.0285746
-0.0281674
-0.0449773
-0.0421945
-0.0427149
-0.0499774
-0.0589593
-0.0759728
-0.102738
-0.105158
-0.0933936
-0.0874887
-0.0870814
-0.0969231
-0.101765
-0.111448
-0.116109
-0.120837
-0.105656
-0.080543
-0.0904525
-0.0852941
-0.105113
-0.119729
-0.119457
-0.129276
-0.124163
-0.109072
-0.0989593
-0.10371
-0.103394
-0.113032
-0.12267
-0.122421
-0.117308
-0.112262
-0.102262
-0.107195
-0.112014
-0.116765
-0.131584
-0.12638
-0.126312
-0.116312
-0.121312
-0.111335
-0.10629
-0.116244
-0.116199
-0.131199
-0.136312
-0.131516
-0.121787
-0.112014
-0.0971946
-0.10733
-0.112489
-0.11767
-0.132964
-0.113303
-0.11371
-0.0841176
-0.0544344
-0.0496833
-0.0548416
-0.035
-0.0302036
-0.00554298
0.0192081
0.0390045
0.038914
0.0288914
0.0140045
-0.000746623
-0.0106335
-0.0205204
-0.0204299
-0.0503846
-0.0703394
-0.0851131
-0.0998417
-0.114502
-0.134208
-0.15905
-0.158937
-0.153824
-0.138756
-0.143665
-0.148484
-0.163235
-0.177919
-0.18767
-0.177602
-0.167557
-0.152624
-0.157534
-0.157376
-0.152104
-0.171833
-0.171606
-0.161471
-0.156516
-0.116538
-0.0914706
-0.0663349
0.00886874
0.154004
0.349095
0.609118
0.929072
1.23898
1.389
1.28912
0.854276
0.179434
-0.525317
-1.01514
-1.15002
-0.954978
-0.660045
-0.405136
-0.215136
-0.110068
-0.0649548
-0.0699095
-0.0848643
-0.0899096
-0.0749774
-0.0499548
-0.0298417
-0.0246833
-0.0245476
-0.0243213
-0.0392082
-0.0141403
-0.00411771
0.0257918
0.0257465
0.0258823
0.0111086
0.0164027
0.0266968
0.0268326
0.0518778
0.0818778
0.0869231
0.101991
0.0921719
0.10233
0.117466
0.132534
0.142511
0.177443
0.197353
0.21224
0.232059
0.241878
0.266697
0.27638
0.290973
0.31543
0.334842
0.354231
0.363733
0.363258
0.357851
0.357398
0.356968
0.366539
0.371131
0.39095
0.38586
0.370973
0.361267
0.341606
0.336946
0.342421
0.342986
0.313801
0.274729
0.225815
0.191901
0.152919
0.113824
0.0996381
0.0653394
0.0409729
0.0216517
0.00221725
-0.0272624
-0.0367873
-0.0564027
-0.0661538
-0.0661086
-0.0711538
-0.0812669
-0.0712669
-0.071199
-0.0711538
-0.0763348
-0.0918778
-0.0981448
-0.0753167
-0.0685746
-0.0532126
-0.0742307
-0.0913574
-0.0987104
-0.104796
-0.103552
-0.0841628
-0.0666515
-0.0571493
-0.0521719
-0.0631221
-0.0805203
-0.0730769
-0.0716968
-0.0597963
-0.0417873
-0.027285
-0.036267
-0.0445022
-0.0582353
-0.0440271
-0.0579185
-0.0501131
-0.0495475
-0.059638
-0.0688461
-0.0717421
-0.0834389
-0.0943439
-0.104796
-0.100136
-0.105588
-0.0961991
-0.0968778
-0.122466
-0.127941
-0.113258
-0.118597
-0.13414
-0.129774
-0.135452
-0.126109
-0.111742
-0.117262
-0.142828
-0.153575
-0.174457
-0.175453
-0.151516
-0.14267
-0.133778
-0.139796
-0.14086
-0.1569
-0.158077
-0.159299
-0.150611
-0.146923
-0.13319
-0.129276
-0.115226
-0.106086
-0.0968778
-0.0927149
-0.0734615
-0.054095
-0.0395928
-0.0348642
-0.0248416
-0.039638
-0.0342986
-0.0338688
-0.0333032
-0.0425565
-0.0466968
-0.065543
-0.0941629
-0.112534
-0.125814
-0.134163
-0.137534
-0.14095
-0.149389
-0.162738
-0.190995
-0.189321
-0.202873
-0.201719
-0.195792
-0.184909
-0.179185
-0.163597
-0.158167
-0.167805
-0.172421
-0.182127
-0.186946
-0.181878
-0.166991
-0.142217
-0.147421
-0.132579
-0.152647
-0.15267
-0.152896
-0.108281
-0.0437104
0.100928
0.290679
0.540543
0.855362
1.17516
1.41484
1.46437
1.18887
0.653507
-0.0417647
-0.721878
-1.15699
-1.22206
-0.992195
-0.647421
-0.537738
-0.158032
-0.0783258
-0.0635068
-0.0736199
-0.0986878
-0.113824
-0.10405
-0.0843891
-0.0746833
-0.0500226
-0.0453167
-0.0355656
-0.0358597
-0.0311991
-0.0415611
-0.026991
-0.022534
-0.00316745
0.0162443
0.0356335
0.0451584
0.0396833
0.0390498
0.0233484
0.0325566
0.0766742
0.0956562
0.0897059
0.108756
0.112828
0.116878
0.125815
0.164593
0.178326
0.207127
0.231063
0.250272
0.264615
0.274186
0.288756
0.298507
0.318235
0.337964
0.372715
0.387625
0.387692
0.382919
0.373213
0.368552
0.373824
0.394118
0.399457
0.384796
0.370249
0.345769
0.301335
0.281968
0.262602
0.243258
0.208869
0.16948
0.145091
0.090724
0.046267
0.0116516
-0.0130317
-0.0129185
-0.0178959
-0.0279638
-0.0280769
-0.0433484
-0.0641629
-0.0809728
-0.0739366
-0.0633937
-0.0543439
-0.0915837
-0.104412
-0.0967195
-0.102127
-0.114729
-0.139095
-0.135634
-0.135928
-0.116584
-0.0935521
-0.0769457
-0.0814027
-0.0965611
-0.126833
-0.127376
-0.0828507
-0.0483711
-0.0436426
-0.07362
-0.102896
-0.101312
-0.0786652
-0.049638
-0.0342534
-0.00282805
0.00880088
-0.0158145
-0.0278054
-0.0429864
-0.0313349
-0.0416516
-0.0323303
-0.031991
-0.0350906
-0.0376924
-0.0385747
-0.0541856
-0.0547285
-0.0553394
-0.056086
-0.0520589
-0.048077
-0.0490951
-0.0550679
-0.0559503
-0.0618552
-0.0577828
-0.0537783
-0.0498869
-0.0461991
-0.0325566
-0.0239367
-0.0302489
-0.0314932
-0.0526697
-0.0539367
-0.0454073
-0.036991
-0.0036878
0.00968324
0.0233258
0.0120814
0.00576922
0.00954749
0.0282805
0.0469909
0.0557692
0.0547737
0.0189819
-0.0115611
-0.0469231
-0.0670815
-0.107059
-0.111855
-0.15138
-0.160679
-0.159661
-0.163371
-0.186742
-0.214932
-0.233054
-0.241131
-0.234163
-0.207127
-0.2
-0.202692
-0.180339
-0.183009
-0.180724
-0.183529
-0.186561
-0.199683
-0.197896
-0.186154
-0.184548
-0.1931
-0.201697
-0.200656
-0.194864
-0.199299
-0.168891
-0.158484
-0.143054
-0.13767
-0.112262
-0.00703622
0.183009
0.437873
0.752805
1.08296
1.3733
1.51355
1.40373
0.998959
0.384095
-0.340882
-0.970905
-1.25591
-1.18077
-0.885611
-0.555294
-0.294955
-0.144683
-0.104548
-0.0645023
-0.0794118
-0.0690951
-0.0785521
-0.0779638
-0.0874435
-0.0871041
-0.0717874
-0.0614254
-0.0409503
-0.0304299
-0.0246833
-0.0238009
-0.033009
-0.0223077
-0.00176471
-0.00128958
0.0140271
0.0192986
0.0195475
0.0198643
0.0203394
0.0407692
0.0409955
0.0460407
0.0509955
0.0858824
0.10586
0.125928
0.125973
0.130995
0.141063
0.156199
0.171425
0.201719
0.237127
0.262624
0.273235
0.278982
0.284729
0.290611
0.321471
0.362353
0.388303
0.399321
0.395452
0.381674
0.378009
0.389253
0.390498
0.406719
0.418054
0.414457
0.405928
0.377466
0.353846
0.340091
0.316041
0.291787
0.262376
0.217964
0.178348
0.128665
0.0888914
0.0490271
0.0231674
0.00626698
-0.0119004
-0.0365385
-0.062647
-0.084819
-0.112398
-0.124253
-0.139095
-0.145973
-0.14948
-0.140204
-0.134796
-0.130136
-0.137149
-0.140769
-0.145452
-0.160747
-0.136199
-0.126584
-0.11181
-0.101968
-0.102059
-0.112127
-0.112149
-0.117285
-0.0923303
-0.0719683
-0.0457692
-0.0483937
-0.079638
-0.0993665
-0.102851
-0.0857919
-0.0742986
-0.0497059
-0.0329412
-0.0494344
-0.0587557
-0.0994118
-0.094819
-0.113982
-0.106765
-0.0984842
-0.0845701
-0.0955203
-0.10629
-0.112217
-0.1281
-0.134005
-0.150158
-0.141448
-0.137805
-0.129208
-0.130656
-0.132081
-0.158575
-0.185113
-0.196719
-0.193462
-0.175249
-0.146968
-0.11871
-0.0954073
-0.086991
-0.103575
-0.140158
-0.131787
-0.103326
-0.0648643
-0.0463123
-0.0326471
-0.0486426
-0.0644344
-0.0600679
-0.0604978
-0.0708371
-0.0910181
-0.10595
-0.115611
-0.134932
-0.148914
-0.157692
-0.176403
-0.179977
-0.208529
-0.221946
-0.225158
-0.228054
-0.230815
-0.218507
-0.221244
-0.229072
-0.216968
-0.219774
-0.207579
-0.210204
-0.20276
-0.205294
-0.217896
-0.215724
-0.21371
-0.181742
-0.154887
-0.158145
-0.161561
-0.155181
-0.148982
-0.128077
-0.112398
0.0830995
0.283439
0.54371
0.858891
1.18898
1.449
1.54391
1.37878
0.953575
0.293258
-0.452036
-1.07231
-1.32744
-1.17756
-0.80767
-0.442851
-0.2081
-0.0834163
-0.0587331
-0.0738688
-0.103937
-0.123891
-0.108756
-0.103756
-0.0988235
-0.068914
-0.0639819
-0.0488235
-0.0435973
-0.04819
-0.037828
-0.042647
-0.0276244
-0.00771487
0.0072625
0.0222851
0.0324435
0.0277376
0.0229186
0.0330996
0.0530091
0.0729638
0.0978055
0.122715
0.132625
0.142602
0.142511
0.162285
0.161901
0.156312
0.210611
0.229751
0.243959
0.268213
0.287579
0.302014
0.326471
0.340724
0.354864
0.373959
0.393122
0.397534
0.40224
0.407263
0.387376
0.387489
0.387511
0.397421
0.397557
0.397896
0.383462
0.364095
0.324819
0.300407
0.285882
0.24138
0.226901
0.202421
0.162919
0.118281
0.0735974
0.0337557
0.013801
0.00875574
-0.0163574
-0.0164706
-0.0417194
-0.0570814
-0.0874434
-0.0928507
-0.0985068
-0.0944344
-0.0909955
-0.083552
-0.0973077
-0.102534
-0.134118
-0.146629
-0.164321
-0.16586
-0.150226
-0.141561
-0.144706
-0.140385
-0.135475
-0.126584
-0.124502
-0.123982
-0.109412
-0.100136
-0.100724
-0.0902489
-0.0887557
-0.0810407
-0.0769231
-0.0764706
-0.0599095
-0.0629412
-0.0467421
-0.0274887
-0.0361991
-0.0482127
-0.0780769
-0.0891629
-0.0946154
-0.0934389
-0.0856788
-0.0768552
-0.0924887
-0.1081
-0.113778
-0.124706
-0.135792
-0.106855
-0.102986
-0.0991629
-0.110271
-0.136425
-0.132534
-0.148643
-0.144909
-0.141222
-0.132692
-0.119185
-0.125588
-0.132014
-0.143439
-0.159842
-0.151357
-0.158054
-0.134751
-0.136425
-0.128009
-0.13448
-0.125882
-0.127217
-0.123529
-0.104842
-0.076086
-0.0473303
-0.0285068
-0.00936648
-0.0150905
-0.0206787
-0.0361086
-0.0514027
-0.0565158
-0.0363801
-0.0360407
-0.0354525
-0.0445927
-0.0784615
-0.11224
-0.150837
-0.144344
-0.132828
-0.126199
-0.13448
-0.172602
-0.185679
-0.193665
-0.186697
-0.189774
-0.173032
-0.161403
-0.159796
-0.163394
-0.171991
-0.185611
-0.169412
-0.168416
-0.152692
-0.142172
-0.131787
-0.136425
-0.141154
-0.140882
-0.130747
-0.135724
-0.130905
-0.0811538
-0.0114253
0.123326
0.333145
0.608077
0.927987
1.23794
1.43776
1.48247
1.22213
0.726719
0.056448
-0.648778
-1.164
-1.26923
-1.04948
-0.654683
-0.304819
-0.0899321
-0.00488685
-0.0197964
-0.0597059
-0.0845701
-0.094457
-0.0893439
-0.054276
-0.0391855
-0.0340498
-0.0289593
-0.023733
-0.0283258
-0.0429638
-0.0326923
-0.0175339
-0.0075113
0.00253396
0.0176697
0.0178733
0.0231448
0.0433711
0.0434616
0.0684616
0.0833484
0.0931901
0.113213
0.128394
0.143597
0.158801
0.163891
0.168959
0.198914
0.218846
0.248801
0.268846
0.26905
0.289231
0.304344
0.309344
0.329276
0.364253
0.374231
0.389299
0.389344
0.389344
0.399253
0.394072
0.398801
0.398484
0.403235
0.403122
0.383145
0.368303
0.35862
0.343937
0.334299
0.324615
0.299932
0.270294
0.240882
0.201516
0.162172
0.12276
0.10819
0.0735295
0.0587557
0.0341629
0.00968328
-0.00975111
-0.034276
-0.0440045
-0.0638235
-0.0686652
-0.0785068
-0.078371
-0.0781222
-0.0877602
-0.087353
-0.102014
-0.121765
-0.121606
-0.121448
-0.106312
-0.101154
-0.090905
-0.0905883
-0.0953168
-0.0951358
-0.0901358
-0.0802489
-0.065905
-0.0572625
-0.059457
-0.0626018
-0.0766516
-0.095181
-0.104276
-0.116878
-0.111516
-0.0876018
-0.080181
-0.0508145
-0.0518778
-0.0460407
-0.0495475
-0.0518326
-0.0508372
-0.0596381
-0.0770589
-0.0830543
-0.103054
-0.102602
-0.102195
-0.101991
-0.096991
-0.0921494
-0.082353
-0.0924208
-0.0924208
-0.0923756
-0.11233
-0.137308
-0.137398
-0.12767
-0.127964
-0.103167
-0.108281
-0.123326
-0.128348
-0.133484
-0.138733
-0.124027
-0.109344
-0.0945249
-0.0946606
-0.104774
-0.134909
-0.135091
-0.145272
-0.145498
-0.135724
-0.125995
-0.116176
-0.116357
-0.126425
-0.146425
-0.146606
-0.136787
-0.122014
-0.12233
-0.122624
-0.127783
-0.122941
-0.118054
-0.0981448
-0.0832579
-0.053371
-0.0335068
-0.0186425
-0.0137783
-0.0138009
-0.013733
-0.023733
-0.0388009
-0.0438461
-0.0588461
-0.0637104
-0.0783937
-0.0929185
-0.122489
-0.132127
-0.136697
-0.131357
-0.131063
-0.145679
-0.160294
-0.194864
-0.209412
-0.214027
-0.203801
-0.198665
-0.193575
-0.198552
-0.193461
-0.193394
-0.203348
-0.218416
-0.228552
-0.21871
-0.208937
-0.204299
-0.189638
-0.184955
-0.175158
-0.185294
-0.190385
-0.185475
-0.170679
-0.130995
-0.0963574
0.018371
0.178235
0.413167
0.6931
1.02801
1.12281
1.52256
1.51224
1.16692
0.581674
-0.148462
-0.838529
-1.23851
-1.22357
-0.968688
-0.648846
-0.373937
-0.198959
-0.108914
-0.0739366
-0.0789366
-0.0941176
-0.099276
-0.0944344
-0.0745701
-0.0496606
-0.0346606
-0.0295701
-0.0295475
-0.0345475
-0.0295248
-0.0195927
0.000226334
0.025068
0.0399548
0.0347965
0.0248191
0.0197964
0.0296833
0.0545249
0.0843213
0.114095
0.118959
0.113959
0.119005
0.124072
0.149072
0.173914
0.188756
0.213484
0.218235
0.2331
0.243054
0.263032
0.268009
0.272805
0.312443
0.332014
0.356561
0.381244
0.395882
0.400475
0.409955
0.414344
0.408665
0.413032
0.422534
0.422217
0.427149
0.427172
0.40724
0.387262
0.382308
0.382534
0.367647
0.342783
0.302873
0.252964
0.193077
0.17319
0.158235
0.103258
0.0832353
0.05319
0.0181222
-0.0170814
-0.0423755
-0.0728733
-0.0835746
-0.0693665
-0.0752489
-0.0761764
-0.0822172
-0.103371
-0.109525
-0.105701
-0.0823077
-0.0792986
-0.0767194
-0.0793891
-0.0722398
-0.080181
-0.08819
-0.10138
-0.114932
-0.119299
-0.124796
-0.111674
-0.0947964
-0.0887783
-0.107941
-0.130973
-0.141448
-0.143077
-0.135136
-0.112896
-0.108778
-0.0879638
-0.0883258
-0.0915158
-0.0926923
-0.108009
-0.111425
-0.106471
-0.10129
-0.0998869
-0.117036
-0.127964
-0.1481
-0.147851
-0.157489
-0.137195
-0.142014
-0.1419
-0.146719
-0.151425
-0.165973
-0.175452
-0.169932
-0.164457
-0.16905
-0.16862
-0.168077
-0.172376
-0.171471
-0.160452
-0.174593
-0.168801
-0.163077
-0.157308
-0.151335
-0.150249
-0.154005
-0.167715
-0.161538
-0.165362
-0.159231
-0.153054
-0.15181
-0.135543
-0.139163
-0.152783
-0.16138
-0.155
-0.153597
-0.122172
-0.105747
-0.0891629
-0.0725113
-0.0857466
-0.0738914
-0.0620362
-0.0402036
-0.0133258
0.00850677
0.0202715
0.00703619
-0.0011086
-0.0342534
-0.0373077
-0.040362
-0.0284615
-0.0315611
-0.0796606
-0.0676697
-0.0756787
-0.078733
-0.0819457
-0.100385
-0.114095
-0.127896
-0.131719
-0.125701
-0.114706
-0.108801
-0.093009
-0.0873982
-0.0769457
-0.0466742
-0.0314479
-0.00113121
0.0142308
0.0446154
0.0648869
0.0700226
0.0750679
0.160113
0.230272
0.315475
0.380679
0.430882
0.456199
0.486425
0.531629
0.621765
0.79181
1.03683
1.34681
1.63695
1.86726
1.94267
1.80799
1.40317
0.788281
0.0583711
-0.556471
-0.876131
-0.850701
-0.600226
-0.319842
-0.244525
-0.0593213
-0.0642082
-0.104027
-0.138756
-0.153326
-0.152873
-0.147534
-0.147285
-0.142172
-0.132059
-0.121991
-0.11181
-0.101629
-0.111403
-0.116199
-0.126063
-0.125995
-0.120995
-0.110995
-0.10095
-0.100882
-0.115769
-0.130611
-0.15043
-0.160226
-0.13
-0.124819
-0.114683
-0.114548
-0.134412
-0.129253
-0.134095
-0.138937
-0.118869
-0.113824
-0.0988009
-0.0837104
-0.0735068
-0.0633032
-0.0630091
-0.0577376
-0.0475792
-0.0324887
-0.0173756
-0.0172851
-0.0119909
-0.00658369
-0.00110859
-0.000588208
0.00479639
0.020181
0.030543
0.0309276
0.0463575
0.0568778
0.0623982
0.0527828
0.0530317
0.0379865
0.0378281
0.0276019
0.00742087
0.0022625
-0.018009
-0.0331674
-0.0482578
-0.053371
-0.0535294
-0.0538461
-0.0541628
-0.0643891
-0.0845474
-0.0996379
-0.109683
-0.119683
-0.11457
-0.104434
-0.0941855
-0.0937782
-0.0982805
-0.112738
-0.117217
-0.0966742
-0.0861538
-0.0707013
-0.0652714
-0.0645022
-0.0685067
-0.0622397
-0.0607239
-0.0743438
-0.0580768
-0.0568551
-0.0507013
-0.0394796
-0.0327375
-0.0201131
-0.0312443
-0.0412443
-0.0405429
-0.0250678
-0.00615379
0.00472853
0.00649324
-0.011199
-0.0473303
-0.0847058
-0.0957918
-0.0934841
-0.0917647
-0.0714932
-0.0632353
-0.0745022
-0.0818551
-0.104728
-0.104547
-0.0949095
-0.0853393
-0.0755882
-0.0755882
-0.0753846
-0.0801809
-0.0849773
-0.0947963
-0.0947284
-0.0847285
-0.0848416
-0.0799321
-0.075
-0.0800226
-0.09
-0.100045
-0.110136
-0.120294
-0.125543
-0.120769
-0.125814
-0.11086
-0.105814
-0.100792
-0.100882
-0.100995
-0.106154
-0.10138
-0.0914706
-0.0915384
-0.101538
-0.121471
-0.121403
-0.126312
-0.126222
-0.116131
-0.111086
-0.110973
-0.105882
-0.120747
-0.130634
-0.130498
-0.125407
-0.110362
-0.100294
-0.0852263
-0.0700453
-0.0548643
-0.0546155
-0.0444118
-0.0292535
-0.00918558
0.0207918
0.0407013
0.0506335
0.050543
0.0404751
0.0153846
0.00018093
-0.0251358
-0.0255657
-0.0208825
-0.00610869
-0.0212444
-0.0563349
-0.0764028
-0.0865838
-0.0867648
-0.0919911
-0.102285
-0.102534
-0.117715
-0.122828
-0.127919
-0.108009
-0.0881675
-0.0633485
-0.0384391
-0.0185069
-0.00846164
0.00158362
0.0216515
0.0467194
0.056742
0.136742
0.186606
0.226493
0.28638
0.361335
0.416335
0.466448
0.501606
0.541561
0.616425
0.741222
0.951177
1.21627
1.51145
1.76667
1.91188
1.8669
1.60676
1.10665
0.411538
-0.298484
-0.773371
-0.883168
-0.683122
-0.603167
-0.188371
-0.0685521
-0.0486652
-0.0886426
-0.138575
-0.173484
-0.163394
-0.153348
-0.138348
-0.123371
-0.113394
-0.0983484
-0.103303
-0.10319
-0.103054
-0.102941
-0.0878959
-0.0929864
-0.0931448
-0.0933258
-0.108507
-0.118665
-0.113801
-0.123846
-0.118824
-0.113824
-0.103914
-0.0990046
-0.0890951
-0.0990724
-0.0989367
-0.098801
-0.0987557
-0.0888689
-0.0840046
-0.0842082
-0.079344
-0.059344
-0.0592761
-0.0391856
-0.0490951
-0.0391403
-0.0393213
-0.0244796
-0.0146154
-0.0146606
0.000361964
-0.0145023
-0.0143439
-0.0141629
0.00597283
0.0211538
0.0314253
0.0518325
0.0524208
0.0480995
0.0437556
0.0193439
0.0197738
0.0249547
0.0350226
0.0449095
0.0147511
-0.00542985
-0.0255656
-0.0358371
-0.0513122
-0.0469457
-0.0625792
-0.0631674
-0.058733
-0.064276
-0.0697738
-0.0752941
-0.0807466
-0.0861991
-0.0865158
-0.0866968
-0.0866968
-0.081448
-0.0909729
-0.0854299
-0.0898416
-0.0942987
-0.0786425
-0.0730543
-0.0570815
-0.0458823
-0.0445701
-0.0530091
-0.051267
-0.0694344
-0.067466
-0.0354298
-0.0283032
-0.0158823
-0.0381448
-0.0497737
-0.0555882
-0.0553846
-0.0543439
-0.0328733
-0.0167874
-0.016991
-0.00484169
-0.021448
-0.0372399
-0.0614254
-0.0524208
-0.0535973
-0.0549095
-0.0691403
-0.081629
-0.106878
-0.111493
-0.116177
-0.113665
-0.105407
-0.0977149
-0.101063
-0.100362
-0.105158
-0.105068
-0.114977
-0.114819
-0.114615
-0.109367
-0.0891176
-0.0839366
-0.0886878
-0.0934389
-0.0932579
-0.103122
-0.108054
-0.118099
-0.10819
-0.08819
-0.0880769
-0.0928959
-0.112647
-0.127511
-0.127421
-0.117398
-0.102376
-0.097285
-0.0870814
-0.101878
-0.121606
-0.13129
-0.136063
-0.130769
-0.115543
-0.095181
-0.099819
-0.0994117
-0.104004
-0.108642
-0.118258
-0.108032
-0.0978506
-0.0876696
-0.0874208
-0.0921041
-0.101719
-0.111222
-0.110837
-0.095543
-0.0803393
-0.0552488
-0.0252036
-0.0151357
-2.262e-05
0.010181
0.0202489
0.0251357
0.0398643
0.0494796
0.063914
0.0534163
0.0428733
0.0324208
0.0170136
0.00658372
-0.00393662
-0.0244796
-0.0299774
-0.0404298
-0.0507465
-0.0659728
-0.0961764
-0.126267
-0.131448
-0.131629
-0.10181
-0.101923
-0.0768778
-0.0817421
-0.0815837
-0.0664027
-0.061267
-0.0261991
0.00884618
0.0288009
0.0487783
0.0689593
0.0791629
0.134412
0.204502
0.289457
0.359344
0.429163
0.479005
0.518891
0.543824
0.628711
0.76362
0.978484
1.25326
1.54296
1.78274
1.89256
1.84742
1.58226
1.10706
0.926787
-0.213484
-0.733756
-0.88905
-0.754299
-0.509457
-0.284593
-0.164683
-0.124842
-0.130045
-0.145317
-0.155611
-0.165814
-0.150995
-0.141086
-0.156154
-0.156244
-0.156358
-0.156539
-0.136765
-0.122014
-0.107262
-0.122308
-0.13724
-0.147172
-0.152195
-0.137353
-0.127602
-0.112828
-0.112919
-0.117896
-0.137783
-0.137625
-0.147602
-0.137715
-0.117896
-0.113032
-0.108145
-0.128122
-0.128032
-0.122964
-0.112873
-0.102828
-0.0928733
-0.0729865
-0.0630543
-0.0630317
-0.0579638
-0.0578507
-0.0628281
-0.0678507
-0.0429638
-0.0280769
-0.0131674
-0.0131674
-0.00305432
-0.00278285
-0.00248873
-0.0120815
-0.0116742
0.00875564
0.0241402
0.0395475
0.065
0.0555203
0.0509728
0.0313122
0.0265158
0.0265837
0.0415384
0.0413348
0.0259954
0.0106108
-0.0198417
-0.0403394
-0.0459729
-0.0667195
-0.0576018
-0.0534616
-0.0592534
-0.0797738
-0.100181
-0.11543
-0.105611
-0.100792
-0.0909503
-0.0859729
-0.0807693
-0.0802715
-0.0845702
-0.0987331
-0.0978055
-0.0969231
-0.0857919
-0.0693891
-0.062534
-0.0502941
-0.0576697
-0.0498643
-0.0469004
-0.038914
-0.0306109
-0.0317421
-0.0169005
-0.0107466
0.00176468
0.0103393
0.0194117
0.0282352
0.0407917
0.0410859
0.0453845
0.0391854
0.0399773
0.0290723
0.00843886
-0.00861999
-0.0262218
-0.0243666
-0.0223756
-0.0240498
-0.0231449
-0.0439367
-0.0414933
-0.0367874
-0.0319458
-0.0283259
-0.0263575
-0.0106335
-0.0106788
-0.0109276
-0.0212896
-0.056629
-0.0620589
-0.0625339
-0.0480996
-0.0388009
-0.0344344
-0.0399548
-0.0604751
-0.0710181
-0.0866968
-0.0875113
-0.0733937
-0.0643439
-0.0602941
-0.0761764
-0.077104
-0.0930543
-0.089095
-0.0902488
-0.0964253
-0.0926017
-0.0788235
-0.0750226
-0.0761312
-0.0871945
-0.0882579
-0.0993438
-0.0855656
-0.0869004
-0.078371
-0.079819
-0.0712443
-0.077647
-0.0790723
-0.0856108
-0.0823076
-0.0941629
-0.086199
-0.0833484
-0.0704298
-0.062466
-0.0645022
-0.0664705
-0.0636199
-0.0508597
-0.0332579
-0.0206334
-0.00798638
0.0147738
0.022534
0.0252715
0.0279865
0.0256335
0.0382806
0.0309955
0.0287331
0.0167421
2.26498e-05
-0.0316289
-0.0580769
-0.0694796
-0.0908145
-0.0920136
-0.0830317
-0.108846
-0.124434
-0.154955
-0.180385
-0.190792
-0.191244
-0.171719
-0.172195
-0.162557
-0.177828
-0.193032
-0.208167
-0.198394
-0.193688
-0.173982
-0.159231
-0.149412
-0.149661
-0.164751
-0.174842
-0.169932
-0.170023
-0.160158
-0.145294
-0.120362
-0.0803846
-0.00538467
0.139638
0.359638
0.43457
0.994366
1.33912
1.57882
1.58857
1.28837
0.703213
-0.03681
-0.761901
-1.24701
-1.26717
-1.01238
-0.647579
-0.372692
-0.20267
-0.137625
-0.0974661
-0.087353
-0.0824209
-0.0875793
-0.0777829
-0.0528734
-0.0528734
-0.0677602
-0.0526697
-0.0476924
-0.0227828
-0.0130317
0.00171942
0.00656107
0.0165158
0.0215611
0.036448
0.0463349
0.0460634
0.0708145
0.0805656
0.0903167
0.110136
0.115091
0.115113
0.115136
0.115068
0.124887
0.15457
0.174321
0.198982
0.218575
0.2281
0.237624
0.242081
0.276493
0.310747
0.345
0.374163
0.398439
0.40276
0.407149
0.421584
0.431041
0.460498
0.474977
0.489593
0.47948
0.474683
0.465023
0.465611
0.456267
0.4469
0.432557
0.41319
0.393937
0.369729
0.320453
0.266063
0.246471
0.181606
0.151538
0.121312
0.100928
0.0654072
0.0298416
-0.0159276
-0.026991
-0.0483484
-0.0600452
-0.0670136
-0.064276
-0.0667647
-0.0844796
-0.0922172
-0.105339
-0.113756
-0.107828
-0.0927149
-0.0987104
-0.110973
-0.129502
-0.12905
-0.164208
-0.174163
-0.17776
-0.183824
-0.17681
-0.176584
-0.184095
-0.195679
-0.197579
-0.205136
-0.192986
-0.180452
-0.162873
-0.157896
-0.151222
-0.143394
-0.135475
-0.133937
-0.155068
-0.159615
-0.157421
-0.152466
-0.147557
-0.151471
-0.173756
-0.189774
-0.195136
-0.220249
-0.220181
-0.215113
-0.2
-0.189842
-0.199706
-0.20948
-0.229321
-0.229253
-0.224163
-0.218982
-0.198665
-0.198281
-0.202805
-0.217285
-0.231697
-0.211109
-0.210452
-0.189819
-0.189231
-0.188507
-0.192783
-0.202104
-0.21638
-0.225724
-0.225113
-0.21448
-0.188914
-0.168348
-0.167624
-0.146855
-0.120928
-0.104932
-0.0939367
-0.0829412
-0.0719683
-0.0408823
-0.0346606
-0.0232353
-0.0366742
-0.0400679
-0.038552
-0.0370588
-0.0404299
-0.0386878
-0.0366968
-0.0494796
-0.0871946
-0.13991
-0.152624
-0.180407
-0.183145
-0.17086
-0.168507
-0.161176
-0.168891
-0.181719
-0.164706
-0.147941
-0.116448
-0.0850452
-0.063914
-0.0378733
-0.0219909
0.00880091
0.0294796
0.05
0.100294
0.135475
0.185566
0.235633
0.300701
0.370792
0.42086
0.43586
0.505792
0.555588
0.685317
0.875113
1.12505
1.42505
1.72002
1.955
2.08993
2.02973
1.71948
1.16428
0.48414
-0.215905
-0.700928
-0.881018
-0.771244
-0.551516
-0.341765
-0.206946
-0.141991
-0.112014
-0.141968
-0.156923
-0.1669
-0.161878
-0.156833
-0.141946
-0.147059
-0.137149
-0.147172
-0.152081
-0.147036
-0.152104
-0.127285
-0.117489
-0.117738
-0.107919
-0.113054
-0.1281
-0.1131
-0.108281
-0.0935747
-0.0890272
-0.0795023
-0.0949322
-0.100362
-0.105724
-0.111176
-0.116787
-0.122557
-0.118484
-0.119321
-0.105181
-0.0959503
-0.101697
-0.0924435
-0.073258
-0.0641403
-0.0449774
-0.0358824
-0.0417421
-0.027534
-0.0181901
-0.0237331
-0.0141403
-0.0243666
-0.0193892
-0.00934391
0.00083708
0.0111538
0.0215158
0.0270588
0.0175339
0.0178959
0.0331448
0.0583936
0.0686425
0.0538235
0.0388914
0.0138462
-0.0213122
-0.0216516
-0.0323982
-0.0386199
-0.0351358
-0.0470362
-0.0642081
-0.091629
-0.10414
-0.116991
-0.115204
-0.108914
-0.108281
-0.108575
-0.114955
-0.127557
-0.14629
-0.150701
-0.159887
-0.177805
-0.183326
-0.180611
-0.164321
-0.160611
-0.160905
-0.161674
-0.158326
-0.150701
-0.148371
-0.136176
-0.113597
-0.100633
-0.101991
-0.107443
-0.11681
-0.10991
-0.111787
-0.0826471
-0.0679186
-0.0484163
-0.0452715
-0.0546606
-0.062172
-0.0679412
-0.0659276
-0.0547285
-0.0529864
-0.0702036
-0.0763801
-0.0969005
-0.0871267
-0.10233
-0.102783
-0.098439
-0.0991403
-0.109796
-0.100317
-0.105679
-0.106041
-0.111358
-0.126742
-0.117217
-0.11276
-0.103348
-0.103801
-0.119186
-0.134548
-0.139842
-0.145226
-0.145724
-0.11629
-0.101946
-0.0875792
-0.0831674
-0.0886652
-0.0842308
-0.0798643
-0.0606562
-0.031448
-0.012353
0.00671943
0.00579183
0.00981899
0.00891401
0.00312217
0.00223981
0.0113801
0.0156335
-0.00995476
-0.00540724
-0.0157466
-0.0210181
-0.0261765
-0.0312896
-0.0613801
-0.0814027
-0.101448
-0.101425
-0.121267
-0.141041
-0.140724
-0.150385
-0.130045
-0.0948416
-0.0845928
-0.0892986
-0.0888235
-0.0733032
-0.0528507
-0.0274887
-0.00223982
0.0228054
0.0728507
0.122873
0.172828
0.227783
0.28276
0.34767
0.367376
0.446968
0.516539
0.611018
0.770543
0.990158
1.25984
1.55959
1.82932
2.00394
1.96855
1.71812
1.20776
0.512466
-0.227805
-0.727986
-0.89819
-0.743416
-0.483665
-0.253891
-0.139118
-0.0942308
-0.109299
-0.144231
-0.164095
-0.174005
-0.163959
-0.143982
-0.119027
-0.109095
-0.104027
-0.113914
-0.123733
-0.118597
-0.108552
-0.0885294
-0.0835747
-0.0835747
-0.0935294
-0.103439
-0.123394
-0.133371
-0.133529
-0.108733
-0.084095
-0.0545701
-0.0550905
-0.0606787
-0.0863801
-0.107059
-0.112828
-0.11362
-0.109502
-0.0954977
-0.0764932
-0.072353
-0.0780317
-0.0837104
-0.0893891
-0.0951358
-0.0808824
-0.0716063
-0.0422172
-0.0175792
-0.00780543
-0.0129185
-0.0229412
-0.0229638
-0.0129185
0.0171946
0.0123529
0.0326697
0.0330769
0.038552
0.0489367
0.0492534
0.034457
0.0495475
0.0545475
0.049457
0.024276
0.0138914
-0.00160634
-0.0223077
-0.0332805
-0.0345475
-0.0461312
-0.0531448
-0.0604977
-0.0730769
-0.095724
-0.104095
-0.118416
-0.118982
-0.121109
-0.109593
-0.129095
-0.13414
-0.158733
-0.1669
-0.172443
-0.169819
-0.169208
-0.156312
-0.152376
-0.153597
-0.140543
-0.133167
-0.146177
-0.144231
-0.122172
-0.10491
-0.107172
-0.0790272
-0.0753846
-0.0859955
-0.0907466
-0.0994118
-0.0917421
-0.0678733
-0.0532353
-0.0336878
-0.0502715
-0.0591855
-0.0562217
-0.0615611
-0.0592082
-0.0626923
-0.0655204
-0.0722398
-0.0679638
-0.0930769
-0.0929864
-0.102964
-0.1081
-0.103258
-0.103394
-0.103507
-0.0985294
-0.103348
-0.1131
-0.11767
-0.122376
-0.117285
-0.112285
-0.117285
-0.107195
-0.112036
-0.106878
-0.111787
-0.116878
-0.117104
-0.0974661
-0.0778507
-0.0580995
-0.0332806
-0.0184163
-0.00357468
0.0111765
0.0157692
0.030181
0.0345475
0.0488009
0.0580543
0.0673982
0.0418552
0.0114706
0.0111086
-0.00434391
-0.00477377
-0.0101584
-0.0203394
-0.0453168
-0.07
-0.0845249
-0.0939819
-0.108575
-0.113258
-0.122964
-0.132624
-0.122081
-0.126516
-0.12586
-0.120249
-0.0996381
-0.0790046
-0.0533937
-0.0328281
-0.0121267
0.0186199
0.0443665
0.0649321
0.0953846
0.130747
0.186086
0.246425
0.311765
0.377059
0.432285
0.462489
0.477557
0.617557
0.807489
1.08233
1.41722
1.73719
1.99729
2.12738
2.02249
1.70747
1.14249
0.462489
-0.172534
-0.652534
-0.857466
-0.772376
-0.562262
-0.362104
-0.221923
-0.156855
-0.11681
-0.141584
-0.166176
-0.185769
-0.200181
-0.204615
-0.174186
-0.143801
-0.138507
-0.133145
-0.127692
-0.142195
-0.141652
-0.136222
-0.140928
-0.150724
-0.140588
-0.125475
-0.115362
-0.100317
-0.0903167
-0.110407
-0.110701
-0.111041
-0.111538
-0.127036
-0.142511
-0.137919
-0.138326
-0.158643
-0.163891
-0.199208
-0.179502
-0.144774
-0.119932
-0.109955
-0.109955
-0.119887
-0.119796
-0.11457
-0.0843213
-0.0740272
-0.053733
-0.0483258
-0.0527828
-0.0421494
-0.021448
-0.0157466
-0.000113137
0.0104751
0.0309728
0.0364932
0.0619909
0.0674887
0.0629185
0.0582353
0.0282127
0.0178507
0.0322851
0.0214253
0.00531673
-0.026086
-0.0626923
-0.0996833
-0.112059
-0.119932
-0.098552
-0.0932579
-0.0942308
-0.101538
-0.124276
-0.143235
-0.152059
-0.149593
-0.150023
-0.147692
-0.142353
-0.144593
-0.155769
-0.157104
-0.159276
-0.142376
-0.126063
-0.11991
-0.133597
-0.141855
-0.139706
-0.13724
-0.12448
-0.121516
-0.0984842
-0.10043
-0.0867647
-0.0723077
-0.0715837
-0.0793213
-0.0755882
-0.0757013
-0.0652941
-0.0404072
-0.0420136
-0.031086
-0.0182127
-0.0231222
-0.0302036
-0.0382579
-0.0509502
-0.0527376
-0.0536199
-0.0438688
-0.0388236
-0.0585747
-0.0834389
-0.0884389
-0.10362
-0.0989367
-0.0842987
-0.0845249
-0.0796154
-0.0946833
-0.0997964
-0.10491
-0.105136
-0.10543
-0.0907466
-0.0711312
-0.0615611
-0.051991
-0.0523982
-0.0376923
-0.0330091
-0.00837106
0.0111312
0.0206108
0.0450226
0.039457
0.0388009
0.0231674
0.0225791
0.00696829
-0.0137783
-0.00950229
-0.0202942
-0.0309276
-0.0513123
-0.0765385
-0.0866064
-0.0916742
-0.101787
-0.126855
-0.136787
-0.151584
-0.151335
-0.15595
-0.16552
-0.165136
-0.154729
-0.139276
-0.108801
-0.0831901
-0.0575113
-0.0467421
-0.0358824
-0.0199095
0.00604071
0.0419683
0.0928281
0.138575
0.184253
0.235023
0.290769
0.351538
0.387104
0.447466
0.50767
0.602692
0.75776
0.982986
1.2583
1.54367
1.62905
1.90928
1.87446
1.58959
1.12977
0.540068
-0.104547
-0.614118
-0.828688
-0.773326
-0.557986
-0.32767
-0.177308
-0.111787
-0.111222
-0.150747
-0.180385
-0.185023
-0.184638
-0.174276
-0.158937
-0.148507
-0.143054
-0.127511
-0.1319
-0.13629
-0.140792
-0.135339
-0.119932
-0.109525
-0.0940498
-0.113529
-0.118009
-0.137443
-0.136946
-0.126516
-0.121176
-0.11095
-0.110724
-0.110498
-0.110204
-0.115
-0.114977
-0.110204
-0.0904977
-0.0759276
-0.0712896
-0.0715611
-0.0717873
-0.0719457
-0.0571945
-0.0524887
-0.0428054
-0.0280316
-0.0182353
-0.00821266
-0.00803167
0.00223984
0.0126244
-0.00199094
0.0185294
0.0391177
0.0498416
0.055724
0.0716516
0.0676923
0.0736199
0.0544344
0.0500905
0.0556335
0.0660181
0.0562443
0.0364479
0.0214706
0.0013122
-0.00909504
-0.0348643
-0.0359276
-0.0373077
-0.0490046
-0.0760408
-0.0782579
-0.0807467
-0.0935295
-0.101833
-0.100973
-0.101131
-0.097353
-0.104615
-0.127534
-0.14052
-0.147986
-0.169095
-0.173145
-0.16457
-0.163326
-0.150181
-0.15129
-0.142783
-0.145068
-0.147941
-0.166018
-0.148891
-0.136471
-0.133688
-0.100611
-0.112014
-0.117715
-0.122376
-0.120815
-0.117964
-0.0897285
-0.0802941
-0.0609503
-0.0529639
-0.0670362
-0.0787331
-0.0833485
-0.0903394
-0.0933259
-0.0961087
-0.097896
-0.0935974
-0.113597
-0.118326
-0.113054
-0.0979638
-0.098077
-0.10319
-0.0883032
-0.0833485
-0.083258
-0.0931901
-0.103077
-0.107986
-0.112964
-0.103032
-0.0981675
-0.0982806
-0.0983485
-0.0984163
-0.118552
-0.113824
-0.114186
-0.104661
-0.0951358
-0.0805431
-0.065905
-0.0662218
-0.0665838
-0.0719684
-0.0473756
-0.0278734
0.00153843
0.0109049
0.0253393
0.0148868
0.00950223
-0.000882372
-0.0112896
-0.00667424
-0.00199099
-0.00223984
-0.0223756
-0.0273303
-0.0622172
-0.0769457
-0.086629
-0.101267
-0.100928
-0.115633
-0.125226
-0.129661
-0.143959
-0.143167
-0.142308
-0.121516
-0.0957466
-0.0751131
-0.0494796
-0.028733
-0.0129186
-0.00214933
0.028552
0.0591403
0.0946154
0.150045
0.205317
0.270611
0.330882
0.381131
0.411267
0.45638
0.521471
0.631471
0.80638
1.03133
1.27633
1.52143
1.69654
1.73658
1.64661
1.35658
0.911493
0.34638
-0.218688
-0.603688
-0.718643
-0.588597
-0.368552
-0.188575
-0.0886652
-0.0738009
-0.103846
-0.123824
-0.128778
-0.148552
-0.148394
-0.153348
-0.148348
-0.148348
-0.148394
-0.133235
-0.148054
-0.132828
-0.137647
-0.147602
-0.147738
-0.132896
-0.128054
-0.118167
-0.123258
-0.133326
-0.138394
-0.13362
-0.133846
-0.134027
-0.119163
-0.124276
-0.124389
-0.129434
-0.144389
-0.129344
-0.134434
-0.114638
-0.104932
-0.0903167
-0.0806787
-0.0810407
-0.0764705
-0.0669456
-0.0375565
-0.0282805
-0.0140949
-0.00997728
-0.0107918
-0.0164932
-0.0221266
-0.0226696
-0.0131674
-0.00868775
-0.00423072
0.0104525
0.0303394
0.0454525
0.0506561
0.0410407
0.0313575
0.0317195
0.0371493
0.032534
0.0329412
0.0234163
0.0088688
-0.0158145
-0.0206109
-0.0456561
-0.0558145
-0.0561312
-0.0415611
-0.0470362
-0.0526697
-0.0684389
-0.0893439
-0.105475
-0.106787
-0.098371
-0.0901357
-0.0819683
-0.088914
-0.110814
-0.117896
-0.12009
-0.127602
-0.12043
-0.118891
-0.12319
-0.118258
-0.12914
-0.130452
-0.141629
-0.146968
-0.145769
-0.14224
-0.130928
-0.111719
-0.110204
-0.107421
-0.109186
-0.105837
-0.0974435
-0.0892987
-0.0716289
-0.0652262
-0.0556561
-0.0535973
-0.0690045
-0.0712896
-0.0791855
-0.0765385
-0.0679186
-0.0584615
-0.0684842
-0.0734615
-0.0785521
-0.0837557
-0.093982
-0.0943439
-0.0797059
-0.0801132
-0.0854525
-0.0807919
-0.106131
-0.111357
-0.111629
-0.101833
-0.092104
-0.0674661
-0.0678507
-0.0731901
-0.0834842
-0.088733
-0.0940498
-0.0894344
-0.0749321
-0.0804525
-0.0860407
-0.0815837
-0.0870588
-0.0925792
-0.0930995
-0.10871
-0.109502
-0.0902489
-0.0760634
-0.0618326
-0.0474434
-0.0430317
-0.0385973
-0.0242534
-0.0149321
0.0142987
0.0187104
0.0431448
0.0576923
0.0522398
0.0367195
0.0361538
0.0305204
0.0199321
0.0244344
0.0240498
-0.00126696
-0.0264027
-0.0464479
-0.0563801
-0.0812443
-0.076086
-0.0909728
-0.115769
-0.115588
-0.115339
-0.125045
-0.119751
-0.109525
-0.0894117
-0.0692986
-0.0593212
-0.0344117
-0.0244796
-0.014457
0.00561087
0.0256335
0.0504978
0.0852715
0.124932
0.184593
0.244367
0.284186
0.329072
0.343959
0.403688
0.443348
0.522986
0.622579
0.79224
1.01201
1.23683
1.47167
1.63145
1.66115
1.52579
1.21545
0.745158
0.194909
-0.335249
-0.670249
-0.725339
-0.580498
-0.360701
-0.195905
-0.101109
-0.0862444
-0.0963123
-0.136335
-0.146358
-0.166403
-0.136538
-0.116697
-0.1069
-0.102014
-0.107059
-0.121991
-0.116946
-0.121923
-0.1169
-0.116946
-0.107081
-0.107217
-0.102308
-0.112376
-0.112398
-0.112353
-0.122421
-0.127557
-0.12776
-0.117896
-0.107919
-0.102783
-0.0976697
-0.102557
-0.102489
-0.0924435
-0.0874887
-0.0674887
-0.0573756
-0.0422172
-0.0521041
-0.0519684
-0.0469231
-0.0469005
-0.0319231
-0.00696832
-0.00196832
0.00812218
0.0183258
-0.00644797
0.00382352
0.00904977
0.0292534
0.0395701
0.0699321
0.0604751
0.0659729
0.0565385
0.0620815
0.0775792
0.0828733
0.0931222
0.0832353
0.0733258
0.0533937
0.0434615
0.0184163
0.0182806
0.0080317
-0.00228505
-0.0177149
-0.0180995
-0.0383936
-0.028733
-0.0489366
-0.059095
-0.0693665
-0.0696153
-0.0697737
-0.0746832
-0.0693891
-0.0640271
-0.068552
-0.0731448
-0.0877602
-0.0824208
-0.0620362
-0.0615611
-0.0509955
-0.0502941
-0.0644344
-0.0634163
-0.0673529
-0.0712896
-0.0553393
-0.0443212
-0.0383258
-0.0322624
-0.0358597
-0.0541402
-0.0616289
-0.0533257
-0.0392986
-0.0151583
-0.00176468
-0.00515835
-0.0111312
-0.0201357
-0.03681
-0.0654525
-0.0592534
-0.0562217
-0.0598869
-0.0648642
-0.0623755
-0.0742081
-0.0767873
-0.0856108
-0.0806334
-0.0761312
-0.0717194
-0.0669456
-0.0619004
-0.076742
-0.0815384
-0.0964705
-0.101584
-0.101674
-0.106833
-0.0969457
-0.0870361
-0.0870588
-0.0820588
-0.0870588
-0.102104
-0.112172
-0.112285
-0.102443
-0.0876018
-0.0927828
-0.107919
-0.117964
-0.112986
-0.118054
-0.11819
-0.118326
-0.103462
-0.108575
-0.118575
-0.133507
-0.128371
-0.128326
-0.113348
-0.113416
-0.103575
-0.113597
-0.123484
-0.123394
-0.133258
-0.12319
-0.118348
-0.103552
-0.093733
-0.103778
-0.103733
-0.113529
-0.0984163
-0.0883258
-0.0683484
-0.0633484
-0.0333258
-0.0233032
0.00174208
-0.0032353
0.00683258
0.0068552
0.00683258
0.00171944
0.00660634
0.0114932
0.0114253
0.00635746
-0.0286652
-0.0436878
-0.0736652
-0.0837556
-0.0688688
-0.0689819
-0.0790271
-0.11405
-0.139005
-0.143869
-0.143733
-0.118643
-0.103643
-0.0737557
-0.0638461
-0.0587783
-0.0436878
-0.0335068
-0.00830318
0.0167647
0.0467647
0.0917194
0.131674
0.176674
0.221742
0.286855
0.312014
0.412059
0.456946
0.506787
0.581606
0.716538
0.911606
1.1717
1.43179
1.63181
1.67179
1.57676
1.27663
0.816539
0.231561
-0.363462
-0.743416
-0.798416
-0.618507
-0.353643
-0.128824
-0.0339366
-0.0340272
-0.0840272
-0.123959
-0.138824
-0.143778
-0.118756
-0.0938462
-0.0939819
-0.0841177
-0.0892082
-0.0942082
-0.0991177
-0.104005
-0.0988914
-0.0988462
-0.0938914
-0.0839593
-0.083914
-0.0888009
-0.0835973
-0.0834389
-0.0933258
-0.0933711
-0.0784389
-0.0684616
-0.0684389
-0.0583711
-0.0582579
-0.0631901
-0.0681901
-0.0682806
-0.0583032
-0.0433258
-0.0283258
-0.0083032
-0.0232127
-0.0281675
-0.0181901
-0.0182127
0.00667419
0.0316289
0.0516063
0.0516516
0.0417194
0.0317873
0.0268778
0.036923
0.0469909
0.0621041
0.0622398
0.0723982
0.0776923
0.0830543
0.0785294
0.0589366
0.0492534
0.0494796
0.0446154
0.0447285
0.034819
0.0149095
-4.52846e-05
-0.0100905
-0.0303168
-0.0307014
-0.0262218
-0.0317421
-0.0421041
-0.0573982
-0.0626245
-0.0828959
-0.0982127
-0.0935521
-0.0889141
-0.0740498
-0.0640272
-0.063733
-0.0783258
-0.0828054
-0.0922851
-0.0967873
-0.0812217
-0.0655204
-0.0596606
-0.0634842
-0.0571267
-0.060543
-0.0638235
-0.0668552
-0.0448643
-0.0274435
-0.0248417
-0.0119684
-0.0237331
-0.0298643
-0.0201584
-0.0192987
-0.00239819
0.0103846
0.00821264
0.0204298
0.0308371
0.0184615
0.0273529
0.0021719
0.00380087
-0.00106339
-0.00558826
-0.0130317
-0.0273756
-0.0283032
-0.0411086
-0.0470589
-0.0526697
-0.0441629
-0.0420362
-0.0310181
-0.0257014
-0.0255883
-0.0407466
-0.0509729
-0.0612218
-0.0665611
-0.061991
-0.0523756
-0.0477376
-0.0531222
-0.0784843
-0.0839141
-0.0894345
-0.0849549
-0.0905431
-0.0661313
-0.0567422
-0.0722852
-0.0828281
-0.093439
-0.0890272
-0.0846607
-0.0804299
-0.0762897
-0.087172
-0.0880544
-0.0788915
-0.0846155
-0.0902942
-0.0911313
-0.0871041
-0.0881222
-0.0791856
-0.0852036
-0.0860408
-0.0868326
-0.0827376
-0.0938009
-0.100045
-0.101448
-0.0928733
-0.0942987
-0.0806109
-0.0819231
-0.083258
-0.0896607
-0.0911086
-0.0826018
-0.0541629
-0.0358145
-0.0173756
-0.0189141
-0.0104073
-0.00694571
0.00142534
0.0147738
0.0180317
0.0363349
0.0347512
0.0233258
0.00201363
-0.0141628
-0.040294
-0.0662443
-0.0822397
-0.08319
-0.0789819
-0.104638
-0.12509
-0.155407
-0.170611
-0.19086
-0.176154
-0.161493
-0.151855
-0.157081
-0.162217
-0.187285
-0.187421
-0.192624
-0.177851
-0.168145
-0.148416
-0.143552
-0.138597
-0.148665
-0.153733
-0.158891
-0.149072
-0.144276
-0.114502
-0.109683
-0.0797738
-0.0399095
0.0599548
0.214842
0.454661
0.759593
1.08439
1.35921
1.46407
1.26898
0.809005
0.149005
-0.54095
-1.00102
-1.1162
-0.93638
-0.636493
-0.366538
-0.186538
-0.141448
-0.0713575
-0.0613801
-0.0614932
-0.046629
-0.0317195
-0.0367647
-0.0416968
-0.0315837
-0.0265385
-0.0116516
0.00314478
0.00800905
0.0228733
0.0127375
0.0177376
0.0178054
0.0278054
0.0427602
0.0476471
0.0575566
0.0824661
0.0973982
0.102398
0.112353
0.117353
0.107353
0.11733
0.137308
0.16224
0.182195
0.192104
0.207104
0.192149
0.202217
0.227285
0.25233
0.28233
0.312262
0.327195
0.337217
0.327262
0.327376
0.342398
0.362353
0.377104
0.38181
0.376471
0.386267
0.366131
0.356041
0.345882
0.345701
0.34552
0.335407
0.34552
0.315679
0.290995
0.261448
0.231878
0.192262
0.167647
0.122896
0.1131
0.0883258
0.0585973
0.0340497
0.00443436
-0.0153168
-0.0403394
-0.045543
-0.0408824
-0.0411991
-0.0414706
-0.0567195
-0.0620589
-0.0725566
-0.0632806
-0.0441629
-0.0452489
-0.0364027
-0.0476245
-0.0588914
-0.065362
-0.062172
-0.0543892
-0.0519684
-0.0597738
-0.0527149
-0.0561086
-0.0595475
-0.079638
-0.0859276
-0.0883258
-0.0959955
-0.102851
-0.122443
-0.113484
-0.105068
-0.102308
-0.0969684
-0.111946
-0.109751
-0.116787
-0.107986
-0.0968779
-0.111493
-0.125158
-0.142262
-0.142986
-0.157941
-0.15776
-0.147353
-0.136923
-0.141538
-0.156086
-0.160475
-0.174887
-0.179389
-0.168891
-0.158439
-0.142896
-0.162308
-0.156652
-0.16086
-0.165113
-0.169412
-0.168733
-0.1681
-0.162376
-0.161606
-0.155747
-0.154796
-0.163801
-0.162805
-0.17181
-0.16086
-0.159932
-0.163982
-0.152986
-0.151855
-0.140701
-0.149502
-0.163281
-0.167127
-0.166041
-0.154842
-0.153552
-0.142127
-0.140566
-0.148937
-0.152308
-0.150769
-0.129276
-0.112783
-0.0711765
-0.0595023
-0.0378054
-0.0361086
-0.0293892
-0.0178281
-0.00133488
0.0150905
0.0215158
0.018009
-0.0154977
-0.0187783
-0.0321267
-0.0605656
-0.0641403
-0.0728054
-0.086629
-0.0804978
-0.0945249
-0.113552
-0.122602
-0.156833
-0.166154
-0.155634
-0.125158
-0.0997738
-0.0893439
-0.0788688
-0.0734389
-0.0680317
-0.0526923
-0.0223756
0.00289591
0.0382805
0.0787104
0.109118
0.134593
0.164955
0.215339
0.295633
0.375882
0.451109
0.496335
0.536561
0.641855
0.682172
1.05251
1.34776
1.63296
1.79312
1.7683
1.50857
1.0288
0.369095
-0.315611
-0.780317
-0.905091
-0.740045
-0.465
-0.234955
-0.099819
-0.0545249
-0.084276
-0.129095
-0.164027
-0.154027
-0.139027
-0.118914
-0.113756
-0.103529
-0.103281
-0.123122
-0.123009
-0.108032
-0.0980996
-0.0830996
-0.0879864
-0.0828281
-0.0927376
-0.107602
-0.107511
-0.0924661
-0.0874208
-0.0674208
-0.0724209
-0.077353
-0.0872172
-0.0820588
-0.0769005
-0.0718552
-0.0618552
-0.0469231
-0.051991
-0.0469231
-0.0369005
-0.0417874
-0.0266742
-0.0265611
-0.0165385
-0.016629
0.0082579
0.00821266
0.0132579
0.0133258
0.0134389
0.0135068
0.0234389
0.0332805
0.0431222
0.0580543
0.0530543
0.0531448
0.0532127
0.0482353
0.0531674
0.0680543
0.0729412
0.0778733
0.0778959
0.0629638
0.0530316
0.0129411
-0.00217202
-0.00730777
-0.00746615
-0.0175567
-0.0225793
-0.0376019
-0.047534
-0.0575114
-0.0775566
-0.0676245
-0.0728055
-0.0679865
-0.0781222
-0.0831448
-0.098077
-0.102986
-0.0928733
-0.0878507
-0.087896
-0.0879865
-0.0880996
-0.103145
-0.093077
-0.0879638
-0.0928281
-0.0778281
-0.0929638
-0.0780996
-0.0631901
-0.0481222
-0.0429638
-0.0477376
-0.052534
-0.0572399
-0.0623756
-0.0567421
-0.0458824
-0.0299095
-0.0335747
-0.0533032
-0.0588462
-0.0653168
-0.0627149
-0.0704978
-0.062534
-0.04819
-0.0526697
-0.0615611
-0.0706109
-0.0900679
-0.0898643
-0.0849321
-0.0751583
-0.060362
-0.0754299
-0.100407
-0.100339
-0.105249
-0.115181
-0.110113
-0.105204
-0.0903168
-0.085362
-0.0903621
-0.105204
-0.100091
-0.104955
-0.10991
-0.104977
-0.100091
-0.105136
-0.0951132
-0.0949548
-0.104796
-0.119706
-0.119751
-0.119819
-0.104955
-0.0950226
-0.0900226
-0.0799095
-0.109774
-0.104615
-0.114457
-0.114412
-0.104367
-0.0943666
-0.0842761
-0.0841856
-0.0989367
-0.108733
-0.113575
-0.113462
-0.103394
-0.0833937
-0.0683258
-0.0681901
-0.068009
-0.0676697
-0.0473982
-0.0322398
-0.00210406
0.0179864
0.0330996
0.0432806
0.0485068
0.0437331
0.0389593
0.034095
0.0342082
0.0341629
0.0240724
-0.000972822
-0.0210181
-0.0460181
-0.0609728
-0.0759049
-0.0808371
-0.0857918
-0.0908597
-0.100814
-0.110769
-0.110633
-0.105475
-0.100271
-0.095181
-0.0901357
-0.0650679
-0.0449774
-0.0197964
0.0154072
0.0256561
0.0358144
0.0660181
0.0911765
0.146312
0.206471
0.256629
0.326855
0.372195
0.42767
0.458054
0.503326
0.588597
0.723801
0.924005
1.16925
1.42959
1.50998
1.72034
1.64057
1.36575
0.910905
0.311154
-0.31862
-0.748326
-0.842941
-0.697556
-0.432217
-0.206968
-0.0868099
-0.0566289
-0.0664253
-0.106154
-0.125792
-0.13052
-0.120362
-0.120226
-0.105113
-0.105045
-0.0899774
-0.084819
-0.0845701
-0.0842986
-0.104027
-0.0988462
-0.0986426
-0.0884842
-0.0783711
-0.0682127
-0.0680091
-0.0778055
-0.0874888
-0.0922173
-0.0820362
-0.0619231
-0.0517874
-0.0316969
-0.0415838
-0.0463123
-0.0559729
-0.0656109
-0.0654073
-0.0552489
-0.0351584
-0.0200453
-0.00981899
-0.0195023
-0.0191177
-0.0287783
-0.0185294
-0.00339365
0.00667422
0.0167874
0.031991
0.0273304
0.0227829
0.0231675
0.00350684
0.0137557
0.0390498
0.0443666
0.0497738
0.0502942
0.0508145
0.046267
0.0516969
0.0520363
0.0572625
0.0524887
0.0476924
0.0429412
0.0281675
0.0283258
0.00843896
-0.00653841
-0.0265384
-0.0365158
-0.0414253
-0.0363121
-0.0511764
-0.0559502
-0.0707691
-0.085475
-0.100181
-0.0898641
-0.0845248
-0.0792307
-0.0788008
-0.0981673
-0.102353
-0.111425
-0.105498
-0.104638
-0.0886198
-0.0875112
-0.0760632
-0.0892985
-0.0873076
-0.0951356
-0.107737
-0.0802035
-0.0575791
-0.0597963
-0.0466062
-0.0479411
-0.0487782
-0.0541854
-0.044389
-0.0404976
-0.0269909
-0.0201357
-0.0201131
-0.0372398
-0.0397737
-0.0473982
-0.0538687
-0.0583484
-0.0563574
-0.0438913
-0.041742
-0.045294
-0.0446153
-0.0494343
-0.0546605
-0.0500678
-0.050475
-0.045837
-0.0462216
-0.0465157
-0.0417872
-0.0569682
-0.0621266
-0.0623981
-0.0677601
-0.0633031
-0.0638008
-0.0593438
-0.0547963
-0.0601809
-0.0655655
-0.0709954
-0.0866062
-0.0773302
-0.0680768
-0.0687555
-0.074389
-0.0650451
-0.0557012
-0.0814704
-0.0923076
-0.0882578
-0.0843211
-0.0704297
-0.066561
-0.0726696
-0.0887555
-0.0997736
-0.105973
-0.0973076
-0.0938008
-0.0804071
-0.0720135
-0.0835746
-0.0951582
-0.106674
-0.118258
-0.104955
-0.096742
-0.0786424
-0.0705429
-0.0622623
-0.0539365
-0.0605429
-0.0471492
-0.0237782
-0.0154071
-0.00196822
0.0165159
0.0101585
0.0139141
0.0027829
-0.00321259
-0.0142081
-0.0250452
-0.0308144
-0.0415384
-0.0621945
-0.082828
-0.0932805
-0.103597
-0.133959
-0.134253
-0.15957
-0.154932
-0.155294
-0.155543
-0.140747
-0.145928
-0.171086
-0.186312
-0.176651
-0.167104
-0.142556
-0.148009
-0.143394
-0.163733
-0.174027
-0.174457
-0.144909
-0.150452
-0.126109
-0.116652
-0.107081
-0.112443
-0.0827375
0.00694576
0.156493
0.37095
0.65043
0.944955
1.22955
1.35925
1.37896
0.868575
0.258167
-0.427195
-0.962556
-1.14294
-0.983235
-0.688462
-0.413665
-0.213869
-0.11414
-0.0644343
-0.0447284
-0.0500225
-0.0502941
-0.0455203
-0.0506787
-0.0558144
-0.0609728
-0.0611538
-0.0364026
-0.0166968
0.00300913
-0.00219449
0.00760189
-0.00251125
-0.0075565
0.00230774
0.0121494
0.0419231
0.0566064
0.0563575
0.0511991
0.061086
0.0759955
0.095905
0.110837
0.120588
0.135294
0.150091
0.159955
0.174932
0.189955
0.199887
0.194683
0.224389
0.254027
0.278756
0.313484
0.328235
0.327941
0.342489
0.341946
0.35129
0.370566
0.389842
0.39414
0.403507
0.387941
0.382489
0.372036
0.371561
0.376177
0.37095
0.36086
0.350882
0.321109
0.291358
0.261674
0.226968
0.212262
0.177624
0.142964
0.118326
0.0836426
0.0688462
0.0239593
-0.00106332
-0.00626692
-0.0266515
-0.0371266
-0.0427828
-0.0584389
-0.0741855
-0.08
-0.0809502
-0.0871041
-0.0935746
-0.0752941
-0.0621719
-0.059095
-0.0613348
-0.0638461
-0.0765837
-0.079638
-0.0681448
-0.0672624
-0.0620814
-0.0578733
-0.0646153
-0.0773077
-0.105588
-0.118823
-0.126041
-0.106131
-0.0982126
-0.0966289
-0.101493
-0.0988009
-0.109909
-0.101222
-0.088371
-0.0785746
-0.0918552
-0.0983031
-0.102149
-0.126697
-0.135452
-0.142873
-0.149118
-0.134525
-0.134502
-0.139321
-0.134027
-0.138756
-0.143484
-0.158145
-0.162873
-0.152624
-0.162443
-0.152285
-0.141968
-0.146516
-0.160905
-0.160294
-0.174706
-0.184185
-0.168733
-0.168303
-0.15776
-0.152059
-0.156244
-0.165452
-0.174728
-0.184004
-0.173303
-0.167511
-0.151629
-0.150701
-0.164683
-0.173665
-0.182624
-0.186629
-0.170588
-0.154593
-0.143597
-0.132489
-0.141244
-0.134909
-0.123394
-0.101833
-0.0753393
-0.0638461
-0.0473755
-0.0408823
-0.0243439
-0.0176697
-0.010905
-0.0141176
-0.0274434
-0.0158144
-0.0142081
-0.0175339
-0.0257239
-0.0438914
-0.0520135
-0.0751131
-0.083371
-0.0917873
-0.0953393
-0.098914
-0.122534
-0.126244
-0.13509
-0.134005
-0.128145
-0.127376
-0.10681
-0.0763122
-0.0657692
-0.045294
-0.0298868
-0.0245022
-0.00425336
0.010905
0.0560182
0.0961313
0.141244
0.181335
0.226493
0.246719
0.341968
0.397195
0.452398
0.502489
0.592557
0.727738
0.912987
1.1233
1.35869
1.57905
1.7193
1.70443
1.50952
1.12959
0.614751
0.0201132
-0.48457
-0.754253
-0.73405
-0.558959
-0.353869
-0.188756
-0.118529
-0.103303
-0.108099
-0.132873
-0.14776
-0.147692
-0.13267
-0.11767
-0.112557
-0.0975113
-0.102443
-0.10233
-0.102217
-0.112149
-0.102172
-0.102217
-0.0921945
-0.0872624
-0.0972624
-0.107172
-0.122104
-0.127104
-0.112172
-0.107285
-0.0974434
-0.0825338
-0.0976018
-0.102579
-0.112556
-0.107624
-0.0977601
-0.088009
-0.0683031
-0.0684841
-0.073552
-0.073552
-0.0785746
-0.0637556
-0.0590271
-0.0343665
-0.0298416
-0.0102488
-0.0155882
-0.0109502
-0.0113122
-0.00678732
-0.0123303
-0.00791852
0.00656112
0.0212217
0.0259503
0.0308145
0.0407467
0.0307919
0.0158824
0.0210181
0.0311539
0.0363123
0.0315611
0.0168552
-0.00776018
-0.0173529
-0.0369457
-0.0516063
-0.0464253
-0.0413574
-0.0413801
-0.0714027
-0.0765158
-0.0917194
-0.0970588
-0.107579
-0.0932579
-0.0890497
-0.0899773
-0.100882
-0.116719
-0.122738
-0.118937
-0.120385
-0.107127
-0.10414
-0.10129
-0.103371
-0.110452
-0.112692
-0.110475
-0.114005
-0.118597
-0.118937
-0.119819
-0.11052
-0.110905
-0.123597
-0.133326
-0.134457
-0.132172
-0.117489
-0.0868552
-0.0714706
-0.0573303
-0.0449321
-0.0346153
-0.0666742
-0.0563574
-0.0682353
-0.0512443
-0.0492307
-0.051448
-0.0527602
-0.0733258
-0.0885294
-0.0887104
-0.0939819
-0.0894118
-0.0849548
-0.0804525
-0.0808597
-0.091086
-0.0762669
-0.0864253
-0.0916063
-0.0968778
-0.0921267
-0.0874434
-0.0876697
-0.0928507
-0.0829864
-0.0881221
-0.0983257
-0.0986199
-0.0990271
-0.0844796
-0.0898642
-0.0902488
-0.0905882
-0.0959049
-0.106335
-0.101787
-0.0873303
-0.0828507
-0.0683031
-0.0687103
-0.0839818
-0.104276
-0.104547
-0.0998868
-0.0803167
-0.0707466
-0.0662443
-0.0416742
-0.0421266
-0.0424434
-0.027828
-0.0182126
-0.00361988
0.0159503
0.0354299
0.0399322
0.0244797
0.0191403
0.00384618
-0.00638007
-0.016561
-0.0217421
-0.0269909
-0.032104
-0.0521493
-0.0620136
-0.0718099
-0.0966516
-0.111606
-0.131629
-0.126742
-0.116833
-0.101878
-0.0918326
-0.0967647
-0.0818552
-0.0869683
-0.0622172
-0.0324661
0.00226243
0.0320588
0.0619004
0.0767647
0.091629
0.141357
0.201041
0.270701
0.340385
0.420136
0.464955
0.494819
0.534683
0.614502
0.774276
0.984072
1.23885
1.49855
1.6733
1.6881
1.66796
1.1629
0.642738
0.0324887
-0.512783
-0.808077
-0.798348
-0.603439
-0.343507
-0.153462
-0.0734163
-0.0633937
-0.0785973
-0.0987556
-0.118937
-0.10405
-0.0990498
-0.0940271
-0.0940271
-0.104163
-0.0944118
-0.0796606
-0.0698642
-0.0600679
-0.070181
-0.0752262
-0.100271
-0.10543
-0.0954751
-0.095543
-0.0756108
-0.0806335
-0.0756787
-0.0856561
-0.0956561
-0.0956561
-0.0906561
-0.0857239
-0.0758597
-0.0659954
-0.0611312
-0.0611991
-0.0562896
-0.0563801
-0.0464932
-0.0366968
-0.036923
-0.0271719
-0.0273077
-0.0323982
-0.0323982
-0.0424886
-0.0377602
-0.0482579
-0.0338461
-0.0194796
-0.00504524
0.0143665
0.0238009
0.0333484
0.0228959
0.0324434
0.0370136
0.0416968
0.0514706
0.0663801
0.0666063
0.0719231
0.0621945
0.0574887
0.0477828
0.0480769
0.0383936
0.038733
0.014095
0.00934388
-0.0254977
-0.0454977
-0.0506335
-0.0510181
-0.0464932
-0.0470815
-0.0677376
-0.0734389
-0.0892082
-0.0950453
-0.0910634
-0.0922851
-0.0787104
-0.0852263
-0.0916742
-0.0933258
-0.100068
-0.106878
-0.118846
-0.105995
-0.103303
-0.0959729
-0.104208
-0.108258
-0.123122
-0.133824
-0.139932
-0.140634
-0.134706
-0.135724
-0.127873
-0.105996
-0.101041
-0.0948869
-0.0842535
-0.0846833
-0.0683032
-0.0548643
-0.0543892
-0.0564254
-0.0596381
-0.0827829
-0.0849774
-0.106041
-0.10129
-0.091267
-0.0762444
-0.0762444
-0.0813123
-0.076448
-0.0965159
-0.101584
-0.0966969
-0.0867647
-0.0769684
-0.0771041
-0.092172
-0.0871494
-0.102014
-0.111901
-0.111855
-0.0969684
-0.107082
-0.11224
-0.117376
-0.132376
-0.122376
-0.132353
-0.127443
-0.132624
-0.122851
-0.1131
-0.108258
-0.108371
-0.108484
-0.108575
-0.108756
-0.108982
-0.104231
-0.0894571
-0.0946381
-0.0847964
-0.0949096
-0.100113
-0.105317
-0.0855657
-0.0609277
-0.0313123
-0.0117874
0.00282798
0.00746599
0.0221719
0.0219682
0.0218099
0.0216289
0.0213574
0.0311312
0.016018
0.0109954
0.00113117
-0.0485521
-0.0632353
-0.0678734
-0.0775792
-0.0923077
-0.102014
-0.116674
-0.126335
-0.13595
-0.115679
-0.115475
-0.0904525
-0.070543
-0.0406788
-0.0357919
-0.0307919
-0.0106788
0.00932123
0.0392081
0.0639593
0.0986651
0.158439
0.198235
0.243145
0.258032
0.337896
0.387715
0.432443
0.482127
0.536742
0.621403
0.761086
0.95586
1.20566
1.46543
1.69514
1.8148
1.76448
1.48416
0.968914
0.323665
-0.311561
-0.731697
-0.8219
-0.692149
-0.477443
-0.277783
-0.148009
-0.103145
-0.0932353
-0.128303
-0.133371
-0.148575
-0.138824
-0.129186
-0.109434
-0.0995928
-0.109683
-0.114729
-0.119842
-0.119977
-0.115249
-0.100543
-0.110792
-0.0909729
-0.0960181
-0.0960633
-0.106199
-0.12138
-0.126652
-0.116946
-0.107217
-0.112398
-0.0925792
-0.0977602
-0.107964
-0.113258
-0.113575
-0.0989593
-0.089276
-0.079638
-0.0698642
-0.085
-0.0851357
-0.0752715
-0.0754298
-0.0555882
-0.0408145
-0.0360407
-0.0312443
-0.0313801
-0.0364932
-0.0366742
-0.0170362
-0.0225113
-0.0130995
0.00126699
0.010724
0.020362
0.0150226
0.0247964
0.0245475
0.0243439
0.0241403
0.0389593
0.0488914
0.0489367
0.0291403
0.0143439
-0.0104072
-0.0352262
-0.0352262
-0.0402262
-0.0351583
-0.0350905
-0.05
-0.0599773
-0.0701131
-0.080362
-0.0807466
-0.0711538
-0.0666289
-0.0620814
-0.0574887
-0.0628733
-0.0833258
-0.108937
-0.104615
-0.0854072
-0.0712896
-0.0673303
-0.0784842
-0.084638
-0.0957918
-0.0969909
-0.0983936
-0.0898869
-0.0767873
-0.074457
-0.0722398
-0.0717421
-0.0767421
-0.0911764
-0.103823
-0.0984162
-0.089095
-0.0757466
-0.0696606
-0.0530317
-0.0483258
-0.0421494
-0.0399321
-0.0461538
-0.0394344
-0.0379185
-0.0306561
-0.0323077
-0.0480543
-0.0582126
-0.0682805
-0.0733484
-0.0735746
-0.0638687
-0.0542307
-0.0495248
-0.0697511
-0.0799095
-0.0799547
-0.0901131
-0.0802941
-0.0705882
-0.0608597
-0.0610859
-0.066199
-0.0713122
-0.0913348
-0.0914479
-0.0866516
-0.0719457
-0.067285
-0.0726244
-0.0778959
