ekg
0
1.49012e-08
0.00399999
-0.0128571
-0.02
0.00545456
0.0046154
0.0133334
0.0202941
0.0168421
0.00523812
-0.00630435
-0.00939998
-0.00685185
-0.00775862
0.0066129
0.00954545
0.0171428
0.00986487
-0.00679487
0.00109759
-0.0115116
0.00133333
0.0146808
0.0117347
0.00323528
0.005
-0.00818181
-0.0314035
-0.0401695
-0.0191803
-0.0175397
-0.00592303
-0.00970146
-0.00876814
-0.0125352
-0.0163699
-0.0256667
-0.0351948
-0.0293671
-0.023642
-0.0183132
-0.0229412
-0.0322989
-0.0369101
-0.0472528
-0.0580108
-0.0341579
-0.0254124
-0.0225253
-0.0255446
-0.0336408
-0.046
-0.0478972
-0.0494954
-0.0551802
-0.0497345
-0.0390434
-0.0385897
-0.0329412
-0.0319008
-0.0458943
-0.06028
-0.059685
-0.0487984
-0.0478626
-0.0370301
-0.0294445
-0.030584
-0.0402878
-0.0702482
-0.0923427
-0.0866897
-0.0718027
-0.0666779
-0.0540397
-0.0378105
-0.042871
-0.0416561
-0.0438679
-0.0224845
-0.0164111
-0.0156364
-0.0152395
-0.0200296
-0.0247953
-0.0345665
-0.0245714
-0.014548
0.0105028
0.0153591
0.0250546
0.0395405
0.0490909
0.0538095
0.0531937
0.0622021
0.0859744
0.114772
0.143392
0.151667
0.154926
0.153073
0.125942
0.108493
0.0905687
0.0926056
0.0896046
0.0563364
0.0377854
-0.000859737
-0.0374661
-0.0592082
-0.0660407
-0.0680317
-0.0600679
-0.0570136
-0.0689593
-0.0809729
-0.0979412
-0.109932
-0.117081
-0.0993665
-0.0916516
-0.0888914
-0.0860181
-0.103054
-0.115
-0.121765
-0.128529
-0.125271
-0.121923
-0.12862
-0.195226
-0.301629
-0.372896
-0.314005
-0.0150678
0.498801
1.08756
1.56131
1.72034
1.30953
0.583846
-0.0417873
-0.367308
-0.432873
-0.403529
-0.454208
-0.599909
-0.660543
-0.901176
-0.941742
-0.902308
-0.787941
-0.643597
-0.504276
-0.359932
-0.270452
-0.220882
-0.19629
-0.191719
-0.182217
-0.177783
-0.153371
-0.143914
-0.129412
-0.124842
-0.120204
-0.125566
-0.125882
-0.136154
-0.116538
-0.1069
-0.10724
-0.107421
-0.112647
-0.107873
-0.118145
-0.103484
-0.0887556
-0.0890497
-0.0743438
-0.0595927
-0.0647511
-0.0647511
-0.0697058
-0.0846606
-0.0797963
-0.0600678
-0.0403619
-0.0205203
-0.00561085
0.00934391
0.0143892
0.0144344
0.00938916
0.0242534
0.0391629
0.0741176
0.0641855
0.0792986
0.0694117
0.0846153
0.0948416
0.120068
0.125294
0.150543
0.170928
0.206516
0.227308
0.22819
0.229072
0.234864
0.24552
0.256109
0.296719
0.307376
0.322941
0.328348
0.33871
0.338937
0.363982
0.378869
0.398665
0.403416
0.408213
0.403054
0.422737
0.41724
0.416584
0.435814
0.449955
0.444163
0.433439
0.40276
0.392127
0.371493
0.335882
0.325226
0.299547
0.28405
0.278733
0.268575
0.233235
0.197421
0.151267
0.140362
0.140837
0.14371
0.139299
0.107104
0.0806108
0.0671945
0.0554977
0.0309502
0.0349321
0.0486199
0.0424661
0.0361539
0.0241855
0.0268779
0.0134389
0.00481902
0.00644799
0.00364257
-0.00296374
-0.0186651
-0.0241176
-0.0356334
-0.0394795
-0.041018
-0.0393212
-0.041742
-0.0410633
-0.0516968
-0.0651131
-0.0729411
-0.0759728
-0.0740497
-0.0767873
-0.0839139
-0.0705882
-0.0869682
-0.0884162
-0.110136
-0.0972397
-0.0849094
-0.0682126
-0.0570588
-0.0759728
-0.0802715
-0.0797737
-0.0793212
-0.0888687
-0.123439
-0.128054
-0.12276
-0.0976018
-0.0723982
-0.0720814
-0.0816063
-0.0910859
-0.100611
-0.120136
-0.124615
-0.109072
-0.0985293
-0.0978733
-0.0972398
-0.0964706
-0.100769
-0.0899774
-0.0943213
-0.0886199
-0.0828959
-0.082104
-0.076267
-0.0802715
-0.0942308
-0.108122
-0.1169
-0.110724
-0.0896154
-0.0835973
-0.0825792
-0.101471
-0.105204
-0.0838914
-0.0775566
-0.0811765
-0.0847511
-0.0784163
-0.0620135
-0.0456108
-0.0341854
-0.032828
-0.0365384
-0.010294
0.0210182
0.0422851
0.0585069
0.0748417
0.0811765
0.0774887
0.0736878
0.0696381
0.0554299
0.0410634
0.0465385
0.0468779
0.0121268
-0.0227375
-0.0626922
-0.0878054
-0.0881447
-0.083733
-0.0795927
-0.0854977
-0.101493
-0.112489
-0.128575
-0.124864
-0.11138
-0.113032
-0.109774
-0.111516
-0.113122
-0.11957
-0.13595
-0.137308
-0.12362
-0.114796
-0.115905
-0.131968
-0.142851
-0.26362
-0.324344
-0.23509
0.0891629
0.653416
1.27271
1.66713
1.48167
0.80138
0.0111538
-0.469072
-0.584321
-0.534638
-0.52
-0.600385
-0.735724
-0.846109
-0.89138
-0.866742
-0.807127
-0.72267
-0.60319
-0.458665
-0.349027
-0.319276
-0.219593
-0.174887
-0.150158
-0.13543
-0.135792
-0.126357
-0.111878
-0.097353
-0.10267
-0.107805
-0.122919
-0.113054
-0.088258
-0.0735295
-0.0788688
-0.0842082
-0.0894118
-0.0995249
-0.0795702
-0.0745702
-0.0696154
-0.0747286
-0.0547964
-0.049887
-0.0448643
-0.0347739
-0.0396381
-0.0495023
-0.0394119
-0.0194345
-0.024525
-0.0146834
0.00022614
0.025294
0.0354524
0.0255881
0.0306108
0.030656
0.0407239
0.035837
0.0359275
0.0560859
0.0662669
0.0815384
0.096923
0.117308
0.137647
0.142941
0.148371
0.153937
0.164638
0.16052
0.176403
0.177308
0.193145
0.218914
0.244683
0.260362
0.260995
0.281652
0.277308
0.287737
0.302941
0.327851
0.342602
0.362308
0.377036
0.376787
0.396516
0.396063
0.405385
0.409502
0.423575
0.432692
0.4369
0.41129
0.385747
0.365294
0.344842
0.334412
0.314072
0.288959
0.264004
0.249095
0.214208
0.189321
0.173914
0.16319
0.157851
0.148959
0.142692
0.129299
0.117738
0.0953619
0.0899094
0.0808597
0.0695249
0.0726696
0.0760633
0.0795475
0.0626923
0.0602715
0.0423077
0.039095
0.0360181
0.0434163
0.0465384
0.0456561
0.0356334
0.0205656
0.0141402
0.000904948
-0.00961541
-0.0169457
-0.0147059
-0.0114933
-0.0303846
-0.0362444
-0.0452715
-0.0588914
-0.0625792
-0.0663122
-0.0594796
-0.0517421
-0.0531674
-0.0541176
-0.065
-0.0710634
-0.0824661
-0.0893213
-0.0766516
-0.0645023
-0.0628507
-0.061448
-0.0802489
-0.0891855
-0.0981901
-0.0922851
-0.0865159
-0.0757466
-0.0748869
-0.0690724
-0.0782353
-0.092353
-0.106448
-0.100475
-0.094638
-0.103733
-0.0878054
-0.0918778
-0.0909729
-0.110068
-0.109095
-0.113145
-0.122127
-0.111086
-0.0999321
-0.0937331
-0.0975114
-0.096267
-0.105023
-0.128778
-0.112602
-0.111448
-0.100317
-0.0891177
-0.0928055
-0.0863575
-0.0898643
-0.0884842
-0.0870136
-0.0707466
-0.0544344
-0.0280769
-0.0166064
-0.00509053
-0.00348422
-0.00190049
-0.000362039
0.0261312
0.0675113
0.0988914
0.115249
0.121652
0.103099
0.0694796
0.0556787
0.0366741
0.0324661
0.0131447
-0.00633487
-0.0409502
-0.065724
-0.0756335
-0.095724
-0.106063
-0.111606
-0.102285
-0.0980996
-0.0939367
-0.109842
-0.125792
-0.136923
-0.14319
-0.144706
-0.14138
-0.1181
-0.119819
-0.126516
-0.133167
-0.139729
-0.15129
-0.14276
-0.134299
-0.140814
-0.187127
-0.263235
-0.36414
-0.409932
-0.290701
0.0385974
0.537941
1.08735
1.51183
1.62147
1.40629
0.776245
0.121199
-0.268869
-0.363937
-0.354118
-0.359299
-0.474457
-0.649547
-0.819593
-0.929638
-0.949706
-0.914842
-0.85009
-0.730385
-0.620701
-0.50095
-0.396131
-0.321335
-0.271516
-0.236832
-0.21224
-0.19767
-0.178054
-0.168394
-0.168642
-0.163846
-0.159004
-0.154185
-0.134502
-0.139909
-0.120249
-0.130543
-0.13586
-0.126018
-0.126154
-0.126357
-0.121674
-0.107013
-0.107398
-0.0977601
-0.102964
-0.0931221
-0.0931674
-0.0932352
-0.0883936
-0.0786198
-0.0690044
-0.0492986
-0.0445701
-0.0447284
-0.0447963
-0.0499094
-0.0450225
-0.0201583
-0.0203619
0.0194571
0.0193666
0.0243666
0.0245024
0.0297286
0.0299775
0.0502037
0.0603848
0.0905657
0.11595
0.126493
0.137149
0.142896
0.143665
0.164321
0.179796
0.200181
0.225498
0.230882
0.256199
0.266425
0.276471
0.28138
0.306199
0.325905
0.345566
0.360181
0.37991
0.379683
0.384457
0.384072
0.403507
0.412828
0.437082
0.461267
0.46052
0.449887
0.449186
0.443371
0.427376
0.411199
0.389932
0.388756
0.382692
0.336697
0.300633
0.259321
0.232534
0.215611
0.184276
0.169548
0.147195
0.132489
0.104796
0.0826471
0.0695022
0.0585068
0.0594797
0.0486652
0.0574887
0.0513575
0.0402941
0.0286878
0.0212896
0.0130996
0.00938916
0.00556561
0.0169004
0.00852941
0.000723988
-0.00653847
-0.0131449
-0.00902717
-0.0141177
-0.00373308
0.00626691
-9.05693e-05
-0.00880098
-0.0200679
-0.0382127
-0.0563802
-0.0672852
-0.0748191
-0.0613576
-0.0553621
-0.0642082
-0.0678734
-0.0711087
-0.0886653
-0.0955431
-0.0770589
-0.0685974
-0.0604752
-0.0528281
-0.0657919
-0.0892761
-0.0883485
-0.107783
-0.107489
-0.0872852
-0.0821042
-0.0719006
-0.0766517
-0.0812671
-0.0959051
-0.105566
-0.100362
-0.095249
-0.0951584
-0.0799096
-0.0846155
-0.0891404
-0.0936879
-0.098258
-0.107851
-0.102466
-0.0971268
-0.0867195
-0.0862218
-0.105588
-0.0998643
-0.0941177
-0.0983937
-0.0976471
-0.0920136
-0.0863349
-0.0805883
-0.0847286
-0.103756
-0.107806
-0.106787
-0.100815
-0.094887
-0.0839593
-0.0779865
-0.0769232
-0.0707693
-0.0845476
-0.0883259
-0.0822173
-0.0611766
-0.0352263
-0.0192082
-0.00816754
0.00800893
-0.000724107
0.000497639
0.0166062
0.0375565
0.0733709
0.109118
0.119751
0.110249
0.0957012
0.076018
0.0460406
0.0258144
0.0304072
0.0148641
0.0042533
-0.021516
-0.0474435
-0.08362
-0.105045
-0.116606
-0.113326
-0.115204
-0.102172
-0.0991856
-0.116222
-0.11819
-0.140136
-0.137104
-0.139027
-0.135882
-0.132625
-0.129276
-0.130792
-0.132195
-0.138484
-0.149751
-0.17595
-0.232059
-0.333077
-0.388959
-0.269729
0.0545927
0.589005
1.17353
1.59812
1.60272
1.10722
0.366742
0.151312
-0.388891
-0.429027
-0.449186
-0.554389
-0.709683
-0.850113
-0.930543
-0.925837
-0.846041
-0.726131
-0.591131
-0.466244
-0.341538
-0.251946
-0.192466
-0.172964
-0.163303
-0.158552
-0.158688
-0.168891
-0.159095
-0.15448
-0.124932
-0.110271
-0.100498
-0.110656
-0.120679
-0.120792
-0.115905
-0.106086
-0.101244
-0.0914253
-0.0815611
-0.0767195
-0.08681
-0.0869005
-0.0821041
-0.0772851
-0.0623982
-0.0625566
-0.0376698
-0.0276698
-0.0276471
-0.0325793
-0.0324888
-0.0225793
-0.0128281
0.00694561
0.0267646
0.0316741
0.0466968
0.0467647
0.0468325
0.0468778
0.0668326
0.0917873
0.11181
0.131946
0.13724
0.142557
0.137873
0.143281
0.153643
0.169027
0.20448
0.229977
0.230611
0.241312
0.252059
0.262738
0.288371
0.308846
0.329163
0.329321
0.334502
0.334547
0.339525
0.359389
0.389027
0.423348
0.417443
0.421471
0.435498
0.439661
0.449072
0.443575
0.437941
0.42733
0.421629
0.400928
0.380452
0.350113
0.329932
0.299864
0.289842
0.259864
0.249909
0.229887
0.204706
0.189253
0.153394
0.137353
0.1269
0.102873
0.0762669
0.0622624
0.0601583
0.078009
0.0735972
0.0608823
0.0272397
0.0162443
0.010294
0.0145927
0.028552
0.0368099
0.023371
0.00255643
-0.0207241
-0.0509051
-0.0766291
-0.0758146
-0.0662218
-0.0426019
-0.0366743
-0.0399774
-0.0533937
-0.0669005
-0.0800453
-0.0675792
-0.069638
-0.0414027
-0.0330543
-0.0497511
-0.0667647
-0.0792081
-0.0922624
-0.0759502
-0.0800905
-0.0693439
-0.0789366
-0.0835973
-0.0882353
-0.0778959
-0.0825113
-0.082285
-0.0771493
-0.0770362
-0.0869231
-0.0816742
-0.0913801
-0.111018
-0.110701
-0.115452
-0.125339
-0.105294
-0.0752036
-0.0799547
-0.0845022
-0.098914
-0.113439
-0.118032
-0.11776
-0.107489
-0.102217
-0.106787
-0.116199
-0.120407
-0.129548
-0.118801
-0.10819
-0.112715
-0.11224
-0.116652
-0.115995
-0.105204
-0.0993212
-0.0785068
-0.0776923
-0.0718552
-0.0759503
-0.0599548
-0.0540272
-0.0380996
-0.0371946
-0.0212444
-0.0152942
-0.0143666
0.0115837
0.0476244
0.078733
0.0848416
0.0909049
0.0620361
0.0230995
0.00914025
0.0250452
0.0208823
0.0216289
0.0273076
-0.022172
-0.04681
-0.076629
-0.0966064
-0.106787
-0.117104
-0.12767
-0.123349
-0.114186
-0.110204
-0.121244
-0.137511
-0.148982
-0.140566
-0.142285
-0.134027
-0.130769
-0.117398
-0.113846
-0.125249
-0.136652
-0.158077
-0.209434
-0.285724
-0.316878
-0.317806
-0.08362
0.360633
0.909819
1.409
1.64817
1.44233
0.731584
-0.033982
-0.454344
-0.564661
-0.520023
-0.490475
-0.566041
-0.701697
-0.817308
-0.872896
-0.893326
-0.85371
-0.769163
-0.664729
-0.540385
-0.411131
-0.311787
-0.282398
-0.197964
-0.178529
-0.174118
-0.159615
-0.165136
-0.140747
-0.12129
-0.11181
-0.10724
-0.122647
-0.133032
-0.123439
-0.103914
-0.0893892
-0.0648643
-0.0503621
-0.0507466
-0.0759955
-0.101244
-0.111493
-0.0817648
-0.0521041
-0.0224661
-0.0228281
-0.0230996
-0.0383258
-0.0485295
-0.0737331
-0.0690272
-0.0393439
-0.00468329
0.0200452
0.0247511
0.00950223
0.00927597
0.0140497
0.0188687
0.0336425
0.0434389
0.0482579
0.04319
0.0481221
0.08319
0.10328
0.108394
0.103529
0.103642
0.113778
0.128937
0.139208
0.159638
0.155226
0.170814
0.171357
0.191674
0.206719
0.231652
0.241629
0.251584
0.261538
0.276425
0.290973
0.300294
0.314321
0.328235
0.347127
0.371041
0.38509
0.399299
0.41362
0.403009
0.417398
0.446855
0.46129
0.465928
0.440656
0.42052
0.38543
0.355407
0.335407
0.320294
0.290181
0.265
0.244615
0.218959
0.18319
0.167376
0.142602
0.144796
0.134457
0.12638
0.119434
0.116561
0.0954977
0.0759954
0.0696153
0.0728506
0.0766063
0.0859275
0.0900452
0.0879411
0.0735973
0.0565158
0.0417873
0.0256109
0.0198417
0.0170814
0.0182353
0.0122624
-0.00233033
-0.00167419
-0.0106108
-0.00907236
-0.0318778
-0.0144344
0.0038462
-0.00766963
-0.00427598
-0.0212443
-0.0337782
-0.0320135
-0.0359275
-0.0402941
-0.0398416
-0.044457
-0.0490045
-0.0534615
-0.0529864
-0.057647
-0.0625339
-0.0725566
-0.0724434
-0.0722398
-0.0718778
-0.0814253
-0.0859502
-0.0955883
-0.105362
-0.0902941
-0.0952489
-0.0800226
-0.0846833
-0.0842081
-0.093733
-0.103303
-0.102896
-0.102511
-0.0872172
-0.0718552
-0.0764932
-0.096086
-0.100679
-0.115272
-0.114751
-0.104208
-0.108733
-0.0883258
-0.0879638
-0.0924887
-0.0919683
-0.0914932
-0.0959502
-0.0905204
-0.0751131
-0.0547737
-0.0343891
-0.0239592
-0.0184163
-0.0178507
-0.017285
0.00321268
0.0286652
0.054095
0.0895701
0.0950905
0.0906787
0.076267
0.0369231
0.00757918
-0.00680995
-0.0162217
-0.025724
-0.0552263
-0.0596154
-0.0940045
-0.113416
-0.132986
-0.137715
-0.137692
-0.137828
-0.123122
-0.133529
-0.139118
-0.144796
-0.160656
-0.166629
-0.157828
-0.154095
-0.145498
-0.141742
-0.142941
-0.154072
-0.155158
-0.161244
-0.167376
-0.173552
-0.199593
-0.270498
-0.366244
-0.396697
-0.261991
0.11776
0.667557
1.23233
1.59208
1.58695
1.02695
0.287059
-0.21776
-0.422579
-0.447443
-0.45233
-0.537285
-0.677263
-0.717308
-0.90724
-0.927081
-0.887014
-0.796946
-0.667014
-0.527149
-0.387308
-0.277489
-0.217715
-0.187851
-0.178009
-0.183213
-0.168462
-0.163756
-0.139072
-0.119389
-0.119706
-0.11
-0.115204
-0.13543
-0.140701
-0.131018
-0.111357
-0.101742
-0.0920136
-0.102262
-0.092353
-0.0974434
-0.0925566
-0.0977376
-0.0930091
-0.0832353
-0.0584842
-0.0585746
-0.0485973
-0.0535973
-0.0586878
-0.0538235
-0.0440045
-0.0292082
-0.00943439
0.000361964
0.0102715
-0.00477375
0.000181019
0.0201131
0.025
0.0448417
0.064706
0.0796607
0.0897512
0.0950001
0.0953168
0.100588
0.110882
0.136154
0.161493
0.181968
0.182602
0.188439
0.189344
0.210181
0.220928
0.236493
0.261923
0.282285
0.292624
0.307919
0.3131
0.328213
0.338145
0.347964
0.362692
0.382398
0.387172
0.402014
0.411855
0.421697
0.416471
0.436199
0.435814
0.450453
0.450091
0.454774
0.419548
0.394299
0.363982
0.338484
0.327919
0.312262
0.301538
0.265769
0.239864
0.208552
0.15172
0.119661
0.108077
0.0882579
0.0859955
0.0913801
0.0684842
0.0507013
0.0354525
0.0269231
0.0211765
0.0145928
0.0180091
0.0214706
0.0245702
0.0121267
-0.000475109
-0.00891405
-0.00746609
-0.0108824
-0.0038688
-0.0062896
-0.00307691
-0.00414024
0.000248894
-0.0200452
-0.0202941
-0.0155203
-0.0108597
-0.00110854
-0.00119901
-0.00599539
-0.0153846
-0.0193891
-0.0382352
-0.0327827
-0.0341176
-0.0329185
-0.044276
-0.0521266
-0.0697737
-0.0849773
-0.106968
-0.111561
-0.105317
-0.0989593
-0.0876697
-0.0959502
-0.088371
-0.104909
-0.100973
-0.106968
-0.103303
-0.095181
-0.0976923
-0.090724
-0.0742082
-0.0829638
-0.0869457
-0.0960633
-0.100362
-0.0946832
-0.0839819
-0.0783032
-0.0775113
-0.0816516
-0.0907692
-0.104819
-0.108914
-0.0930543
-0.0971946
-0.0913349
-0.0853168
-0.0891629
-0.0979412
-0.106719
-0.115543
-0.104367
-0.0981675
-0.0969231
-0.0955657
-0.0940272
-0.0974208
-0.0957693
-0.0991403
-0.0875566
-0.0809729
-0.0743892
-0.0727828
-0.0711312
-0.0843665
-0.0975792
-0.0807919
-0.0889819
-0.0771946
-0.0704751
-0.0587557
-0.0670362
-0.0552263
-0.0584616
-0.0667195
-0.0552036
-0.0388914
-0.00771494
0.00830315
0.0242307
0.0350226
0.040724
0.0461991
0.0664932
0.0866289
0.106448
0.136041
0.125543
0.109864
0.0891176
0.0682805
0.0372398
0.0210181
0.00454746
-0.0120136
-0.0336426
-0.0602942
-0.0769684
-0.0836652
-0.105453
-0.112398
-0.119389
-0.116425
-0.108439
-0.115475
-0.112557
-0.114661
-0.13681
-0.128959
-0.141041
-0.123235
-0.120362
-0.102398
-0.109231
-0.140882
-0.182398
-0.253869
-0.340339
-0.366719
-0.218167
0.155656
0.694638
1.2688
1.61805
1.58235
1.05172
0.331086
-0.189638
-0.380362
-0.400928
-0.39138
-0.481719
-0.662081
-0.832398
-0.937828
-0.943281
-0.87371
-0.759072
-0.614367
-0.489661
-0.374977
-0.295249
-0.235588
-0.196018
-0.171493
-0.161946
-0.14733
-0.137647
-0.142919
-0.138213
-0.128484
-0.133778
-0.119118
-0.109502
-0.104774
-0.095
-0.105136
-0.110204
-0.105317
-0.105566
-0.090905
-0.0912669
-0.0765837
-0.0768099
-0.086923
-0.101991
-0.097104
-0.0972172
-0.0773755
-0.0625565
-0.0476923
-0.0377602
-0.032828
-0.0278507
-0.0328959
-0.0329864
-0.0181675
-0.0132353
0.0016063
0.0114706
0.0313801
0.0314253
0.0265385
0.0366742
0.0466742
0.0615158
0.0813801
0.0813348
0.0916289
0.102036
0.117511
0.127986
0.143416
0.158891
0.164434
0.18009
0.200837
0.211719
0.232579
0.243371
0.264095
0.279729
0.295204
0.330588
0.340815
0.35095
0.351131
0.361199
0.371244
0.396199
0.42095
0.420656
0.425249
0.424842
0.42957
0.449321
0.453959
0.468416
0.467647
0.456878
0.461041
0.445204
0.429367
0.38862
0.357828
0.326946
0.310973
0.299729
0.273145
0.266561
0.210815
0.1769
0.145543
0.126855
0.124729
0.107421
0.102738
0.104842
0.0996607
0.0686878
0.0476923
0.0317647
0.0253168
0.0179638
0.0197964
0.0211991
0.00260185
-0.0156108
-0.0282805
-0.0352715
-0.0268099
-0.0228959
-0.0185746
-0.00384612
-0.00359727
-0.0128054
-0.0220135
-0.0272172
-0.034457
-0.0343891
-0.0516742
-0.0647059
-0.0764027
-0.0746606
-0.0845702
-0.0978281
-0.110792
-0.119072
-0.112376
-0.0905883
-0.0777602
-0.079276
-0.075543
-0.0867647
-0.108281
-0.115339
-0.103077
-0.10638
-0.0952262
-0.0943665
-0.0936652
-0.103077
-0.0974434
-0.106855
-0.10129
-0.105882
-0.10052
-0.110181
-0.0998416
-0.0942986
-0.0986199
-0.117919
-0.142308
-0.13681
-0.111312
-0.0858145
-0.0802262
-0.0845701
-0.128891
-0.138145
-0.137398
-0.126697
-0.110973
-0.115158
-0.109231
-0.113235
-0.112217
-0.111199
-0.115317
-0.114412
-0.118439
-0.117285
-0.111041
-0.104774
-0.0834163
-0.0770361
-0.105701
-0.104389
-0.113077
-0.0967647
-0.0702714
-0.0636877
-0.0422398
-0.0358597
-0.0544796
-0.0630542
-0.0316515
0.00970593
0.0411539
0.0526019
0.0589593
0.0803168
0.0865611
0.0876697
0.0935747
0.0842308
0.0647286
0.0550453
0.0452942
0.0204299
-0.0144796
-0.0446606
-0.0701131
-0.0857918
-0.0816515
-0.0776696
-0.0838461
-0.0950905
-0.111335
-0.127602
-0.144072
-0.150769
-0.127602
-0.10948
-0.101403
-0.113258
-0.12009
-0.136968
-0.143914
-0.15086
-0.127805
-0.114661
-0.126425
-0.157986
-0.234389
-0.330633
-0.321855
-0.0880316
0.37086
0.959729
1.48378
1.6579
1.35708
0.61138
-0.119231
-0.479864
-0.535566
-0.476335
-0.477127
-0.492805
-0.723348
-0.853824
-0.909299
-0.904774
-0.840362
-0.731086
-0.596878
-0.467579
-0.348258
-0.263869
-0.21448
-0.17509
-0.175814
-0.161516
-0.152308
-0.123054
-0.113778
-0.0944117
-0.0900678
-0.120679
-0.141267
-0.1269
-0.107602
-0.0884162
-0.0791628
-0.069751
-0.0751583
-0.0705203
-0.0758597
-0.0813801
-0.0720362
-0.0476244
-0.04319
-0.0486199
-0.0590271
-0.0693438
-0.0596832
-0.0400452
-0.000429839
0.0141855
0.00880092
-0.0115384
-0.0168552
-0.00710407
0.00769232
0.0125339
0.0323982
0.0371041
0.0468326
0.0565611
0.0413575
0.0463348
0.0763348
0.0964027
0.0964932
0.0914932
0.116448
0.131584
0.126855
0.12733
0.137896
0.143439
0.154027
0.169661
0.175294
0.200928
0.206561
0.232149
0.237783
0.238348
0.243756
0.248982
0.27405
0.289027
0.303869
0.328801
0.338756
0.343733
0.343643
0.343507
0.358235
0.387873
0.402511
0.407262
0.412059
0.401968
0.401787
0.396606
0.396199
0.385747
0.380181
0.369706
0.354299
0.313824
0.293167
0.257127
0.24052
0.218891
0.198213
0.199502
0.168529
0.149977
0.137285
0.113303
0.100973
0.095362
0.0931901
0.0908371
0.0838914
0.0620815
0.0503394
0.0426245
0.0343665
0.0308145
0.0372851
0.0390951
0.041448
0.0294344
0.0180544
0.0121946
0.0117421
0.0114933
0.0263801
0.026267
0.0362218
0.0312896
0.0214706
0.00671951
0.00203624
0.00235298
0.00255659
0.00794122
0.00377831
0.00509052
-0.00366512
-0.0136651
-0.0308823
-0.040905
-0.0580995
-0.0708823
-0.0567647
-0.074276
-0.0688914
-0.0821719
-0.0902036
-0.103326
-0.101063
-0.0931221
-0.0843665
-0.0850905
-0.0807466
-0.0917873
-0.093552
-0.10095
-0.103937
-0.0923755
-0.0911086
-0.0849547
-0.0888009
-0.0976471
-0.0965158
-0.110475
-0.109457
-0.103416
-0.10233
-0.101244
-0.100226
-0.109027
-0.0977375
-0.111516
-0.120362
-0.109186
-0.0980543
-0.101923
-0.100724
-0.0945022
-0.103145
-0.111742
-0.130294
-0.123914
-0.112534
-0.106176
-0.0997964
-0.103348
-0.0868552
-0.100271
-0.0985973
-0.1069
-0.100271
-0.103665
-0.0871267
-0.080543
-0.0838461
-0.0820588
-0.0702941
-0.083552
-0.0719909
-0.0754977
-0.0390723
-0.0326696
-0.0113121
-0.00499995
-0.00373301
0.00237559
0.0132127
0.0238462
0.0542987
0.0696154
0.094819
0.11991
0.104932
0.0947285
0.0793213
0.0636652
0.0578055
0.0518326
0.0357919
0.0197059
-0.0113801
-0.0425792
-0.073914
-0.0903846
-0.101991
-0.0936651
-0.0953846
-0.107014
-0.118665
-0.125294
-0.137036
-0.133823
-0.140724
-0.137602
-0.129389
-0.131018
-0.132511
-0.148869
-0.145158
-0.151403
-0.147647
-0.143891
-0.149932
-0.210837
-0.296584
-0.382217
-0.34767
-0.0630769
0.436561
1.05115
1.53581
1.66052
1.23527
0.500136
-0.115
-0.405113
-0.465294
-0.455475
-0.550792
-0.691131
-0.851425
-0.926697
-0.926946
-0.847172
-0.707489
-0.572873
-0.433326
-0.318869
-0.249344
-0.204751
-0.200136
-0.190543
-0.175995
-0.171471
-0.162014
-0.137557
-0.128054
-0.128484
-0.118756
-0.134072
-0.139457
-0.129864
-0.115362
-0.11086
-0.0962896
-0.0866064
-0.0869005
-0.087172
-0.0924435
-0.0977602
-0.0831448
-0.0636652
-0.0640724
-0.0544344
-0.0547738
-0.0450227
-0.0403167
-0.045543
-0.0408824
-0.0362896
-0.0167194
-0.0120362
0.0026923
0.00748868
0.0123529
0.00719455
0.0170135
0.0268326
0.0565611
0.0713801
0.081199
0.0862217
0.0863122
0.0914479
0.0915836
0.111697
0.131787
0.156923
0.162127
0.177511
0.182986
0.18862
0.204321
0.219932
0.240452
0.275928
0.291403
0.301855
0.312353
0.322783
0.323145
0.343348
0.35328
0.3731
0.397873
0.407647
0.417489
0.407285
0.417036
0.416719
0.43138
0.430973
0.450633
0.445249
0.424909
0.404638
0.374389
0.354118
0.33371
0.313258
0.29776
0.29224
0.246742
0.216199
0.185339
0.15405
0.112308
0.0906335
0.0701584
0.0668778
0.0512896
0.0378281
0.0298869
0.0300452
0.0169456
0.0160859
0.0139366
0.0015837
0.0143665
0.0168778
0.00884615
0.00527148
-0.00859727
-0.0174435
-0.0159729
-0.00884618
-0.00610861
0.00730766
0.00128956
-0.0143666
-0.0147512
-0.0152489
-0.0157693
-0.0111765
-0.0115611
-0.0118552
-0.0170362
-0.0321041
-0.0672172
-0.0572851
-0.0525113
-0.0377828
-0.0327828
-0.042353
-0.0465159
-0.0602941
-0.0694344
-0.0749774
-0.0728054
-0.0783258
-0.081086
-0.0793665
-0.106086
-0.109638
-0.110113
-0.124027
-0.117579
-0.116222
-0.104706
-0.0876244
-0.0896833
-0.106018
-0.117036
-0.113009
-0.119299
-0.116131
-0.10819
-0.0961765
-0.089638
-0.0983032
-0.102127
-0.111018
-0.119955
-0.108959
-0.103032
-0.0971267
-0.0861991
-0.085181
-0.0890271
-0.0978733
-0.101629
-0.110475
-0.099276
-0.0930769
-0.0818552
-0.0854751
-0.0989367
-0.0973303
-0.110679
-0.108959
-0.10724
-0.100543
-0.0687783
-0.0720136
-0.075181
-0.0831674
-0.0861086
-0.0740045
-0.0720589
-0.065181
-0.0633485
-0.0564932
-0.0645928
-0.0575792
-0.0606788
-0.0638688
-0.0672625
-0.0608598
-0.0446154
-0.0285068
-0.0224661
-0.0115159
-0.0106109
-0.00502264
0.00536196
0.0154977
0.0304524
0.0501357
0.0697511
0.084276
0.103778
0.11819
0.127421
0.12138
0.105181
0.0987782
0.0923303
0.075837
0.0542759
0.0177601
-0.00380096
-0.0454526
-0.0572399
-0.0641177
-0.0561087
-0.063077
-0.0650227
-0.0769684
-0.0889141
-0.100928
-0.118009
-0.0901584
-0.0772398
-0.0892534
-0.0911991
-0.103077
-0.104819
-0.121539
-0.113213
-0.115
-0.0966969
-0.0932579
-0.14457
-0.225724
-0.311833
-0.382896
-0.293959
0.0150679
0.519118
1.10824
1.5974
1.72665
1.40111
0.70052
0.0299774
-0.31552
-0.386109
-0.361652
-0.402217
-0.522692
-0.708032
-0.848394
-0.913869
-0.909434
-0.835068
-0.710747
-0.666403
-0.451991
-0.337489
-0.262941
-0.213394
-0.188869
-0.174412
-0.160023
-0.140588
-0.136109
-0.121516
-0.12181
-0.127104
-0.122353
-0.12776
-0.103213
-0.10871
-0.094095
-0.0844796
-0.0997059
-0.0999321
-0.100204
-0.10052
-0.10595
-0.0963801
-0.0917647
-0.0870362
-0.0771267
-0.0721945
-0.087285
-0.0875113
-0.087828
-0.0631222
-0.0383484
-0.0284841
-0.0185294
-0.0285973
-0.033733
-0.0138461
-0.0139819
0.0108824
0.0256788
0.0404525
0.0502941
0.0453168
0.0504073
0.0555883
0.0806788
0.0957014
0.120724
0.130769
0.150882
0.146154
0.146629
0.147172
0.147805
0.168484
0.214253
0.245
0.275656
0.286199
0.296697
0.302036
0.307285
0.322466
0.337557
0.367557
0.377557
0.397602
0.397647
0.402534
0.407262
0.421765
0.431154
0.43052
0.444842
0.429344
0.413937
0.403416
0.387692
0.356765
0.345656
0.319548
0.308597
0.297805
0.272217
0.231765
0.201109
0.180226
0.164118
0.147738
0.116878
0.107376
0.100136
0.0956109
0.0883711
0.0617873
0.0587783
0.0525792
0.0433258
0.0474661
0.0412443
0.045181
0.0340498
0.0173982
0.0148416
0.0165611
0.0179412
0.0293439
0.0261538
0.0187783
0.00692308
-0.00357465
-0.00873303
-0.0198416
-0.0213122
-0.0223529
-0.0255204
-0.0333937
-0.0433032
-0.064457
-0.0780543
-0.0758145
-0.0887783
-0.0618552
-0.054638
-0.0516968
-0.0632806
-0.0547059
-0.0761765
-0.0781222
-0.0806108
-0.0686878
-0.0573077
-0.0563122
-0.065543
-0.0849321
-0.0944344
-0.104005
-0.103665
-0.083371
-0.0683032
-0.0632805
-0.0780995
-0.0927375
-0.112262
-0.101765
-0.0964027
-0.0961765
-0.0959276
-0.100656
-0.0901584
-0.0795249
-0.0788235
-0.103122
-0.112534
-0.122014
-0.101584
-0.081086
-0.0704977
-0.0646833
-0.0637783
-0.0777828
-0.101855
-0.101018
-0.100249
-0.0945475
-0.103778
-0.102805
-0.0966968
-0.0755656
-0.0694118
-0.0481674
-0.0469457
-0.065724
-0.064457
-0.0831674
-0.0917647
-0.105339
-0.0938914
-0.0625339
-0.0262443
0.0150227
0.0313575
0.027715
0.0240951
0.0154978
0.0117874
0.0279865
0.0740951
0.110113
0.150905
0.136606
0.112172
0.0776698
0.0530544
0.028258
0.0231901
-0.00712663
-0.0425565
-0.0530995
-0.0787104
-0.0694343
-0.0652262
-0.0761312
-0.0921945
-0.108461
-0.119909
-0.116471
-0.1131
-0.104728
-0.0962896
-0.107851
-0.134389
-0.14095
-0.127579
-0.109118
-0.10052
-0.101787
-0.117873
-0.173846
-0.244751
-0.330633
-0.291516
-0.00737554
0.12181
1.15611
1.64059
1.59018
0.954796
0.129457
-0.42095
-0.606448
-0.566855
-0.537262
-0.607489
-0.742715
-0.852941
-0.873258
-0.853575
-0.763982
-0.644434
-0.514887
-0.395272
-0.315611
-0.255928
-0.216335
-0.1869
-0.162511
-0.138145
-0.143778
-0.0942534
-0.0846154
-0.0948643
-0.110204
-0.125611
-0.121131
-0.101606
-0.0769684
-0.0622399
-0.0675114
-0.0927376
-0.107873
-0.107964
-0.0980996
-0.0783258
-0.0585521
-0.0338462
-0.0240046
-0.0290272
-0.0539819
-0.0639141
-0.0638915
-0.0539367
-0.0340951
-0.0192082
-0.00432134
0.000656039
0.000610784
0.000588164
0.0255203
0.0305429
0.0205655
0.0306787
0.0358597
0.0410407
0.0512669
0.0564253
0.0614479
0.0764026
0.09638
0.116471
0.126742
0.127194
0.132828
0.128439
0.139027
0.14957
0.155
0.165452
0.171154
0.192059
0.203122
0.209163
0.215113
0.230792
0.24629
0.266584
0.291787
0.296855
0.306742
0.306561
0.30129
0.305995
0.32052
0.344977
0.374208
0.378326
0.392466
0.396742
0.386109
0.375611
0.370158
0.369796
0.364389
0.364095
0.343982
0.319095
0.294321
0.269547
0.244774
0.224683
0.209253
0.198484
0.187919
0.168688
0.145113
0.116222
0.104434
0.107443
0.0975565
0.0938913
0.0977827
0.0758144
0.0590724
0.0424434
0.0454751
0.0429638
0.0450226
0.0471946
0.0398643
0.0432805
0.0369684
0.0298417
0.0259502
0.0147964
0.0167421
0.0233258
0.016448
0.00776017
0.00708143
-0.00708146
-0.0156109
-0.034095
-0.0274661
-0.0257692
-0.0179638
-0.0145023
-0.0306561
-0.0466742
-0.0428507
-0.0545249
-0.0619457
-0.06
-0.0485973
-0.0525566
-0.0616516
-0.0557919
-0.0649095
-0.0740498
-0.0782579
-0.0776923
-0.0672398
-0.0667873
-0.066267
-0.0756788
-0.0750226
-0.089276
-0.0935521
-0.0978733
-0.0821946
-0.081448
-0.0757014
-0.075
-0.0892534
-0.108484
-0.117738
-0.121946
-0.101131
-0.100317
-0.0945249
-0.0885973
-0.0925566
-0.0915158
-0.115498
-0.11457
-0.113733
-0.112896
-0.0920362
-0.0811312
-0.0902036
-0.0992534
-0.0932579
-0.102308
-0.10638
-0.0804751
-0.0645702
-0.0436426
-0.0276019
-0.026448
-0.0202941
-0.0141629
-0.0181448
-0.00219461
0.043733
0.0497285
0.0857692
0.0969004
0.0829864
0.059095
0.0451583
0.0259728
0.0267194
-0.00266974
-0.0170815
-0.0465385
-0.0710408
-0.100747
-0.115679
-0.115769
-0.131018
-0.116493
-0.112081
-0.122783
-0.128484
-0.139299
-0.155249
-0.156357
-0.137738
-0.144231
-0.140634
-0.132081
-0.143484
-0.139729
-0.150996
-0.147285
-0.143529
-0.159615
-0.175543
-0.221358
-0.311968
-0.387421
-0.327738
-0.0179412
0.49181
1.07158
1.55147
1.67149
1.3617
0.681968
0.042285
-0.297421
-0.387172
-0.386991
-0.421878
-0.451765
-0.711606
-0.851403
-0.916177
-0.921041
-0.870996
-0.766041
-0.626154
-0.501312
-0.381493
-0.291584
-0.241584
-0.21172
-0.191765
-0.1769
-0.167127
-0.142376
-0.127602
-0.12776
-0.132873
-0.127964
-0.128077
-0.133213
-0.123394
-0.113597
-0.113824
-0.103937
-0.0990046
-0.0989819
-0.0989593
-0.0990498
-0.0892308
-0.0894797
-0.0897285
-0.0848416
-0.0649095
-0.0749321
-0.0799321
-0.0699773
-0.065
-0.0401584
-0.0252941
-0.0154525
-0.0105656
-0.0155203
-0.0104299
-0.0104072
-0.000361979
0.0195928
0.0295022
0.0394118
0.054457
0.0646606
0.0599547
0.060362
0.0657013
0.0810407
0.106357
0.116674
0.127014
0.127602
0.143281
0.154118
0.169977
0.180701
0.196267
0.241787
0.24724
0.272738
0.278122
0.283439
0.293597
0.318575
0.343416
0.353122
0.362783
0.387376
0.392036
0.401652
0.391177
0.405611
0.41491
0.424095
0.448145
0.45224
0.42629
0.420294
0.404344
0.373326
0.357398
0.346448
0.320679
0.289977
0.254299
0.233688
0.193009
0.151968
0.125679
0.0946606
0.100023
0.0977149
0.0731222
0.0607466
0.0439367
0.035724
0.0244797
0.0302715
0.0245023
0.0283032
0.0221494
0.0258597
0.0145928
0.00705883
-0.00115387
-0.00475113
-0.00839368
0.00823528
0.00554298
0.00393663
0.00834842
-0.00160633
-0.026991
-0.00904977
-0.0285973
-0.0256335
-0.0240724
-0.0320136
-0.0420814
-0.0487104
-0.0581222
-0.0619005
-0.0656335
-0.0592534
-0.0623982
-0.0597059
-0.0562896
-0.0624887
-0.0687783
-0.0805204
-0.0778507
-0.0653846
-0.0640045
-0.0580317
-0.0623756
-0.0718778
-0.0814027
-0.0859502
-0.0856334
-0.0804298
-0.0852036
-0.0800452
-0.0847285
-0.0793665
-0.0889592
-0.103597
-0.103281
-0.0979411
-0.112647
-0.0872624
-0.0867647
-0.0912443
-0.0956787
-0.115113
-0.114525
-0.124004
-0.108461
-0.102919
-0.0923529
-0.0966968
-0.0860859
-0.0954977
-0.109909
-0.109231
-0.103552
-0.0878507
-0.0771719
-0.081448
-0.0854977
-0.094457
-0.0984163
-0.0974434
-0.0915611
-0.075724
-0.0747964
-0.0588235
-0.0477828
-0.0467647
-0.0456787
-0.0295701
-0.0184841
-0.00244342
0.0185068
0.0293892
0.0602942
0.0712444
0.0771267
0.0928281
0.093439
0.0988688
0.0840498
0.0791177
0.0441403
0.0340046
0.0136878
-0.0168778
-0.047647
-0.0586651
-0.0799773
-0.0814027
-0.0779638
-0.0844796
-0.106063
-0.117828
-0.124796
-0.126946
-0.13914
-0.126267
-0.123258
-0.120158
-0.131946
-0.13871
-0.175294
-0.156833
-0.148258
-0.129593
-0.12586
-0.136968
-0.182851
-0.283575
-0.384208
-0.404751
-0.220317
0.199095
0.778733
1.34839
1.67317
1.57301
0.962919
0.217896
-0.272149
-0.41724
-0.42233
-0.447489
-0.557647
-0.732738
-0.882805
-0.967851
-0.938054
-0.833303
-0.703597
-0.658846
-0.418982
-0.319118
-0.249276
-0.214548
-0.204887
-0.180294
-0.160724
-0.141086
-0.136312
-0.116448
-0.126493
-0.121584
-0.121674
-0.10681
-0.102036
-0.102353
-0.0927376
-0.10319
-0.108462
-0.10362
-0.103688
-0.0887783
-0.0840045
-0.0742534
-0.0795023
-0.0745702
-0.0645249
-0.0593892
-0.0393213
-0.0242987
-0.0244118
-0.0297059
-0.0199548
-0.0101358
0.00488685
0.00999998
0.00506786
-0.00984165
0.0152036
0.0352488
0.0602262
0.0801357
0.0851131
0.100113
0.0952715
0.110498
0.120769
0.121018
0.136335
0.136674
0.172081
0.197602
0.203145
0.218891
0.239593
0.255339
0.271131
0.296878
0.322579
0.333235
0.333869
0.344253
0.354525
0.374593
0.399457
0.414027
0.438643
0.43819
0.437624
0.432036
0.441357
0.450498
0.474548
0.488507
0.482511
0.451629
0.425973
0.400453
0.380023
0.369615
0.334321
0.313959
0.283756
0.258643
0.243597
0.208597
0.178597
0.143484
0.122986
0.107082
0.101041
0.0807693
0.0523756
0.0365838
0.0283485
0.0315837
0.0243439
0.00929861
0.0108823
0.0103846
0.00438914
0.013371
0.0172624
-0.00443439
-0.0118099
-0.0195475
0.00253393
-0.000724003
-0.0100226
-0.0259728
-0.0492081
-0.0581674
-0.0569909
-0.043371
-0.0436425
-0.0383258
-0.0365611
-0.0496833
-0.0730543
-0.0963574
-0.109095
-0.101267
-0.0929864
-0.0895701
-0.0811991
-0.058009
-0.0350679
-0.0324887
-0.045543
-0.0692308
-0.0933484
-0.0927828
-0.0822398
-0.07681
-0.0864253
-0.111131
-0.130792
-0.14043
-0.130068
-0.109661
-0.0893891
-0.0641629
-0.0739366
-0.0835747
-0.1131
-0.122579
-0.117149
-0.12681
-0.126538
-0.131131
-0.115611
-0.0949321
-0.0941629
-0.0984616
-0.11776
-0.122127
-0.131471
-0.125769
-0.125091
-0.119321
-0.118575
-0.122624
-0.116606
-0.130611
-0.10957
-0.113529
-0.107443
-0.0963122
-0.0801131
-0.0837783
-0.0823756
-0.0611086
-0.0447964
-0.0184842
-0.00210407
0.0343665
0.0158823
0.0125113
0.0391403
0.0507692
0.0672625
0.088733
0.100204
0.116742
0.108416
0.0750226
0.041448
0.0176697
0.00375566
-0.0102715
-0.0394796
-0.0588688
-0.0733936
-0.0830769
-0.0779638
-0.0829638
-0.0932126
-0.113733
-0.129457
-0.140339
-0.13129
-0.117262
-0.113348
-0.109593
-0.106018
-0.107557
-0.10414
-0.0957919
-0.097534
-0.129208
-0.165837
-0.167376
-0.173846
-0.155249
-0.181719
-0.253077
-0.299367
-0.195362
0.138756
0.632986
1.18222
1.58145
1.65072
1.18011
0.969661
-0.255679
-0.55095
-0.556131
-0.481312
-0.491629
-0.597036
-0.732534
-0.828054
-0.858484
-0.833914
-0.789321
-0.734615
-0.644842
-0.515068
-0.380362
-0.280814
-0.211335
-0.191855
-0.162308
-0.14267
-0.128054
-0.133575
-0.129208
-0.12491
-0.11552
-0.0710181
-0.0613348
-0.0664479
-0.086561
-0.101742
-0.097104
-0.0725339
-0.0579185
-0.0583031
-0.0635746
-0.0688008
-0.0788687
-0.078914
-0.0589592
-0.0440271
-0.0341628
-0.0242307
-0.0243664
-0.0194117
-0.0243891
-0.0193438
-0.0293438
-0.0194117
-0.00943434
-0.0044796
0.0156109
0.0207014
0.0258145
0.0359955
0.0312217
0.0263575
0.0564932
0.0567421
0.0671041
0.0726245
0.0781675
0.0839593
0.0846154
0.0852263
0.085905
0.111629
0.127421
0.138326
0.149344
0.135385
0.14638
0.157172
0.177783
0.183281
0.188733
0.219095
0.224367
0.234548
0.239593
0.259593
0.269525
0.289344
0.319118
0.328778
0.343326
0.342805
0.342285
0.346697
0.350973
0.370226
0.379434
0.383688
0.383122
0.382738
0.367398
0.356991
0.331538
0.326131
0.315769
0.310611
0.280407
0.259977
0.219389
0.194253
0.165633
0.159231
0.150317
0.14819
0.141425
0.132579
0.117828
0.107557
0.0859276
0.0692534
0.0728959
0.0664253
0.069457
0.0769457
0.0590498
0.056086
0.0534389
0.046267
0.0497511
0.0487556
0.0476018
0.0555203
0.0416289
0.0356108
0.0227828
-0.000316784
-0.0117874
-0.0100679
-0.00549777
0.000475079
-0.00816748
-0.0117195
-0.0298191
-0.0472851
-0.0540046
-0.045543
-0.0316516
-0.0227376
-0.0240045
-0.0306109
-0.0527828
-0.0655204
-0.0838462
-0.0676244
-0.0666968
-0.0658145
-0.0699321
-0.0890045
-0.0829864
-0.0970588
-0.111176
-0.11043
-0.0997059
-0.0890724
-0.0934389
-0.102715
-0.111946
-0.116086
-0.115226
-0.119412
-0.113597
-0.0978281
-0.0970588
-0.101131
-0.110249
-0.119367
-0.108462
-0.127557
-0.116719
-0.110905
-0.100158
-0.0994118
-0.0985747
-0.102624
-0.116674
-0.105656
-0.104751
-0.0938914
-0.0880317
-0.0871041
-0.0911765
-0.0852941
-0.094276
-0.0933258
-0.0773756
-0.076448
-0.055543
-0.034638
-0.0336652
-0.0276018
-0.0164706
-0.010362
0.000678733
0.031629
0.0675566
0.0784389
0.0944118
0.085362
0.051267
0.0221041
0.0128506
-0.00160636
-0.026267
-0.036086
-0.0509729
-0.0759503
-0.0909729
-0.111131
-0.121516
-0.117149
-0.117919
-0.113914
-0.115
-0.111177
-0.122376
-0.133665
-0.145045
-0.151493
-0.147987
-0.14457
-0.141086
-0.127489
-0.123756
-0.139864
-0.150769
-0.166629
-0.212421
-0.273122
-0.363643
-0.389095
-0.224412
0.11543
0.615452
1.1555
1.57561
1.66572
1.32584
0.635928
0.00110856
-0.303665
-0.383371
-0.3931
-0.447873
-0.577783
-0.747806
-0.807828
-0.917805
-0.91767
-0.852534
-0.762376
-0.637353
-0.517421
-0.392579
-0.302873
-0.238077
-0.208281
-0.193439
-0.193552
-0.203756
-0.183959
-0.169208
-0.144593
-0.134932
-0.125158
-0.115317
-0.125498
-0.130656
-0.130928
-0.126244
-0.111538
-0.101787
-0.0970362
-0.102172
-0.10724
-0.097353
-0.0875113
-0.0877149
-0.0829185
-0.0632127
-0.0584163
-0.0435747
-0.0436651
-0.0387104
-0.048733
-0.0388461
-0.0440045
-0.0341629
-0.0143213
-0.00441173
0.000520408
0.00547516
0.0204299
0.0204073
0.0403168
0.0501811
0.0601132
0.0850227
0.0950906
0.100362
0.110634
0.105905
0.126199
0.141471
0.161787
0.172262
0.187919
0.188575
0.204321
0.220045
0.235633
0.256063
0.286357
0.321606
0.331742
0.341878
0.351991
0.356968
0.35681
0.386493
0.401063
0.405588
0.425045
0.434547
0.43905
0.433597
0.438009
0.44224
0.436244
0.43509
0.433914
0.402851
0.381878
0.346086
0.315385
0.279683
0.253959
0.238213
0.217353
0.171357
0.160045
0.128733
0.09319
0.0641628
0.0524208
0.0431221
0.0457239
0.0387329
0.0452714
0.0337103
0.0292759
0.0184615
0.0122397
0.0159502
0.0243891
0.0272624
0.0144117
0.00628957
-0.0122851
-0.0107692
-0.023733
-0.00619909
-0.0125792
-0.00864252
-0.000475124
-0.00920814
-0.015362
-0.0334841
-0.0570136
-0.0635068
-0.0617421
-0.0672398
-0.0514027
-0.0603167
-0.0742307
-0.0778507
-0.0757692
-0.088009
-0.0697511
-0.0613574
-0.0630769
-0.0751357
-0.0677375
-0.0758823
-0.0896153
-0.0839366
-0.0833484
-0.0830995
-0.0729185
-0.0726923
-0.0824208
-0.0871266
-0.0917646
-0.101425
-0.106154
-0.0909728
-0.0957466
-0.0855882
-0.0853846
-0.0900226
-0.089638
-0.0942534
-0.0988914
-0.0985294
-0.09319
-0.082828
-0.0823755
-0.0768552
-0.0911765
-0.115498
-0.114774
-0.109004
-0.103416
-0.0927828
-0.092104
-0.0962443
-0.100385
-0.0895475
-0.0938009
-0.0980543
-0.102285
-0.0964932
-0.0756787
-0.0796832
-0.078552
-0.0873756
-0.0961538
-0.0899321
-0.0738235
-0.057828
-0.0417647
-0.0256335
-0.00945699
-0.0132579
-0.0120814
-0.0159728
0.00506791
0.0359503
0.0767874
0.107579
0.118349
0.0991177
0.0846833
0.0601358
0.0452942
0.0301585
0.0248191
0.0143214
-0.00622162
-0.0368551
-0.0577827
-0.0838913
-0.090113
-0.0866288
-0.0932804
-0.0950451
-0.0968551
-0.098665
-0.115543
-0.122421
-0.124412
-0.126403
-0.118484
-0.115543
-0.112443
-0.119163
-0.130747
-0.132308
-0.143914
-0.165452
-0.216923
-0.238303
-0.35448
-0.30552
-0.0113348
0.4981
1.09762
1.56215
1.66661
1.216
0.48543
-0.0999773
-0.380249
-0.410339
-0.400475
-0.455679
-0.600928
-0.761199
-0.876516
-0.906674
-0.876697
-0.786742
-0.6569
-0.532172
-0.407557
-0.283009
-0.253371
-0.168688
-0.153982
-0.159208
-0.149299
-0.149457
-0.149683
-0.144955
-0.125294
-0.115656
-0.11586
-0.105973
-0.106018
-0.121063
-0.116244
-0.111448
-0.101742
-0.0869231
-0.0820814
-0.0671267
-0.0771493
-0.0822624
-0.0923529
-0.0824434
-0.0876019
-0.087715
-0.0527602
-0.0427602
-0.0377376
-0.057715
-0.0476471
-0.0276471
-0.0076019
0.0073981
0.0173076
0.0271719
0.0421493
0.032285
0.037466
0.0376244
0.0377601
0.0477375
0.0777828
0.102941
0.118099
0.118326
0.113665
0.12914
0.14448
0.164796
0.17509
0.215498
0.231063
0.236833
0.24276
0.243665
0.259457
0.265158
0.295769
0.331335
0.341855
0.352376
0.347873
0.34828
0.368461
0.398507
0.393326
0.423099
0.422851
0.432624
0.427443
0.422194
0.421833
0.421267
0.430566
0.424796
0.433959
0.42319
0.392443
0.36181
0.336176
0.320566
0.325
0.294434
0.283891
0.253258
0.227692
0.191742
0.146086
0.101742
0.0797286
0.0852941
0.0980317
0.106312
0.102624
0.0757013
0.0411085
0.0151583
0.0140271
0.0129637
0.0166289
0.0196606
0.0120136
-0.0110633
-0.0392986
-0.0425339
-0.035362
-0.00757916
0.00597288
0.00549772
-0.00902717
-0.0186426
-0.0240272
-0.0313801
-0.0663575
-0.0670588
-0.0650453
-0.0669457
-0.0657693
-0.0661539
-0.0845475
-0.107579
-0.11086
-0.109276
-0.0824887
-0.0750679
-0.0570136
-0.0835294
-0.0848642
-0.101244
-0.0927376
-0.0695702
-0.0669683
-0.0798869
-0.0882353
-0.0969683
-0.105996
-0.110158
-0.104412
-0.103688
-0.118077
-0.107534
-0.106923
-0.101312
-0.0856335
-0.0799321
-0.0991629
-0.113348
-0.127624
-0.122014
-0.126471
-0.10095
-0.110317
-0.119457
-0.103371
-0.102262
-0.111244
-0.125317
-0.0993892
-0.0934616
-0.0924435
-0.0963349
-0.1
-0.10362
-0.107262
-0.0909502
-0.0847285
-0.0784389
-0.0821041
-0.0856561
-0.0890498
-0.0924434
-0.0958824
-0.0944118
-0.0730317
-0.0615385
-0.0349548
-0.0283937
-0.0166516
-0.0249095
-0.0331674
-0.0165611
0.00986426
0.0412217
0.0675113
0.0838688
0.100226
0.0966289
0.0980543
0.0792534
0.0752715
0.0609276
0.0514027
0.0419004
0.0172851
-0.012353
-0.0471494
-0.077172
-0.0924434
-0.088009
-0.0938009
-0.0647738
-0.0808145
-0.0968552
-0.112964
-0.129163
-0.125633
-0.107376
-0.099276
-0.106154
-0.102941
-0.109615
-0.121154
-0.14267
-0.139276
-0.11095
-0.112511
-0.118937
-0.165113
-0.256063
-0.341878
-0.29267
-0.0383937
0.410928
0.985272
1.15459
1.659
1.41851
0.7431
0.00276017
-0.427511
-0.507851
-0.443303
-0.413756
-0.474208
-0.609502
-0.744774
-0.82991
-0.855181
-0.840498
-0.80095
-0.736493
-0.616923
-0.51233
-0.407738
-0.3281
-0.263484
-0.198959
-0.16948
-0.159977
-0.15543
-0.130973
-0.126425
-0.10681
-0.107104
-0.10233
-0.107534
-0.102805
-0.0931449
-0.0635747
-0.0488915
-0.0441856
-0.059344
-0.0795023
-0.104774
-0.0949775
-0.0752037
-0.0604752
-0.0457693
-0.0308824
-0.0309503
-0.0409956
-0.0510634
-0.0461539
-0.036267
-0.0214028
-0.00147061
-0.00147061
-0.00638013
-0.00133488
-0.00128962
0.00861986
0.0285293
0.0433936
0.0632352
0.0582578
0.0683484
0.0685746
0.0588235
0.059095
0.0693212
0.094457
0.129683
0.145045
0.160611
0.15629
0.152081
0.152851
0.138575
0.159276
0.169932
0.225543
0.251131
0.251674
0.247195
0.242602
0.247828
0.272805
0.292602
0.312285
0.316968
0.331652
0.346425
0.351063
0.365633
0.37509
0.404299
0.428416
0.437602
0.43181
0.411109
0.390452
0.364819
0.354185
0.353484
0.342873
0.317489
0.297262
0.272172
0.236923
0.206335
0.185362
0.159615
0.144977
0.137421
0.117534
0.108462
0.106719
0.098914
0.0929864
0.0786651
0.0723982
0.070724
0.0643665
0.06319
0.0518099
0.0497511
0.032104
0.0290045
0.0307692
0.0377602
0.0602262
0.0534163
0.0474887
0.0317195
0.00993213
0.00126699
0.00527152
0.00246608
-0.00574657
-0.0223077
-0.0206561
-0.0310633
-0.0450227
-0.0585747
-0.0571494
-0.0554751
-0.0581674
-0.0551358
-0.0466064
-0.0627602
-0.0690724
-0.0708145
-0.0782127
-0.0613122
-0.0599774
-0.0540271
-0.0532805
-0.0626018
-0.0769231
-0.0812443
-0.0856335
-0.085181
-0.084819
-0.0844797
-0.0840498
-0.0835747
-0.0929638
-0.107398
-0.1019
-0.106425
-0.0809729
-0.0854751
-0.0798869
-0.0741629
-0.0933484
-0.0976018
-0.101833
-0.101176
-0.0955656
-0.0950226
-0.0844344
-0.0886878
-0.0927601
-0.10681
-0.105814
-0.114932
-0.0941402
-0.0884389
-0.0827828
-0.0920362
-0.0862217
-0.0951357
-0.0940498
-0.0979864
-0.0969457
-0.0860181
-0.0651131
-0.0541629
-0.0431674
-0.0371267
-0.0411086
-0.0300905
-0.014095
-0.0131448
-0.00221722
0.0387104
0.0647511
0.0709049
0.077104
0.0531447
0.048914
0.0395248
0.0299547
0.0252941
0.0105655
-0.00918561
-0.0440951
-0.0791404
-0.0893892
-0.104819
-0.105566
-0.106335
-0.097353
-0.108416
-0.124502
-0.135769
-0.147127
-0.15362
-0.140204
-0.131765
-0.133326
-0.124751
-0.131063
-0.142308
-0.158462
-0.144593
-0.150679
-0.136606
-0.132444
-0.168167
-0.233733
-0.329005
-0.404208
-0.334367
-0.00459282
0.490136
1.06989
1.53477
1.65477
1.29986
0.594932
-0.03
-0.344955
-0.415023
-0.410158
-0.460317
-0.605385
-0.760475
-0.860566
-0.900634
-0.85086
-0.751131
-0.621471
-0.486833
-0.387127
-0.292376
-0.227602
-0.197851
-0.183145
-0.16853
-0.153982
-0.129457
-0.119842
-0.110204
-0.120498
-0.115769
-0.126041
-0.116312
-0.106674
-0.0970137
-0.0923757
-0.0925567
-0.0926924
-0.107783
-0.107851
-0.0980544
-0.0932807
-0.0685069
-0.0687558
-0.0539142
-0.0540047
-0.0640272
-0.0690951
-0.059163
-0.0542987
-0.0345023
-0.0197286
0.000158265
-0.00486435
-0.00481908
-0.00984171
-0.0148191
0.0100905
0.0149547
0.0148642
0.0347285
0.0446605
0.059751
0.0699321
0.0801583
0.0903393
0.105475
0.125633
0.14086
0.161131
0.171516
0.177036
0.17767
0.178303
0.208914
0.249389
0.264842
0.280249
0.290633
0.305995
0.301312
0.311561
0.321584
0.341403
0.346176
0.385882
0.370588
0.400339
0.39509
0.389683
0.404095
0.408416
0.42767
0.4319
0.416176
0.400475
0.364661
0.338733
0.317738
0.296652
0.280543
0.269593
0.218756
0.198032
0.177398
0.151719
0.110882
0.089638
0.0730995
0.0720136
0.0624208
0.0550905
0.0404072
0.0278733
0.0159049
0.017285
0.0254751
0.0208823
0.0298642
0.0285068
0.0322172
0.0107013
0.00852938
0.00563346
0.00230768
0.0137104
0.0103393
0.0175339
0.0105656
0.00966063
-0.000475109
-0.000271469
0.00409502
0.00149319
0.00128958
0.00377828
-0.00457013
-0.0312669
-0.0397059
-0.0550905
-0.0589366
-0.0575339
-0.0661538
-0.0593891
-0.0569004
-0.0536651
-0.0649321
-0.0761538
-0.0778054
-0.0747059
-0.0626923
-0.061267
-0.0652715
-0.0595023
-0.0739141
-0.0883032
-0.0927602
-0.0873756
-0.0920814
-0.0917647
-0.0764706
-0.081086
-0.0855883
-0.100045
-0.109548
-0.104095
-0.108756
-0.0934842
-0.0830996
-0.0976697
-0.0872172
-0.091629
-0.106063
-0.115475
-0.114842
-0.0992986
-0.0936652
-0.0879638
-0.0871946
-0.0963801
-0.110475
-0.0995701
-0.0986878
-0.0928959
-0.0821493
-0.0762444
-0.0751357
-0.0740045
-0.077828
-0.0766742
-0.080543
-0.0845249
-0.0684842
-0.0574887
-0.0564027
-0.0553167
-0.0540045
-0.0628054
-0.0515837
-0.0254299
0.000610873
0.0116742
0.0177149
0.0188235
0.0249322
0.030905
0.0566742
0.0921946
0.102466
0.112624
0.102647
0.0825792
0.0524435
0.0420362
0.026448
0.000656128
-0.0304072
-0.0366968
-0.0480769
-0.0795248
-0.0809276
-0.0873982
-0.0940271
-0.105792
-0.112692
-0.104796
-0.1069
-0.119005
-0.121086
-0.117986
-0.129864
-0.131606
-0.133371
-0.130068
-0.136606
-0.117986
-0.11914
-0.145204
-0.201199
-0.302172
-0.373077
-0.353891
-0.10457
0.359864
0.949389
1.47405
1.67378
1.33357
0.623326
-0.0419231
-0.39224
-0.442534
-0.447715
-0.522896
-0.672987
-0.828054
-0.933145
-0.943349
-0.84862
-0.808914
-0.569231
-0.429502
-0.329751
-0.254977
-0.215136
-0.205385
-0.190656
-0.165973
-0.15129
-0.146606
-0.136923
-0.137149
-0.147376
-0.137692
-0.133077
-0.123529
-0.103914
-0.0942534
-0.0945475
-0.0997285
-0.104932
-0.11509
-0.100249
-0.0904751
-0.0908145
-0.0611538
-0.0714253
-0.0716063
-0.0666742
-0.0617195
-0.06181
-0.051991
-0.042172
-0.0223077
-0.0124661
-0.0175565
-0.0226018
-0.0126018
-0.00757919
0.00739819
0.0272624
0.0471493
0.0520362
0.0720362
0.0721719
0.0773755
0.0675565
0.0775791
0.102421
0.112308
0.132376
0.142624
0.152986
0.158507
0.163982
0.17948
0.209955
0.230498
0.261086
0.266719
0.277443
0.283213
0.288914
0.29948
0.319977
0.345339
0.380588
0.390769
0.390996
0.391177
0.381199
0.386154
0.411018
0.420815
0.430611
0.455362
0.450181
0.454932
0.444525
0.414027
0.408484
0.382873
0.367217
0.351539
0.315792
0.279887
0.244005
0.2231
0.217217
0.206086
0.189547
0.157783
0.126199
0.105837
0.0877601
0.067466
0.0696154
0.0626471
0.0591403
0.0573982
0.057715
0.0465611
0.0202489
0.00895928
-0.00771493
-0.015181
-0.0134163
-0.0071041
-0.010724
-0.0138688
-0.0117647
-0.0135972
-0.0197511
-0.0304298
-0.0407918
-0.0361991
-0.0465837
-0.0417873
-0.0366289
-0.0409955
-0.04
-0.0439819
-0.0490497
-0.0361538
-0.0406787
-0.0425339
-0.0606561
-0.0831901
-0.0830769
-0.099457
-0.108303
-0.106493
-0.10991
-0.108416
-0.0917194
-0.0893665
-0.0862217
-0.0976697
-0.113982
-0.115249
-0.111855
-0.103937
-0.091448
-0.0994118
-0.0876923
-0.0913122
-0.0952036
-0.104389
-0.10862
-0.102941
-0.077353
-0.0866968
-0.0909729
-0.100204
-0.119389
-0.13371
-0.128077
-0.092534
-0.0619231
-0.0611765
-0.0752941
-0.0893666
-0.103416
-0.132376
-0.121335
-0.120385
-0.109434
-0.0983937
-0.0723077
-0.0710634
-0.0797738
-0.0984389
-0.102104
-0.100769
-0.0944118
-0.0779638
-0.0763801
-0.0896833
-0.102964
-0.10138
-0.0948417
-0.0783937
-0.0619684
-0.0504525
-0.0588462
-0.0522172
-0.0554978
-0.0388688
-0.0123303
0.00918551
0.0254751
0.0316968
0.0428054
0.0488462
0.0697964
0.100588
0.116131
0.12138
0.0914479
0.0914253
0.0813348
0.0611765
0.0408371
0.0203394
-0.0203168
-0.0461539
-0.0621946
-0.0583258
-0.0595475
-0.0558824
-0.0722399
-0.0986652
-0.115226
-0.126968
-0.118801
-0.0958372
-0.0828734
-0.0899096
-0.116901
-0.128869
-0.145792
-0.142647
-0.154457
-0.161222
-0.157941
-0.109593
-0.106154
-0.132625
-0.188914
-0.280113
-0.356199
-0.352262
-0.113281
0.325792
0.870023
1.38934
1.6788
1.56833
0.992873
0.217489
-0.348077
-0.498643
-0.459231
-0.424796
-0.460339
-0.605769
-0.751222
-0.851697
-0.882263
-0.887919
-0.808597
-0.704231
-0.599819
-0.490339
-0.40095
-0.316471
-0.262082
-0.20267
-0.183303
-0.158959
-0.124548
-0.11991
-0.115317
-0.120747
-0.111222
-0.08181
-0.0674661
-0.0580769
-0.0634842
-0.0686878
-0.0888009
-0.0790498
-0.0743665
-0.0847738
-0.0802715
-0.055724
-0.0411312
-0.031448
-0.0216516
-0.0267421
-0.0319005
-0.0321041
-0.0274208
-0.0227149
-0.0179864
-0.0182126
-0.0233031
-0.0134389
-0.00861987
0.0211086
0.0307467
0.0404525
0.0502263
0.0550905
0.0450679
0.05
0.0549321
0.0698643
0.0948416
0.0899321
0.110204
0.120566
0.120882
0.12129
0.126697
0.127195
0.147783
0.178416
0.19905
0.214593
0.220226
0.220724
0.231131
0.236335
0.251425
0.271222
0.290882
0.30543
0.31
0.324547
0.324072
0.338416
0.357511
0.371471
0.380317
0.409231
0.403348
0.40767
0.407081
0.401471
0.390814
0.380136
0.369547
0.354027
0.33362
0.308348
0.293348
0.263439
0.228348
0.212986
0.182195
0.176109
0.16009
0.135181
0.117285
0.101878
0.0838009
0.0670362
0.0547737
0.0498868
0.0764479
0.0654977
0.0688688
0.0574434
0.0512443
0.0400679
0.0435294
0.0466968
0.049276
0.0457693
0.0402489
0.0225113
0.0079186
-0.00714926
-0.00676467
-0.0219004
-0.00857463
-0.0183031
-0.0172624
-0.0160633
-0.0244796
-0.0471719
-0.0442081
-0.040724
-0.0371946
-0.0288235
-0.0257013
-0.0281222
-0.036086
-0.0496154
-0.0686651
-0.0530317
-0.0525339
-0.0470588
-0.0566516
-0.0561991
-0.0656787
-0.0750905
-0.0895249
-0.0889366
-0.0734389
-0.0730317
-0.0675792
-0.0770588
-0.0815158
-0.0859729
-0.100475
-0.0900905
-0.0947285
-0.0893665
-0.0688688
-0.0783258
-0.0777376
-0.0820815
-0.0964706
-0.0959503
-0.0904752
-0.0950227
-0.0895023
-0.0888688
-0.108235
-0.112489
-0.0967195
-0.106063
-0.10043
-0.0999095
-0.0894571
-0.0839367
-0.0783032
-0.0876245
-0.106901
-0.0862218
-0.0856562
-0.0601132
-0.0546154
-0.0290272
-0.0234163
-0.0127376
-0.0119684
-0.00624438
0.00441173
0.0299094
0.0603393
0.0758371
0.0913574
0.0869004
0.0675565
0.0381448
0.0136199
-0.00592764
-0.00558826
-0.0153394
-0.0301584
-0.0550679
-0.0850227
-0.110113
-0.120317
-0.135656
-0.121199
-0.116946
-0.112738
-0.123575
-0.134344
-0.140045
-0.145792
-0.151584
-0.147421
-0.148303
-0.149163
-0.144977
-0.135701
-0.146131
-0.146493
-0.151765
-0.167036
-0.207217
-0.272376
-0.352466
-0.322398
-0.112262
0.327941
0.898213
1.41339
1.62357
1.63369
0.733891
0.0540724
-0.320634
-0.430339
-0.445045
-0.504774
-0.629593
-0.76957
-0.87957
-0.894548
-0.849525
-0.764412
-0.629389
-0.499344
-0.379367
-0.269502
-0.219729
-0.179864
-0.169977
-0.165
-0.170023
-0.160023
-0.160045
-0.145136
-0.140317
-0.125498
-0.110566
-0.120588
-0.13052
-0.130475
-0.125498
-0.115543
-0.0956561
-0.080724
-0.0757919
-0.0757466
-0.0755656
-0.0754299
-0.0803168
-0.0652489
-0.0552715
-0.0403167
-0.0302941
-0.0302262
-0.0301358
-0.0350453
-0.0400679
-0.0351131
-0.0101357
-0.00518097
0.0247964
0.0397738
0.044819
0.0499322
0.0600679
0.0651358
0.0800679
0.105023
0.119977
0.135068
0.130249
0.145611
0.150973
0.146357
0.161697
0.192014
0.227353
0.257828
0.263507
0.274276
0.280136
0.285973
0.296652
0.327172
0.332511
0.35276
0.363077
0.368326
0.378597
0.373665
0.383484
0.383145
0.397738
0.412172
0.421629
0.416063
0.395543
0.374955
0.344299
0.328597
0.317602
0.306471
0.290339
0.259253
0.228258
0.197376
0.156606
0.130792
0.114977
0.104186
0.0784843
0.0626472
0.0516744
0.0204526
0.0094119
-0.00565599
-0.0187103
-0.00423062
-0.00237545
0.0154526
0.0133485
0.0122399
0.00309967
-0.00778267
-0.00918539
-0.00574647
0.0024436
0.010068
0.0120816
0.00362004
0.000113204
-0.0182352
-0.0011764
-0.0134389
-0.00979635
-0.000203609
0.000203609
-0.00463803
-0.0107467
-0.0291177
-0.0450679
-0.058077
-0.0716064
-0.0733485
-0.0718553
-0.0724661
-0.081629
-0.0904526
-0.104434
-0.108507
-0.0968326
-0.0943892
-0.0912218
-0.0876472
-0.0890498
-0.105701
-0.112873
-0.110656
-0.10405
-0.0979412
-0.0921494
-0.0865385
-0.0959503
-0.110385
-0.109842
-0.109412
-0.104095
-0.103869
-0.0936425
-0.0983258
-0.0980091
-0.0975114
-0.101968
-0.111448
-0.11095
-0.105453
-0.0949548
-0.0794118
-0.0787331
-0.0829638
-0.0971494
-0.111358
-0.10552
-0.0996833
-0.0889141
-0.078077
-0.0720815
-0.0759277
-0.0896381
-0.0932806
-0.0969458
-0.0957014
-0.0794344
-0.0731901
-0.0568327
-0.0554752
-0.0690498
-0.0625566
-0.0811087
-0.0596381
-0.0333258
-0.0220589
-0.0158145
0.00549766
0.0168099
0.02819
0.0245701
0.0307466
0.0367647
0.0426017
0.103303
0.128891
0.134412
0.124819
0.105023
0.0849773
0.0696606
0.0690723
0.0683483
0.0575112
0.0216289
0.0105882
-0.0256336
-0.0519458
-0.063439
-0.0700453
-0.0767421
-0.0685747
-0.080362
-0.0871946
-0.0940272
-0.110995
-0.123032
-0.115158
-0.112398
-0.0945702
-0.101652
-0.103575
-0.110362
-0.116968
-0.123507
-0.115
-0.121493
-0.137715
-0.208801
-0.299729
-0.370475
-0.266176
0.0532127
0.562579
1.13695
1.58636
1.71079
1.31534
0.615
-0.0202941
-0.325543
-0.385837
-0.361154
-0.351538
-0.516923
-0.682285
-0.83267
-0.902986
-0.893326
-0.833665
-0.719118
-0.584638
-0.450181
-0.345747
-0.261222
-0.211538
-0.191765
-0.177014
-0.172353
-0.147828
-0.128348
-0.113846
-0.109276
-0.10457
-0.099819
-0.110068
-0.105339
-0.0956335
-0.0859728
-0.0762896
-0.0715384
-0.0666742
-0.0716968
-0.0766968
-0.0718099
-0.0720136
-0.0672851
-0.0625113
-0.0526697
-0.0527828
-0.0577828
-0.0577149
-0.0576923
-0.0677375
-0.0529638
-0.0281674
-0.0283484
-0.0133711
-0.00834842
-0.00323531
0.00185521
-0.0031448
0.0118552
0.0167421
0.0467421
0.0669231
0.0721493
0.0724434
0.0878054
0.0832127
0.0787104
0.10414
0.119593
0.130045
0.14552
0.16138
0.167285
0.178281
0.194208
0.219909
0.25052
0.271086
0.276697
0.28733
0.287941
0.298439
0.323846
0.334072
0.344095
0.359095
0.364072
0.37905
0.379027
0.383891
0.393688
0.413416
0.422964
0.432466
0.446991
0.431493
0.416086
0.390634
0.370091
0.334502
0.31362
0.302647
0.286787
0.246018
0.205226
0.174208
0.142873
0.131244
0.105113
0.105498
0.0932806
0.0787557
0.0764028
0.0547285
0.0412896
0.0397059
0.0302715
0.0293892
0.0232353
0.0222398
0.0163122
0.0196607
0.0222398
0.00407241
0.00558826
-0.0028733
-0.00101809
0.00149325
0.00459278
0.0132353
-0.0026923
-0.0332353
-0.0484163
-0.0533484
-0.0477828
-0.0169457
-0.00660634
-0.00787333
-0.0265837
-0.0528733
-0.075905
-0.0831901
-0.0826018
-0.0834616
-0.0819683
-0.0847964
-0.0927602
-0.105815
-0.113484
-0.115995
-0.092534
-0.0838236
-0.0802489
-0.0819005
-0.0889593
-0.0865385
-0.0997285
-0.108394
-0.102443
-0.101742
-0.0661991
-0.0756788
-0.0800226
-0.0994118
-0.103846
-0.108371
-0.102851
-0.0973756
-0.0919005
-0.0863122
-0.0906561
-0.104819
-0.103959
-0.11319
-0.107443
-0.106742
-0.115973
-0.105226
-0.104367
-0.0984163
-0.0974209
-0.121448
-0.10543
-0.119457
-0.113507
-0.0824887
-0.0813575
-0.0850453
-0.0935747
-0.0971946
-0.10086
-0.109593
-0.0983485
-0.0919684
-0.0704978
-0.073982
-0.0724887
-0.0761313
-0.0648191
-0.0485068
-0.0371946
-0.0257693
0.000814453
0.00246604
0.00918549
0.0208597
0.0223529
0.0286651
0.049819
0.0558371
0.116765
0.132579
0.118371
0.0940271
0.0843665
0.0644343
0.0443891
0.0391629
0.033914
0.0184615
-0.00212674
-0.0228733
-0.0538009
-0.0797512
-0.0858598
-0.0921493
-0.0984616
-0.0848417
-0.0861991
-0.0975792
-0.10405
-0.110656
-0.107308
-0.0940045
-0.0958145
-0.0925792
-0.104299
-0.135815
-0.132172
-0.118439
-0.109615
-0.110814
-0.142127
-0.178394
-0.274548
-0.33052
-0.196267
0.178077
0.732511
1.30688
1.69618
1.5355
0.88991
0.109457
-0.40095
-0.541244
-0.501629
-0.477081
-0.557579
-0.59819
-0.818778
-0.869231
-0.839661
-0.785045
-0.690475
-0.565973
-0.431493
-0.332127
-0.247783
-0.193394
-0.168982
-0.149344
-0.154774
-0.145249
-0.120837
-0.0964706
-0.102127
-0.087715
-0.0932353
-0.103688
-0.114095
-0.12448
-0.109932
-0.085362
-0.0808823
-0.0563575
-0.0767873
-0.0771945
-0.0774661
-0.0827376
-0.0829412
-0.0631448
-0.0584842
-0.043733
-0.0290271
-0.0292534
-0.0293213
-0.0393439
-0.0543665
-0.0294118
-0.0095475
0.00529411
0.0200905
0.0149774
0.00493211
0.00506786
0.025181
0.0602262
0.0852036
0.0852036
0.0902715
0.0754299
0.0606787
0.0561086
0.0514932
0.0768325
0.102262
0.127624
0.137986
0.148484
0.134027
0.139864
0.135814
0.151652
0.182353
0.202896
0.198303
0.208552
0.203801
0.224005
0.254118
0.274072
0.293846
0.288416
0.292738
0.311968
0.311086
0.315204
0.309434
0.308778
0.328145
0.352489
0.366833
0.381335
0.391063
0.385928
0.370973
0.331041
0.30095
0.285905
0.27595
0.265996
0.261041
0.235996
0.205837
0.170294
0.149525
0.139321
0.120792
0.124751
0.12629
0.114615
0.102262
0.0819683
0.0731674
0.0470588
0.0603846
0.0640498
0.0582353
0.0723982
0.0612218
0.0479865
0.042534
0.0246607
0.0212218
0.0157919
0.01181
0.0163122
0.00936653
0.00457017
0.000520393
-0.0134389
-0.00726238
-0.000678688
0.00658377
0.0146154
0.0181222
0.011629
0.00502269
-0.00210404
-0.00488685
-0.0133258
-0.0123303
-0.0166516
-0.00610857
-0.0106561
-0.0200452
-0.0345475
-0.0541629
-0.0538461
-0.063552
-0.0633032
-0.058009
-0.0626923
-0.0672851
-0.07681
-0.0813575
-0.0909729
-0.0956788
-0.100543
-0.0852489
-0.0848869
-0.0843892
-0.0938009
-0.103258
-0.122851
-0.122489
-0.107059
-0.0964932
-0.0908371
-0.090181
-0.0995023
-0.108869
-0.123371
-0.112941
-0.0976471
-0.107285
-0.09181
-0.0862218
-0.0955431
-0.0998643
-0.104276
-0.113756
-0.103326
-0.0979186
-0.0723756
-0.0617648
-0.0461765
-0.0505883
-0.0450227
-0.0394344
-0.0238236
-0.00319009
0.0125113
0.0431448
0.058733
0.0794343
0.0750905
0.0657013
0.0412443
0.0265837
0.026923
0.0223755
-0.00714935
-0.0415837
-0.0709729
-0.105475
-0.120136
-0.115045
-0.120113
-0.125294
-0.115543
-0.115792
-0.126109
-0.136584
-0.147195
-0.152941
-0.143756
-0.139548
-0.135339
-0.131063
-0.136674
-0.147217
-0.142783
-0.148416
-0.148959
-0.16448
-0.199887
-0.290136
-0.365226
-0.330136
-0.0950001
0.345068
0.910158
1.0902
1.62532
1.4305
0.795769
0.111154
-0.27853
-0.388213
-0.382987
-0.392851
-0.487647
-0.627444
-0.772195
-0.851946
-0.856674
-0.816493
-0.70638
-0.571358
-0.436403
-0.321471
-0.236539
-0.181516
-0.156493
-0.166403
-0.161403
-0.136448
-0.121606
-0.121787
-0.111946
-0.102059
-0.102104
-0.107172
-0.10724
-0.102421
-0.0876018
-0.0777828
-0.0579865
-0.0681448
-0.0631222
-0.0780996
-0.083077
-0.0780996
-0.058258
-0.0485295
-0.0437331
-0.0388462
-0.0338462
-0.0338009
-0.0337104
-0.038733
-0.0238461
-0.0140724
0.0107692
0.0207467
0.0207014
0.0207014
0.0108371
0.0208597
0.0258371
0.0457466
0.0606109
0.0805204
0.0804525
0.0855656
0.0857466
0.0959729
0.0961539
0.111335
0.136516
0.151719
0.157059
0.167489
0.183054
0.17871
0.189412
0.205045
0.215634
0.261109
0.281493
0.281946
0.292466
0.287873
0.287986
0.307986
0.32776
0.342443
0.347104
0.356742
0.361358
0.35095
0.360498
0.369977
0.369276
0.363484
0.357557
0.341584
0.320566
0.304593
0.273665
0.23776
0.22181
0.210882
0.180023
0.149253
0.138507
0.107805
0.0667647
0.0404525
0.0193665
0.0243213
0.0212444
0.0257692
0.0211765
0.0190272
0.0110408
0.000158384
0.0111765
0.0053394
0.0190046
0.0226923
0.0114254
0.0147738
0.00744344
0.00945702
0.001086
0.00771497
0.00950229
0.0169004
0.0251357
0.0192081
0.0188009
-0.00685523
0.00133482
-0.0223982
-0.0181222
-0.0299774
-0.0316969
-0.0319004
-0.0497285
-0.0604072
-0.0699321
-0.0692308
-0.0733484
-0.0571719
-0.0604072
-0.0678959
-0.0648868
-0.0765384
-0.0983031
-0.0953393
-0.0929412
-0.0910181
-0.0695701
-0.0634163
-0.0775113
-0.0817873
-0.0962443
-0.100769
-0.110362
-0.095
-0.0847512
-0.0744344
-0.0790951
-0.0936652
-0.0981901
-0.0927376
-0.117308
-0.101991
-0.0966969
-0.0864027
-0.0859955
-0.0854978
-0.0849095
-0.0993665
-0.103846
-0.098371
-0.0928733
-0.0873303
-0.0818099
-0.0711765
-0.0803846
-0.0846153
-0.0838461
-0.0880769
-0.0773755
-0.0666742
-0.0659502
-0.065181
-0.0591629
-0.0731221
-0.092104
-0.0960859
-0.0652036
-0.0693439
-0.0533937
-0.0473755
-0.0363574
-0.0353167
-0.0342307
-0.0182353
-0.00735289
-0.00149316
0.0292987
0.0400679
0.0657919
0.086448
0.101968
0.097353
0.0926019
0.0826019
0.0823756
0.0820363
0.0616291
0.0411539
0.0204978
-0.0253393
-0.0413348
-0.0576244
-0.0741402
-0.0707918
-0.0674886
-0.0792307
-0.096018
-0.102873
-0.114796
-0.11181
-0.113959
-0.0960633
-0.09819
-0.100204
-0.122127
-0.13405
-0.125973
-0.127896
-0.124774
-0.131584
-0.128235
-0.154751
-0.206109
-0.25733
-0.258461
-0.119547
0.189276
0.638213
1.06719
1.32124
1.31541
0.994729
0.469163
0.00361998
-0.241923
-0.292534
-0.338122
-0.403665
-0.529118
-0.67957
-0.78009
-0.835588
-0.821109
-0.756719
-0.647375
-0.548032
-0.438575
-0.353982
-0.289412
-0.244932
-0.200452
-0.181131
-0.166855
-0.157579
-0.138167
-0.13862
-0.134027
-0.129412
-0.129909
-0.125475
-0.121086
-0.106787
-0.0923755
-0.0879185
-0.0933483
-0.0987556
-0.0991855
-0.0895701
-0.0800226
-0.0704525
-0.065905
-0.076267
-0.0566063
-0.0568778
-0.0770814
-0.0673529
-0.057647
-0.043009
-0.0333484
-0.0236199
-0.0137783
-0.0138914
-0.0239593
-0.00904976
-0.00425336
0.00538464
0.0299548
0.0347285
0.0344797
0.0393892
0.0543665
0.0543439
0.0543213
0.0792534
0.094276
0.109344
0.134457
0.139751
0.145113
0.155588
0.171176
0.181765
0.197308
0.222783
0.238258
0.248756
0.254344
0.239819
0.250181
0.28043
0.285385
0.310272
0.335068
0.344864
0.359661
0.364502
0.374276
0.378869
0.383394
0.387805
0.402308
0.401787
0.401358
0.390905
0.37543
0.364842
0.369027
0.363167
0.35724
0.33629
0.310317
0.284389
0.258394
0.237262
0.210928
0.199638
0.194072
0.179955
0.152964
0.153009
0.129321
0.105633
0.090543
0.0730769
0.0634842
0.0678281
0.0619683
0.0460407
0.0397511
0.0329186
0.0353846
0.027353
0.0140272
0.00579186
0.0128733
0.0104751
-0.0164706
-0.0279412
-0.0190724
-0.0149321
-0.0206335
-0.00108599
0.00364251
-0.00651586
-0.0217195
-0.0424208
-0.0442308
-0.0574208
-0.0518779
-0.0470136
-0.03681
-0.0451584
-0.0565385
-0.0613123
-0.0752942
-0.0791403
-0.0726471
-0.0809729
-0.0789367
-0.0865159
-0.0738235
-0.0860181
-0.0833937
-0.0909276
-0.0938236
-0.0872172
-0.085905
-0.0697964
-0.0788914
-0.083077
-0.0973756
-0.106742
-0.116199
-0.105837
-0.0954072
-0.0799774
-0.0695702
-0.0840272
-0.0834389
-0.102919
-0.112421
-0.1019
-0.101403
-0.0909729
-0.095362
-0.0946607
-0.0988462
-0.107964
-0.112127
-0.11129
-0.115543
-0.0997285
-0.0938914
-0.0830091
-0.0920362
-0.0959955
-0.114932
-0.108869
-0.102941
-0.0970588
-0.0761086
-0.0750679
-0.0689367
-0.0827602
-0.0765385
-0.0802489
-0.0740724
-0.0479186
-0.0366969
-0.0204978
-0.0342761
-0.0279865
-0.0266742
-0.0204978
-0.0144118
-0.00848423
0.0323529
0.0531674
0.0690045
0.079819
0.0805204
0.0760181
0.0663348
0.0464253
0.0413575
0.0311312
0.0108371
0.000520378
-0.0198416
-0.0404072
-0.0660181
-0.0719457
-0.0830769
-0.0843665
-0.0807692
-0.0922624
-0.0986651
-0.13009
-0.116652
-0.123281
-0.12
-0.111652
-0.103281
-0.109864
-0.116425
-0.122873
-0.124231
-0.120679
-0.112127
-0.108439
-0.099638
-0.110701
-0.131516
-0.142262
-0.122941
0.00633487
0.250566
0.559864
0.844163
0.993575
0.923122
0.607805
0.187534
-0.152783
-0.323145
-0.358552
-0.438982
-0.479321
-0.549729
-0.625068
-0.67543
-0.695792
-0.666222
-0.611697
-0.532217
-0.44276
-0.368235
-0.313688
-0.25405
-0.224457
-0.189864
-0.165407
-0.14595
-0.116516
-0.116991
-0.112353
-0.0976244
-0.102851
-0.108145
-0.0934389
-0.0838236
-0.0742308
-0.0695475
-0.0547964
-0.0699548
-0.0751358
-0.0853167
-0.075543
-0.0608145
-0.056086
-0.0263122
-0.0265158
-0.021629
-0.0166968
-0.0116742
-0.0116742
-0.00674208
-0.0019457
0.0128959
0.0327602
0.0476923
0.0327376
0.0378054
0.0528733
0.0528507
0.0528959
0.0828507
0.0978507
0.0880317
0.0982579
0.0985973
0.0988688
0.0941403
0.124344
0.134525
0.154796
0.165136
0.175656
0.16629
0.166946
0.17267
0.193281
0.208801
0.234299
0.249683
0.260023
0.265294
0.26543
0.26043
0.275249
0.279887
0.319367
0.333801
0.34819
0.352738
0.362353
0.346968
0.346629
0.361131
0.370792
0.38552
0.375385
0.365385
0.345475
0.335566
0.320656
0.300701
0.295724
0.285837
0.265973
0.246176
0.211493
0.176742
0.166855
0.141923
0.136968
0.127602
0.114389
0.107579
0.0971267
0.0823529
0.0722398
0.0606561
0.0619457
0.0662217
0.0590045
0.0556109
0.0359502
0.0354977
0.0147511
0.00377826
0.00925338
0.00585975
0.0134842
0.0118778
0.0111086
0.00115388
-0.00309952
-0.00676468
-0.00495473
-0.00800902
0.00900456
0.000927642
-0.00233027
-0.0107692
-0.0245022
-0.0284841
-0.0276018
-0.0269457
-0.0264253
-0.0259049
-0.0303846
-0.0398416
-0.0543212
-0.0637783
-0.0633484
-0.0629638
-0.0576696
-0.0574208
-0.062104
-0.071742
-0.0812443
-0.0857692
-0.0903167
-0.0999095
-0.104502
-0.0941403
-0.0837556
-0.088371
-0.0878959
-0.0973077
-0.101742
-0.106244
-0.100769
-0.0952715
-0.104774
-0.0892987
-0.0937104
-0.108077
-0.107511
-0.1169
-0.116403
-0.110928
-0.0954978
-0.0849548
-0.0994344
-0.108801
-0.108145
-0.112511
-0.102059
-0.106652
-0.081267
-0.0657918
-0.0703167
-0.0647285
-0.0591176
-0.053552
-0.0430091
-0.0225566
-0.00223982
0.0181222
0.0285068
0.0340724
0.0346832
0.000271454
-0.00920819
-0.0186878
-0.0333032
-0.0279864
-0.0476018
-0.0672398
-0.0917873
-0.111425
-0.121176
-0.126086
-0.131086
-0.126176
-0.121357
-0.136516
-0.131674
-0.141878
-0.157127
-0.152511
-0.143032
-0.143507
-0.118982
-0.119299
-0.12957
-0.129796
-0.144932
-0.145136
-0.140317
-0.13052
-0.0806787
0.0242987
0.184344
0.409457
0.609661
0.744797
0.739977
0.715136
0.345249
0.0754299
-0.119344
-0.233982
-0.338643
-0.428303
-0.508054
-0.582873
-0.627715
-0.627579
-0.607444
-0.562149
-0.501878
-0.431652
-0.366516
-0.306493
-0.261448
-0.216425
-0.191357
-0.176267
-0.166131
-0.161041
-0.151018
-0.141086
-0.131177
-0.126267
-0.116312
-0.0962896
-0.0961992
-0.101109
-0.101109
-0.0961086
-0.0861991
-0.0713123
-0.0664933
-0.056629
-0.0566968
-0.0516742
-0.0566742
-0.0616969
-0.0417873
-0.0419683
-0.0321041
-0.0222172
-0.0222625
-0.0173077
-0.0122851
-0.00723988
-0.00233036
-0.00244346
0.0223755
0.0272398
0.0321493
0.0371719
0.0523076
0.0473529
0.052285
0.0671719
0.0970361
0.106946
0.1169
0.116991
0.132149
0.132285
0.142421
0.162534
0.172647
0.192805
0.218054
0.223439
0.223982
0.22457
0.230113
0.250633
0.270928
0.281199
0.296448
0.311652
0.311923
0.327149
0.32224
0.332195
0.346991
0.361719
0.371448
0.376199
0.37595
0.365747
0.355475
0.345249
0.334796
0.329231
0.323665
0.303122
0.277602
0.237195
0.216719
0.191154
0.160498
0.159706
0.133914
0.1231
0.0973303
0.0668778
0.0569231
0.0376923
0.0195022
0.0222398
0.0205882
0.0140045
0.0224208
0.019276
0.0100678
-0.0100679
-0.00570138
-0.0068326
0.0016063
0.00970589
0.00748871
0.0101358
0.00282808
-0.0193891
-0.0264479
-0.0232579
-0.014819
-0.0060633
-0.0170588
-0.012828
-0.0233483
-0.0287782
-0.0391402
-0.0344796
-0.0297963
-0.0251357
-0.0304298
-0.0308823
-0.0417194
-0.0532126
-0.0704751
-0.078009
-0.0717194
-0.0855203
-0.0736425
-0.0756108
-0.0714027
-0.0863574
-0.0907692
-0.0997964
-0.0984615
-0.0918099
-0.0847737
-0.0674434
-0.0799321
-0.077466
-0.0851357
-0.0930769
-0.0913574
-0.0999774
-0.0837783
-0.0777828
-0.0718778
-0.0809502
-0.0850226
-0.0941855
-0.108394
-0.102602
-0.0868778
-0.0761764
-0.0754072
-0.0744796
-0.0885294
-0.0925565
-0.0916289
-0.0906787
-0.084819
-0.0738914
-0.0678733
-0.0668326
-0.0657013
-0.0744117
-0.0881221
-0.0869683
-0.0708371
-0.0647285
-0.0485068
-0.0522398
-0.0558823
-0.0594796
-0.0680543
-0.0766516
-0.0653167
-0.0590271
-0.0427149
-0.0363801
-0.04
-0.0486199
-0.0422398
-0.0459049
-0.0446606
-0.048552
-0.00755656
0.00334843
0.00923079
0.0150679
0.0107692
0.0112444
0.0264932
0.0366063
0.0564706
0.0711538
0.0708597
0.0803846
0.079819
0.059095
0.0532127
0.0521719
0.0459955
0.0396606
0.0383032
0.0168778
-0.00957014
-0.0360407
-0.0725792
-0.0641855
-0.0709955
-0.0677828
-0.0645701
-0.0713348
-0.0779864
-0.094638
-0.106244
-0.107873
-0.0996154
-0.0963801
-0.0830769
-0.089638
-0.0860181
-0.0923303
-0.103575
-0.0998416
-0.101063
-0.0972625
-0.098371
-0.0843439
-0.0851584
-0.0409276
0.0483936
0.202692
0.391991
0.451267
0.705588
0.725023
0.57948
0.334072
0.0887104
-0.0916064
-0.201946
-0.28733
-0.36276
-0.438145
-0.528439
-0.573756
-0.613982
-0.594231
-0.554525
-0.494842
-0.415249
-0.335634
-0.291063
-0.241335
-0.221561
-0.201742
-0.196991
-0.172308
-0.157624
-0.143054
-0.133439
-0.12371
-0.123846
-0.129005
-0.124118
-0.119344
-0.109615
-0.0998869
-0.0801132
-0.0852715
-0.0853394
-0.0802941
-0.0802489
-0.0902263
-0.0852263
-0.0553394
-0.0504978
-0.0405204
-0.0454299
-0.0352715
-0.0451132
-0.0400226
-0.0299774
-0.0250226
0.00490949
0.00988686
0.0149547
0.025181
0.0304751
0.0406787
0.0457918
0.0558823
0.0659502
0.0859728
0.100995
0.11129
0.111652
0.117036
0.127466
0.152783
0.163077
0.173484
0.203914
0.21448
0.210136
0.225814
0.236493
0.247127
0.25267
0.278145
0.28862
0.304095
0.309615
0.320136
0.315566
0.325792
0.33586
0.340701
0.365588
0.36543
0.365294
0.370204
0.355045
0.354842
0.349412
0.348869
0.353303
0.352828
0.342285
0.321878
0.291516
0.266131
0.255769
0.250407
0.235113
0.21991
0.204842
0.179819
0.149977
0.135181
0.115611
0.111448
0.102964
0.0953394
0.0829638
0.0718326
0.0608371
0.0491856
0.041448
0.0375113
0.0277828
0.0325114
0.0319005
0.0210181
0.00479642
0.0131448
0.00622173
-0.00590497
0.00199094
-0.00488687
0.00355205
-0.00262442
-0.00355202
-0.0247285
-0.0314253
-0.038914
-0.0373529
-0.0313122
-0.0452036
-0.0384163
-0.0454524
-0.0562443
-0.0761312
-0.0707918
-0.0798642
-0.0686651
-0.0620814
-0.0600905
-0.0677149
-0.0750905
-0.0824434
-0.0999321
-0.0975339
-0.0904524
-0.0936877
-0.0822172
-0.0708371
-0.0846153
-0.103529
-0.102647
-0.10681
-0.0961086
-0.0904977
-0.0798642
-0.0841855
-0.083371
-0.0976696
-0.116923
-0.126154
-0.110407
-0.0997285
-0.0890271
-0.0882352
-0.0774208
-0.0815158
-0.100543
-0.104593
-0.103665
-0.107715
-0.0867647
-0.0807013
-0.0896154
-0.0834388
-0.0921945
-0.0958823
-0.099638
-0.0884389
-0.0772172
-0.0759954
-0.0647737
-0.0633484
-0.0668552
-0.0803846
-0.0789366
-0.0775565
-0.0562896
-0.0449773
-0.0286425
-0.0272851
-0.0208145
-0.0193891
-0.023009
-0.0116742
-0.00547509
0.0306787
0.04681
0.0529638
0.0441629
0.0653168
0.0513122
0.0371946
0.0478281
0.0382806
0.0286652
0.0189819
-0.000769213
-0.0256335
-0.0355882
-0.0607013
-0.0710181
-0.0764479
-0.0769683
-0.0726018
-0.0733484
-0.0691629
-0.0900452
-0.101063
-0.102172
-0.108462
-0.0898416
-0.0962217
-0.087647
-0.0990045
-0.115317
-0.116719
-0.113167
-0.0995701
-0.0959954
-0.0824208
-0.0936877
-0.104842
-0.110837
-0.0867873
0.0122851
0.176335
0.37043
0.599615
0.718959
0.728462
0.593009
0.347692
0.082353
-0.107986
-0.158371
-0.293756
-0.34914
-0.429412
-0.509593
-0.584728
-0.619932
-0.630158
-0.600475
-0.570882
-0.501267
-0.441674
-0.372059
-0.322353
-0.282579
-0.242851
-0.203303
-0.183733
-0.164186
-0.139615
-0.134977
-0.140204
-0.140452
-0.110679
-0.115995
-0.111425
-0.101878
-0.0772398
-0.0774887
-0.0876018
-0.0827602
-0.0828506
-0.0829864
-0.0682127
-0.0634389
-0.0636199
-0.0538235
-0.053914
-0.0488687
-0.0589366
-0.0439592
-0.0490497
-0.0391628
-0.0142986
-0.0093212
0.000769287
0.00585981
-0.0140045
-0.018914
0.00115389
0.0111087
0.0360634
0.0560182
0.0561539
0.0613575
0.0616516
0.0619231
0.0721946
0.0824208
0.0976018
0.112805
0.1231
0.123597
0.119231
0.114796
0.125339
0.150905
0.156403
0.18181
0.197308
0.20276
0.213122
0.213394
0.223529
0.228484
0.238303
0.252919
0.262489
0.261968
0.281448
0.295928
0.300362
0.299796
0.31414
0.318462
0.342783
0.352195
0.34681
0.346493
0.33629
0.326086
0.335882
0.330701
0.330611
0.330566
0.320611
0.295792
0.265973
0.241109
0.226177
0.221312
0.2069
0.193281
0.170566
0.143914
0.122851
0.10681
0.0901584
0.0923304
0.0832353
0.0733032
0.0782127
0.0676471
0.0519683
0.0359502
0.0245249
0.0266742
0.0174434
0.0219005
0.0153846
0.00359733
0.00778286
-0.00642531
-0.0188687
-0.0250452
-0.0305203
-0.0104298
-0.0147963
-0.0135972
-0.00678729
-0.0144796
-0.0319909
-0.0295475
-0.0322624
-0.0250678
-0.0182126
-0.0216516
-0.0253167
-0.039095
-0.0581448
-0.0472851
-0.0516742
-0.0462217
-0.0458144
-0.0504072
-0.0599773
-0.0595475
-0.0641176
-0.088733
-0.0733484
-0.0780316
-0.0727375
-0.0724887
-0.0721719
-0.0866968
-0.101222
-0.100679
-0.100181
-0.0898416
-0.0895475
-0.0791855
-0.0787782
-0.0782579
-0.0976697
-0.102036
-0.106425
-0.100928
-0.0954977
-0.0850226
-0.0795249
-0.0739366
-0.0883032
-0.0977149
-0.112149
-0.0916742
-0.0962896
-0.0809502
-0.0804977
-0.0750679
-0.0845022
-0.0838688
-0.0732579
-0.0627149
-0.0521946
-0.0367421
-0.0162896
0.00416291
0.00470591
0.0202941
0.0207919
0.0263801
0.0369457
0.0424661
0.0428733
0.0382579
0.0386426
0.0141403
-0.0103393
-0.0299321
-0.0445928
-0.0543891
-0.0692308
-0.0739819
-0.0888461
-0.0836878
-0.0985294
-0.113484
-0.123575
-0.123914
-0.114389
-0.104887
-0.105407
-0.115905
-0.121357
-0.1269
-0.137534
-0.133213
-0.133937
-0.119683
-0.105294
-0.11086
-0.126335
-0.156652
-0.186946
-0.192262
-0.182602
0.0571041
0.3269
0.606742
0.851697
0.941765
0.796855
0.501968
0.182014
-0.0480317
-0.1631
-0.248122
-0.328032
-0.432964
-0.547828
-0.632692
-0.667647
-0.662692
-0.627738
-0.577828
-0.507873
-0.437851
-0.377828
-0.327828
-0.267919
-0.258167
-0.198371
-0.163575
-0.15371
-0.138778
-0.138824
-0.138937
-0.12905
-0.119208
-0.11448
-0.109683
-0.0897964
-0.0848643
-0.0899095
-0.0999548
-0.0950679
-0.100294
-0.085543
-0.0707467
-0.0658824
-0.0609955
-0.0609955
-0.0609502
-0.0559729
-0.066086
-0.056267
-0.031448
-0.016629
-0.0167421
-0.0117195
-0.0166742
-0.0116516
0.00828056
0.0131674
0.0279412
0.0428281
0.0626923
0.0626471
0.0726018
0.0676471
0.0676471
0.0776244
0.102557
0.107579
0.132692
0.137873
0.148145
0.143552
0.143959
0.164412
0.164796
0.185204
0.200633
0.226109
0.246629
0.252149
0.25267
0.258054
0.278281
0.293326
0.313281
0.313258
0.303167
0.3231
0.317941
0.317783
0.332511
0.337104
0.361561
0.365973
0.35543
0.354932
0.334412
0.308801
0.3031
0.292285
0.276335
0.265385
0.24948
0.218665
0.197986
0.167308
0.136561
0.120701
0.109729
0.0987783
0.0779639
0.0633484
0.0500679
0.0381448
0.017353
0.0119231
0.0208371
0.0284616
0.0396833
0.0398643
0.0245928
0.0189819
0.0179865
0.00149326
0.00441179
0.011991
0.00941178
0.00687782
0.00947961
0.00228506
-0.00957017
-0.0161086
-0.0173756
-0.0133937
0.000859693
4.5225e-05
-0.00579189
-0.0171267
-0.0344571
-0.0470815
-0.0462896
-0.0507692
-0.049638
-0.0523303
-0.0537104
-0.0790045
-0.0835747
-0.0876923
-0.0864932
-0.0849774
-0.0730543
-0.0658597
-0.0733484
-0.0757013
-0.0781448
-0.0908145
-0.0988461
-0.082285
-0.0810633
-0.0701357
-0.0743665
-0.068552
-0.0777828
-0.0970814
-0.0964253
-0.0859276
-0.0805203
-0.0800452
-0.0695701
-0.0740271
-0.073371
-0.0776697
-0.0769909
-0.0913348
-0.0907919
-0.0852715
-0.0647285
-0.0740498
-0.0833032
-0.0824434
-0.0816063
-0.0907466
-0.0899774
-0.084276
-0.0685068
-0.0677375
-0.0618326
-0.0658597
-0.0748416
-0.0787104
-0.0776923
-0.0717195
-0.0607692
-0.0397511
-0.0336878
-0.0475113
-0.0463574
-0.0553167
-0.0492533
-0.0432579
-0.0323077
-0.0163574
0.00457019
0.0156109
0.0166743
0.0176245
0.0235068
0.0342534
0.0498417
0.0703394
0.0907466
0.0960181
0.086267
0.0813575
0.0662896
0.0610407
0.0605656
0.0548643
0.0490724
0.0382127
0.0172851
-0.00877826
-0.0349547
-0.0562443
-0.0627149
-0.0543891
-0.0561312
-0.0678506
-0.0795927
-0.0812896
-0.0980543
-0.109932
-0.106878
-0.103914
-0.0909728
-0.103077
-0.105068
-0.111991
-0.108869
-0.105701
-0.112489
-0.114299
-0.116018
-0.122624
-0.124118
-0.10043
-0.0366289
0.107217
0.336109
0.414977
0.763846
0.822873
0.696968
0.446267
0.160634
-0.0748868
-0.21552
-0.311131
-0.38681
-0.467398
-0.552896
-0.618303
-0.673552
-0.688891
-0.664276
-0.609683
-0.530158
-0.440701
-0.361199
-0.306674
-0.262036
-0.247443
-0.222783
-0.208213
-0.19371
-0.164185
-0.139615
-0.134955
-0.130317
-0.130611
-0.14095
-0.131267
-0.126652
-0.112127
-0.0926245
-0.088077
-0.0834616
-0.0886878
-0.0989367
-0.0992308
-0.0895023
-0.084819
-0.0701358
-0.0554299
-0.0507014
-0.0508145
-0.0608824
-0.0609955
-0.0461312
-0.0513575
-0.0216516
-0.0119457
-0.00212671
0.00280541
0.00785068
0.00296377
0.00803167
0.0230316
0.0378959
0.0477602
0.0576697
0.0727149
0.0828733
0.0830995
0.0833936
0.0986425
0.113869
0.12414
0.134389
0.149774
0.160226
0.17586
0.171516
0.192127
0.197715
0.21819
0.238597
0.259005
0.264389
0.269774
0.275113
0.285362
0.295498
0.305498
0.330453
0.350317
0.355249
0.355181
0.365068
0.364955
0.379751
0.389457
0.399118
0.418824
0.408552
0.423303
0.408009
0.392647
0.382195
0.376629
0.360973
0.355317
0.329706
0.304095
0.283371
0.257489
0.231652
0.216063
0.196086
0.187172
0.178688
0.151833
0.140362
0.103439
0.0904073
0.0662896
0.0662217
0.0556335
0.064638
0.0433258
0.0216516
0.00970592
-0.0225792
-0.0151131
-0.0127375
-0.0152262
-0.017466
-0.0143212
-0.0107013
-0.0166515
-0.0323981
-0.0279411
-0.0384163
-0.0288461
-0.0342534
-0.0396606
-0.0399321
-0.055
-0.0497511
-0.0543665
-0.048552
-0.0533258
-0.0445701
-0.0281222
-0.0440271
-0.0613122
-0.0782579
-0.0975339
-0.103575
-0.102579
-0.105792
-0.0938914
-0.101968
-0.104706
-0.101765
-0.118303
-0.124615
-0.105995
-0.102692
-0.0897511
-0.0773077
-0.0752488
-0.0935068
-0.107149
-0.110905
-0.120068
-0.124389
-0.108733
-0.0880316
-0.0823303
-0.0865837
-0.105814
-0.115023
-0.109231
-0.113461
-0.102805
-0.0971493
-0.10138
-0.0855656
-0.0995927
-0.0934615
-0.112353
-0.11129
-0.110362
-0.109344
-0.0982579
-0.0870814
-0.0857918
-0.0845022
-0.0882126
-0.0869683
-0.0857692
-0.0845022
-0.0782579
-0.086923
-0.070543
-0.0740497
-0.0724887
-0.0709502
-0.0794796
-0.0581222
-0.0517873
-0.0504751
-0.054095
-0.0526018
-0.0411538
-0.0397285
-0.0234163
-0.00719458
0.0240045
0.0501584
0.0462443
0.0371946
0.0379864
0.0586199
0.0940498
0.109321
0.119434
0.129434
0.124389
0.109299
0.0991629
0.0737783
0.0482127
0.0422625
-0.00386876
-0.0302036
-0.0565385
-0.0628733
-0.0691177
-0.0705204
-0.0970815
-0.0888462
-0.0908371
-0.0878507
-0.0948416
-0.0968099
-0.103756
-0.120679
-0.137602
-0.129615
-0.131674
-0.133643
-0.120498
-0.112149
-0.0986878
-0.100181
-0.121606
-0.188009
-0.214276
-0.31052
-0.191629
0.142398
0.656561
1.19095
1.51534
1.44475
0.859163
0.138552
-0.322036
-0.497534
-0.513032
-0.513416
-0.573801
-0.709231
-0.819706
-0.870271
-0.86586
-0.79638
-0.7019
-0.59733
-0.482738
-0.403167
-0.308688
-0.279366
-0.185068
-0.155769
-0.146425
-0.142036
-0.127466
-0.127873
-0.123281
-0.113756
-0.104299
-0.099819
-0.0753394
-0.0607014
-0.0710181
-0.0713349
-0.0965611
-0.116833
-0.102127
-0.077534
-0.0528733
-0.0531448
-0.0633937
-0.0634842
-0.0685294
-0.0486426
-0.043801
-0.0289367
-0.0140724
-0.0191856
-0.00425342
-0.0142987
0.000656083
-0.00429867
-0.0143213
-0.00941178
0.0155203
0.0404072
0.0604298
0.0754977
0.0705882
0.0656334
0.0656561
0.0856787
0.0957692
0.100905
0.0961312
0.101493
0.102014
0.127466
0.137805
0.148122
0.173462
0.183959
0.194457
0.205023
0.195588
0.196109
0.196516
0.22181
0.246855
0.291742
0.316538
0.336063
0.335452
0.324661
0.313869
0.3281
0.342353
0.376561
0.39595
0.410453
0.410158
0.404977
0.399864
0.399774
0.404615
0.419367
0.414208
0.39914
0.364095
0.329163
0.299276
0.284434
0.26957
0.249615
0.224344
0.213959
0.18819
0.153009
0.134321
0.108009
0.104005
0.096448
0.0935747
0.0881674
0.0797511
0.0596606
0.0542081
0.0386652
0.0271946
0.0285973
0.0319684
0.0224661
0.00622176
-0.00497734
-0.0137783
-0.028914
-0.0261765
-0.02181
-0.0220136
-0.00178735
-0.00106337
-0.00918554
-0.0213575
-0.0129864
-0.0294796
-0.0259955
-0.0279412
-0.030362
-0.0233258
-0.0217647
-0.0256561
-0.0497738
-0.0540498
-0.0584842
-0.0630091
-0.0677149
-0.0575792
-0.0524208
-0.0671041
-0.0816968
-0.0863122
-0.111041
-0.110769
-0.0955883
-0.0853168
-0.0950226
-0.0946833
-0.0992534
-0.108869
-0.108394
-0.118054
-0.122692
-0.112398
-0.0971267
-0.101878
-0.101471
-0.111018
-0.115475
-0.119887
-0.114344
-0.108891
-0.0984616
-0.113009
-0.107489
-0.111968
-0.111471
-0.121063
-0.110724
-0.0954299
-0.0901132
-0.0747738
-0.0743213
-0.0588462
-0.0633711
-0.0528507
-0.0474887
-0.0371946
-0.0219684
0.00830314
0.0186651
0.0341629
0.0497285
0.0552715
0.070724
0.0660181
0.0561538
0.0513348
0.0365611
0.00690044
-0.0176697
-0.0572172
-0.0868326
-0.101538
-0.111335
-0.111176
-0.106018
-0.115837
-0.135656
-0.140588
-0.150701
-0.150973
-0.146403
-0.141855
-0.142285
-0.13767
-0.138009
-0.148281
-0.158597
-0.154027
-0.164434
-0.13991
-0.135294
-0.135634
-0.160905
-0.216086
-0.306199
-0.401312
-0.39638
-0.191448
0.218462
0.753461
1.2786
1.61382
1.60907
1.14932
0.434547
-0.0953394
-0.340204
-0.355068
-0.354842
-0.434502
-0.594163
-0.773846
-0.88362
-0.908416
-0.888371
-0.793371
-0.683371
-0.553326
-0.438235
-0.3331
-0.258054
-0.208167
-0.183371
-0.163575
-0.148733
-0.133869
-0.123937
-0.133914
-0.128982
-0.124208
-0.10948
-0.109819
-0.0950905
-0.0952715
-0.0953394
-0.0903846
-0.0954751
-0.0905656
-0.095724
-0.0758597
-0.066086
-0.0563348
-0.0614932
-0.0515158
-0.0615837
-0.0466063
-0.0466969
-0.04181
-0.0369457
-0.0220136
-0.0170362
-0.00199097
-0.00699094
-0.00196832
-0.00205882
0.0228733
0.0377149
0.0726244
0.0776471
0.0827149
0.0829186
0.0881222
0.0983258
0.0984615
0.123643
0.138824
0.154118
0.169457
0.174977
0.190566
0.201199
0.226855
0.247511
0.273213
0.298959
0.304661
0.310294
0.320973
0.321538
0.331878
0.346968
0.361991
0.3769
0.386787
0.391697
0.401652
0.396561
0.406357
0.411086
0.410724
0.415362
0.405
0.384638
0.354299
0.318891
0.293462
0.277896
0.267172
0.241493
0.225724
0.195045
0.169299
0.143484
0.112466
0.0860633
0.0642534
0.0471041
0.0301358
0.0241629
0.0101584
-0.00635746
-0.020362
-0.0227376
-0.0151131
-0.00445698
0.0129638
0.0130317
0.016991
-0.00404976
-0.0100679
-0.0114706
-0.0185747
-0.0165837
-0.01
0.0014932
0.00800903
-2.26647e-05
-0.0175113
-0.0244344
-0.0358371
-0.0218326
-0.0125113
0.00210407
-0.00291856
-0.0174435
-0.026448
-0.0304977
-0.0454751
-0.0424661
-0.0270136
-0.0288688
-0.0467647
-0.0686652
-0.0775339
-0.0933258
-0.107443
-0.0959955
-0.099638
-0.0930317
-0.0958371
-0.0827828
-0.0791403
-0.0852941
-0.0965158
-0.088439
-0.0960407
-0.0891629
-0.0877828
-0.0867647
-0.0959955
-0.100317
-0.104638
-0.109005
-0.108439
-0.0878959
-0.0924435
-0.0818778
-0.0862444
-0.0954073
-0.0995702
-0.113778
-0.113054
-0.097353
-0.0865837
-0.0858145
-0.0799095
-0.0940045
-0.0879865
-0.0969231
-0.100905
-0.0949095
-0.0838462
-0.0776923
-0.0714253
-0.0850905
-0.0836425
-0.0722172
-0.0958371
-0.0994344
-0.0731222
-0.0567874
-0.070362
-0.0588914
-0.062353
-0.0657014
-0.0691177
-0.0675566
-0.0611086
-0.0496606
-0.0382353
-0.0368099
-0.0303393
-0.0239366
-0.027647
-0.00662895
-0.000859708
0.0197285
0.0451584
0.0404978
0.0507014
0.0558145
0.075724
0.0904073
0.109887
0.139163
0.138213
0.117217
0.0811086
0.0648869
0.0385973
0.0221946
-0.00938912
-0.0361086
-0.0428959
-0.0697285
-0.0715837
-0.083371
-0.085181
-0.101991
-0.109095
-0.10629
-0.113552
-0.0957692
-0.117919
-0.125
-0.1119
-0.118778
-0.130588
-0.127421
-0.129186
-0.115882
-0.112421
-0.128801
-0.185
-0.276086
-0.377149
-0.35319
-0.13914
0.294955
0.864208
1.37871
1.62337
1.40299
0.747557
0.0671946
-0.30319
-0.423665
-0.409072
-0.459412
-0.594661
-0.76491
-0.885136
-0.920453
-0.910837
-0.74629
-0.606697
-0.477127
-0.367511
-0.282851
-0.223167
-0.188529
-0.183937
-0.159412
-0.149864
-0.140271
-0.120611
-0.12086
-0.121041
-0.131222
-0.126471
-0.111878
-0.0973529
-0.0877602
-0.0930543
-0.0932126
-0.098371
-0.0835068
-0.093733
-0.0889593
-0.0742308
-0.0544796
-0.0596606
-0.0547737
-0.0598642
-0.0499773
-0.0502036
-0.0403846
-0.0255203
-0.0207692
-0.00101808
0.00391404
-0.000995457
0.00402716
0.00411767
-0.010905
0.00900454
0.0238235
0.0436652
0.0535973
0.0636652
0.0638236
0.0589819
0.0641177
0.0691629
0.0991177
0.119208
0.134367
0.154661
0.165158
0.170588
0.176018
0.191448
0.216946
0.237557
0.253281
0.279163
0.270068
0.280973
0.291765
0.302353
0.312783
0.3331
0.343213
0.348213
0.358303
0.368281
0.368348
0.373416
0.378439
0.423348
0.438167
0.452941
0.437624
0.427376
0.422036
0.396674
0.40129
0.380747
0.370113
0.34948
0.323756
0.303054
0.27733
0.251493
0.220385
0.198846
0.1819
0.155113
0.129389
0.100747
0.0697737
0.0462217
0.0538688
0.0555883
0.0393891
0.0302489
0.0345023
0.0282353
0.00705881
-0.00936653
-0.0164027
-0.0141855
0.00246605
0.00395928
0.000542983
-0.00708144
-0.0140724
-0.0205204
-0.0314932
-0.0371946
-0.0375792
-0.0327602
-0.0228959
-0.0328959
-0.0427828
-0.0374434
-0.0616742
-0.0655656
-0.069638
-0.0648869
-0.0371719
-0.0418552
-0.0635973
-0.0811538
-0.107738
-0.111244
-0.111561
-0.10509
-0.0983032
-0.0966742
-0.104977
-0.11276
-0.114955
-0.111923
-0.09819
-0.0843891
-0.090724
-0.0874208
-0.0845928
-0.0872624
-0.100362
-0.118891
-0.117805
-0.121923
-0.101109
-0.0903846
-0.0745701
-0.0787104
-0.0927602
-0.111787
-0.120905
-0.120136
-0.109457
-0.0838009
-0.0680091
-0.0770588
-0.0859955
-0.0949322
-0.113824
-0.102715
-0.0916064
-0.0854978
-0.0793439
-0.0880996
-0.0917874
-0.095362
-0.0988462
-0.117398
-0.12595
-0.094457
-0.0829412
-0.0713575
-0.0547738
-0.05319
-0.0767195
-0.0752036
-0.0936878
-0.102217
-0.0907466
-0.079276
-0.0625792
-0.0458597
-0.0290724
-0.0223756
-0.0208597
-0.0193665
0.0019231
0.0332127
0.0443665
0.0504299
0.071448
0.082353
0.0931222
0.103665
0.108937
0.114072
0.104027
0.0939367
0.0737104
0.0482579
0.0275792
0.00660636
-0.0146154
-0.0308145
-0.0420362
-0.0734163
-0.0899095
-0.0963575
-0.102851
-0.099638
-0.101606
-0.10862
-0.105475
-0.107149
-0.118778
-0.130362
-0.131946
-0.123529
-0.120091
-0.0965385
-0.107873
-0.119095
-0.125136
-0.130995
-0.146855
-0.18767
-0.263439
-0.339231
-0.299977
-0.0505882
0.403869
0.948575
1.4183
1.60801
1.38767
0.707263
-0.0031448
-0.383529
-0.463891
-0.424163
-0.424412
-0.519729
-0.655068
-0.70052
-0.861018
-0.866425
-0.836765
-0.747127
-0.627489
-0.512828
-0.39819
-0.298665
-0.219253
-0.169819
-0.155362
-0.150769
-0.151109
-0.146312
-0.146561
-0.141878
-0.112285
-0.0877602
-0.0732353
-0.0635973
-0.0888009
-0.0938687
-0.0989593
-0.0840724
-0.0742307
-0.0645249
-0.0597285
-0.054819
-0.0498642
-0.0448416
-0.0398642
-0.0499095
-0.0450226
-0.0402036
-0.0304525
-0.0306561
-0.0257013
-0.0306108
-0.0104977
-0.000339344
0.0297964
0.0298417
0.0398869
0.0497964
0.0546833
0.0596607
0.0546833
0.0647964
0.0649322
0.0701584
0.100362
0.100566
0.120792
0.126086
0.136606
0.147172
0.13776
0.138394
0.14905
0.174751
0.21052
0.211358
0.232217
0.228032
0.233801
0.259299
0.279638
0.309819
0.334864
0.329819
0.329683
0.344525
0.359118
0.353529
0.357783
0.401855
0.425928
0.430045
0.399231
0.37862
0.373145
0.362602
0.357036
0.351493
0.341154
0.305973
0.275996
0.251063
0.216131
0.186177
0.176199
0.156154
0.150905
0.130317
0.114412
0.078733
0.0692534
0.0467873
0.0467647
0.0438009
0.0516516
0.0535294
0.0573982
0.0530543
0.051991
0.0356109
0.0295702
0.0338009
0.0279865
0.0467421
0.0546154
0.0400679
0.0280317
0.0135973
0.00389139
-0.0104525
-0.0165385
-0.00900455
-0.00404978
-0.00809955
-0.0168778
-0.0255204
-0.0285973
-0.0409955
-0.0328054
-0.0294117
-0.0260181
-0.0177828
-0.0148869
-0.0274208
-0.0354525
-0.0491176
-0.0532353
-0.0576018
-0.0570588
-0.0466063
-0.0560859
-0.0705656
-0.075
-0.0844344
-0.0838914
-0.0833936
-0.073009
-0.0626018
-0.0671719
-0.0867195
-0.0912443
-0.110747
-0.105317
-0.0998416
-0.0943891
-0.0987783
-0.0981448
-0.0874434
-0.0917194
-0.100995
-0.100294
-0.104683
-0.094095
-0.0985294
-0.0879864
-0.0873077
-0.0916516
-0.0859276
-0.105204
-0.104502
-0.103846
-0.0932579
-0.0877376
-0.0871946
-0.0915611
-0.100792
-0.100068
-0.099276
-0.0985973
-0.0579864
-0.0472851
-0.0316063
-0.0207919
-0.0198869
-0.0140271
-0.0182127
0.00757918
0.0333484
0.0640498
0.099638
0.10543
0.0962896
0.0771719
0.0378959
0.00837103
0.0137556
0.0089819
0.00416289
-0.0306787
-0.0605882
-0.0806335
-0.100905
-0.111335
-0.111968
-0.112805
-0.113688
-0.109638
-0.110543
-0.116425
-0.127285
-0.143213
-0.134095
-0.130045
-0.115882
-0.106674
-0.112285
-0.127738
-0.128054
-0.128348
-0.138575
-0.173801
-0.234005
-0.319072
-0.359005
-0.208824
0.166516
0.711878
1.27219
1.42244
1.46271
0.858009
0.173258
-0.26138
-0.40095
-0.41052
-0.425113
-0.54491
-0.694774
-0.819683
-0.86457
-0.859457
-0.794276
-0.694072
-0.583891
-0.463801
-0.348801
-0.253891
-0.203982
-0.16905
-0.139072
-0.143982
-0.138982
-0.144027
-0.139118
-0.129276
-0.114412
-0.0995249
-0.0995701
-0.0994797
-0.0943891
-0.0994118
-0.0995023
-0.0896832
-0.0798416
-0.0649321
-0.0699774
-0.0749321
-0.0799321
-0.0748868
-0.0698416
-0.0599095
-0.0449774
-0.0300679
-0.0250453
-0.0149547
-0.0147964
-0.00966066
-0.00454755
0.000565588
0.0155203
0.035543
0.0405656
0.0556561
0.0607692
0.065905
0.0710181
0.0810633
0.086086
0.106131
0.126154
0.13138
0.156652
0.157036
0.162466
0.167919
0.178348
0.19871
0.219253
0.229909
0.260747
0.261765
0.27276
0.27371
0.279548
0.315158
0.330633
0.356131
0.361629
0.362127
0.367489
0.362715
0.382828
0.392783
0.402692
0.417557
0.417421
0.41224
0.397036
0.371787
0.351471
0.331041
0.310498
0.299932
0.269344
0.248801
0.20819
0.167511
0.136674
0.125814
0.109932
0.0941177
0.0832353
0.0571267
0.0207466
0.0143213
-0.0114479
-0.0254525
-0.016923
-0.000746578
0.00117651
-0.00167419
0.0127828
-0.000837073
-0.0114027
-0.0176018
-0.0238235
0.00979641
0.0179412
0.0104525
0.00744347
0.00425342
-0.0139366
-0.0168778
-0.0143891
-0.0114706
-0.00303167
0.000950232
-0.00459276
-0.0147964
-0.024638
-0.0390045
-0.0279864
-0.0319457
-0.0266515
-0.0229864
-0.031561
-0.042466
-0.0548868
-0.082647
-0.0932579
-0.0907465
-0.0808597
-0.0798416
-0.0785972
-0.0873755
-0.0908371
-0.113688
-0.100747
-0.0972624
-0.0984615
-0.0795927
-0.0759502
-0.0727149
-0.0848868
-0.102602
-0.105814
-0.0994796
-0.0984615
-0.0925792
-0.0767647
-0.0909276
-0.0900226
-0.0941402
-0.0932126
-0.0973077
-0.0964253
-0.0906108
-0.0847737
-0.0888914
-0.0829638
-0.0869004
-0.0858371
-0.0947059
-0.0936199
-0.097466
-0.0863574
-0.0752715
-0.0890724
-0.0877375
-0.0963801
-0.0999095
-0.0884841
-0.0870588
-0.0807239
-0.0694344
-0.0678959
-0.0663122
-0.0696153
-0.0729185
-0.0763122
-0.0747285
-0.0682579
-0.0517194
-0.0500905
-0.0384615
-0.0367873
-0.0250678
-0.0134388
-0.00194563
0.00929871
0.0254073
0.0363802
0.0523078
0.0631675
0.0688688
0.0944345
0.104706
0.124683
0.129457
0.134163
0.108733
0.0882127
0.0776471
0.0519458
0.0209503
0.0248417
0.00848426
-0.00798632
-0.0344569
-0.0508823
-0.0624207
-0.074027
-0.0807013
-0.0875339
-0.0894796
-0.0964705
-0.0785067
-0.0953619
-0.107195
-0.119072
-0.126018
-0.123009
-0.115158
-0.112308
-0.0994343
-0.0964253
-0.10328
-0.115045
-0.141787
-0.188484
-0.265204
-0.356946
-0.358507
-0.199909
0.163937
0.667987
1.19713
1.54631
1.62052
1.14473
0.458982
-0.0716742
-0.322217
-0.362715
-0.348122
-0.403529
-0.543914
-0.724412
-0.849819
-0.915226
-0.925588
-0.865882
-0.761109
-0.65629
-0.531584
-0.412014
-0.312466
-0.237873
-0.203326
-0.183733
-0.174005
-0.169344
-0.159661
-0.155045
-0.145475
-0.135905
-0.116357
-0.111765
-0.117081
-0.107353
-0.117579
-0.112783
-0.103009
-0.0933258
-0.103733
-0.089095
-0.0743213
-0.079457
-0.0896154
-0.084819
-0.0801131
-0.0704751
-0.0607014
-0.040905
-0.0260181
-0.0460407
-0.041086
-0.0411086
-0.0361539
-0.0162218
-0.00635749
0.0134841
0.0183031
0.00830312
0.0183031
0.0233936
0.0134615
0.0285294
0.0436651
0.0738687
0.0842081
0.0947058
0.0852036
0.0907466
0.0962896
0.10681
0.132511
0.158281
0.174163
0.18
0.195882
0.201674
0.202398
0.207986
0.238416
0.258733
0.289118
0.299457
0.304729
0.304932
0.324977
0.329977
0.354909
0.374774
0.389615
0.394457
0.399231
0.39405
0.398778
0.403394
0.417896
0.427353
0.446765
0.446063
0.445362
0.419661
0.398937
0.383145
0.372353
0.351448
0.34543
0.33414
0.302579
0.261086
0.210475
0.171584
0.150091
0.141041
0.13862
0.126539
0.117376
0.105136
0.0905883
0.0799096
0.0590046
0.0481222
0.0369684
0.0352037
0.0226471
0.0195023
0.0010408
-0.00242077
-0.0206334
-0.0333257
-0.0255882
-0.0173303
-0.0185294
-0.0242081
-0.0143439
-0.0190045
-0.03319
-0.0322172
-0.0370136
-0.0284389
-0.0223077
-0.0335294
-0.0363122
-0.0487104
-0.0706561
-0.0871267
-0.0910634
-0.0992534
-0.0924887
-0.0808145
-0.0587783
-0.0711765
-0.087828
-0.0941176
-0.100294
-0.0867194
-0.0735294
-0.0608145
-0.0786199
-0.0818326
-0.0953846
-0.104231
-0.0983936
-0.10276
-0.102217
-0.101652
-0.0910407
-0.0854072
-0.0747059
-0.0990045
-0.0984163
-0.107805
-0.102217
-0.0917647
-0.096267
-0.100724
-0.12
-0.139208
-0.128371
-0.122579
-0.111833
-0.101086
-0.115317
-0.119367
-0.123281
-0.107217
-0.11129
-0.115339
-0.119389
-0.0983937
-0.0873756
-0.0912217
-0.100045
-0.103733
-0.102421
-0.111109
-0.0898416
-0.088552
-0.0823077
-0.0709955
-0.0696154
-0.0681901
-0.0567421
-0.0453168
-0.0390045
-0.0227602
-0.00649324
-0.000203654
0.0160633
0.0523982
0.0586425
0.0749321
0.0859955
0.0968552
0.0875792
0.0882127
0.0686878
0.0541176
0.0244118
0.00952491
-0.0256335
-0.0410859
-0.0668099
-0.0777149
-0.088733
-0.089819
-0.106063
-0.112421
-0.133824
-0.135385
-0.127059
-0.118756
-0.115385
-0.121946
-0.128394
-0.124819
-0.121131
-0.132443
-0.128688
-0.139932
-0.131086
-0.122036
-0.122805
-0.138394
-0.183937
-0.254389
-0.339842
-0.365272
-0.190611
0.179095
0.723914
1.25385
1.6088
1.54378
1.44867
0.233462
-0.316765
-0.492036
-0.477285
-0.447466
-0.517624
-0.652692
-0.802851
-0.868122
-0.898484
-0.853914
-0.764208
-0.654412
-0.529502
-0.429706
-0.334977
-0.255339
-0.205769
-0.156131
-0.136448
-0.136719
-0.126946
-0.122127
-0.117285
-0.112421
-0.097647
-0.0928733
-0.0830769
-0.06319
-0.0582352
-0.0532126
-0.0632126
-0.068371
-0.0686199
-0.0688461
-0.0540271
-0.0491175
-0.0440949
-0.0591176
-0.0641628
-0.0442307
-0.00925334
0.000656143
0.00556564
-0.00452487
-0.00447965
-0.00427601
0.0108597
0.0109276
0.0209502
0.0259276
0.0358371
0.0508598
0.0660181
0.0761765
0.0813801
0.0865837
0.0867873
0.0969683
0.117149
0.137353
0.137624
0.148054
0.163484
0.169005
0.189548
0.180068
0.20552
0.230996
0.246516
0.256946
0.272353
0.277624
0.297738
0.307511
0.327104
0.341493
0.360837
0.375136
0.384548
0.389005
0.403507
0.412986
0.407557
0.427149
0.441878
0.426787
0.40181
0.3769
0.351968
0.336968
0.311991
0.297014
0.282014
0.267059
0.237081
0.202172
0.172376
0.132557
0.117624
0.107466
0.101991
0.0811086
0.0601131
0.0449774
0.0316968
0.0211539
0.0183937
0.0273755
0.0504299
0.0614932
0.0497512
0.0481222
0.0240498
0.00470589
0.00278279
-0.00135748
0.00128958
0.00432129
0.0122398
0.015181
-0.00624436
-0.0166063
-0.0307466
-0.0240271
-0.0118778
-0.00466068
0.00239815
-0.00595026
-0.0195928
-0.0286878
-0.0380996
-0.0376923
-0.0373982
-0.0321719
-0.0369457
-0.0366742
-0.0513574
-0.0659728
-0.0705656
-0.090181
-0.0898869
-0.0747285
-0.0745475
-0.0693665
-0.0741855
-0.083914
-0.0986425
-0.103348
-0.103122
-0.103009
-0.097828
-0.087466
-0.0920814
-0.0966515
-0.106244
-0.13086
-0.120498
-0.115204
-0.109955
-0.0996832
-0.0944117
-0.0990723
-0.128688
-0.12328
-0.122896
-0.122624
-0.122398
-0.107149
-0.0969456
-0.0966063
-0.096199
-0.115837
-0.110475
-0.11509
-0.0847963
-0.0744117
-0.0441402
-0.0387556
-0.0383031
-0.0277601
-0.022285
-0.0118099
0.00859733
0.0540046
0.0793439
0.0897964
0.0852489
0.0707693
0.0363349
0.01681
0.00726251
-0.00233029
-0.026923
-0.0515384
-0.0810633
-0.11052
-0.125136
-0.134887
-0.134842
-0.125023
-0.125294
-0.120656
-0.126063
-0.131493
-0.136991
-0.142602
-0.158326
-0.154095
-0.144977
-0.140837
-0.141584
-0.137262
-0.137919
-0.15362
-0.194231
-0.254819
-0.340362
-0.370747
-0.231063
0.113824
0.623846
1.15389
1.51903
1.59414
1.08919
0.404344
-0.125498
-0.360204
-0.399864
-0.434434
-0.528982
-0.673688
-0.833462
-0.898348
-0.89319
-0.813009
-0.69776
-0.557466
-0.442194
-0.322081
-0.252059
-0.202149
-0.17224
-0.152353
-0.14733
-0.142262
-0.147194
-0.152194
-0.137308
-0.127466
-0.102692
-0.0828506
-0.0929185
-0.0929411
-0.0929185
-0.0978507
-0.0928959
-0.093009
-0.0932126
-0.073371
-0.0685068
-0.0735747
-0.0685294
-0.0734615
-0.0784389
-0.0735295
-0.0687331
-0.0388914
-0.0290498
-0.0241177
-0.0190951
-0.0240272
-0.0190045
-0.00916293
0.0057013
0.0355429
0.0503619
0.0452714
0.0652714
0.0553619
0.0604071
0.0704298
0.0803166
0.0902261
0.115068
0.115068
0.130181
0.130452
0.140792
0.136108
0.161425
0.176697
0.197059
0.217602
0.243258
0.23905
0.254887
0.260724
0.26638
0.296833
0.307127
0.332375
0.342511
0.342534
0.342466
0.342194
0.361697
0.366018
0.385204
0.409321
0.413394
0.407376
0.401448
0.390498
0.389593
0.383688
0.372805
0.3519
0.336131
0.31552
0.280113
0.259887
0.234774
0.224683
0.189525
0.169118
0.143484
0.0974887
0.0814027
0.0509955
0.0271493
0.0156108
0.00642529
0.00386874
0.0166515
0.0021719
0.00461532
-0.0203168
-0.0263122
-0.0374888
-0.0388688
-0.0256788
-0.0230317
-0.0158145
-0.0234842
-0.0207918
-0.0329638
-0.0407918
-0.0500904
-0.0364253
-0.0343665
-0.0278959
-0.0351131
-0.0342986
-0.0604072
-0.0748416
-0.0738461
-0.0729185
-0.0619683
-0.0554751
-0.0581448
-0.0699321
-0.0712443
-0.0775339
-0.0789593
-0.0907919
-0.0730996
-0.0709276
-0.0542308
-0.0630317
-0.0670588
-0.0763348
-0.0907692
-0.100271
-0.0949321
-0.079638
-0.0793891
-0.079095
-0.0737104
-0.0883031
-0.0978733
-0.102443
-0.0970814
-0.0867873
-0.086448
-0.0809955
-0.0753846
-0.0947511
-0.0991177
-0.108462
-0.0979412
-0.0923982
-0.0818099
-0.081199
-0.0705429
-0.0747058
-0.0889592
-0.0931448
-0.102376
-0.0966516
-0.0859502
-0.0701583
-0.0792986
-0.098371
-0.0773529
-0.0812669
-0.0802714
-0.0843212
-0.0584162
-0.0475339
-0.0315158
-0.0304072
-0.0142081
-0.0129638
-0.0168325
-0.000814453
0.0201358
0.046086
0.0670362
0.0830996
0.104231
0.125339
0.111425
0.112308
0.0980317
0.0937105
0.084276
0.0747059
0.05
0.0252036
-0.0147285
-0.0548868
-0.0752715
-0.0808145
-0.0814253
-0.0671946
-0.0780543
-0.0840497
-0.0952262
-0.106674
-0.108348
-0.110249
-0.102217
-0.0992308
-0.101199
-0.108145
-0.115113
-0.122104
-0.124118
-0.126086
-0.118009
-0.119842
-0.146471
-0.212919
-0.304208
-0.380453
-0.331584
-0.0726697
0.391267
0.955294
1.42955
1.629
1.38857
0.748167
0.0878506
-0.277602
-0.368054
-0.358394
-0.368756
-0.474005
-0.649118
-0.819186
-0.904321
-0.919548
-0.889887
-0.800272
-0.700656
-0.58095
-0.476199
-0.366244
-0.29638
-0.236606
-0.206923
-0.187308
-0.157738
-0.153054
-0.138281
-0.143484
-0.13371
-0.128891
-0.129208
-0.12457
-0.114955
-0.0952489
-0.0954526
-0.105634
-0.110747
-0.100815
-0.105973
-0.0911539
-0.0713349
-0.0714254
-0.071629
-0.0666516
-0.0666969
-0.0816516
-0.0616969
-0.0618778
-0.0521267
-0.0324208
-0.0326471
-0.0277149
-0.0276244
-0.0225566
-0.0226018
-0.0125792
0.00239819
0.0273303
0.0422172
0.0522398
0.0523529
0.0425566
0.0477828
0.0480543
0.0733258
0.0985747
0.113891
0.134299
0.139887
0.135566
0.146312
0.157104
0.157941
0.198688
0.224366
0.234977
0.255611
0.276335
0.286991
0.292489
0.302805
0.317918
0.34776
0.357466
0.362081
0.361765
0.361516
0.366176
0.360656
0.405
0.424118
0.448032
0.446968
0.440973
0.420068
0.419321
0.403643
0.407964
0.38724
0.371629
0.351063
0.330656
0.300407
0.265068
0.23957
0.223665
0.202398
0.181425
0.171697
0.149072
0.124027
0.096086
0.0940498
0.0959955
0.0850905
0.0911991
0.0755656
0.0495475
0.0535068
0.0374435
0.0109503
-0.00633481
-0.00941175
0.00210407
0.0135972
0.0153619
-0.00217201
-0.00886881
-0.0199322
-0.0514027
-0.0442534
-0.0343892
-0.0316064
-0.039819
-0.0467874
-0.0705204
-0.0759503
-0.0794344
-0.0726923
-0.0762218
-0.0597512
-0.057896
-0.055362
-0.067172
-0.0736426
-0.0751584
-0.0819684
-0.0842308
-0.0820136
-0.0803621
-0.089163
-0.0982806
-0.0676471
-0.0970815
-0.0916516
-0.10129
-0.0860634
-0.0707466
-0.0604751
-0.0602489
-0.07
-0.0947738
-0.114525
-0.119231
-0.113937
-0.108688
-0.103394
-0.0929864
-0.0875113
-0.0920588
-0.101606
-0.106176
-0.110792
-0.105385
-0.104955
-0.104434
-0.103824
-0.103167
-0.117443
-0.116787
-0.116177
-0.105611
-0.0950226
-0.0894797
-0.0737104
-0.0728507
-0.0819457
-0.11095
-0.105
-0.0941177
-0.0783258
-0.0725114
-0.0516064
-0.0405656
-0.0244118
-0.0382579
-0.0371493
-0.0261312
0.00975114
0.0305882
0.0715384
0.117624
0.113824
0.11
0.0959955
0.0617421
0.0424208
0.0379864
0.043552
0.0190271
0.00934388
-0.0154525
-0.0503394
-0.0554751
-0.0858824
-0.086448
-0.0821267
-0.0978959
-0.11371
-0.114615
-0.120747
-0.112059
-0.113462
-0.129864
-0.141312
-0.142805
-0.124118
-0.130362
-0.116652
-0.122783
-0.133982
-0.135317
-0.131584
-0.12767
-0.138507
-0.169027
-0.23448
-0.319977
-0.34052
-0.146086
0.268371
0.843032
1.36285
1.61274
1.35756
0.672421
-0.052828
-0.468145
-0.523529
-0.453869
-0.449185
-0.534367
-0.679525
-0.814661
-0.869819
-0.860091
-0.805407
-0.710814
-0.586267
-0.466697
-0.351991
-0.26233
-0.207692
-0.192964
-0.158416
-0.143824
-0.129276
-0.129638
-0.119842
-0.0999095
-0.0850453
-0.0802036
-0.0805203
-0.090905
-0.0862895
-0.0766289
-0.0769004
-0.0870361
-0.077104
-0.0571266
-0.0472171
-0.0424434
-0.0426696
-0.0428732
-0.0480316
-0.0430995
-0.0381674
-0.0332805
-0.0284389
-0.00871043
-0.00400455
0.0157466
0.0206334
0.0305882
0.0206561
0.0257239
0.0257692
0.0257239
0.0555656
0.0804072
0.105339
0.110362
0.105452
0.105611
0.090724
0.0958371
0.105769
0.125656
0.160588
0.165679
0.185837
0.176109
0.176448
0.181629
0.216742
0.251787
0.26672
0.276629
0.281584
0.281697
0.301742
0.30681
0.306855
0.331833
0.356901
0.366946
0.377059
0.377217
0.36733
0.377353
0.402353
0.412353
0.397353
0.387353
0.39233
0.387308
0.352308
0.322353
0.307398
0.277511
0.277557
0.282534
0.252511
0.212534
0.17276
0.11819
0.108891
0.104593
0.109593
0.103122
0.0652715
0.0266968
0.00377829
-0.0022172
0.0151584
0.00961538
0.0183937
0.0299321
0.0396832
0.0342081
0.0243891
0.0102715
0.00642535
0.00223985
-0.00751133
0.00730765
0.0117647
0.0210181
0.0251131
0.0193439
-0.0113575
-0.0119004
-0.0171946
-0.00733034
0.00255653
-0.00242084
-0.00228509
-0.00714935
-0.0270362
-0.0469005
-0.0317421
-0.036629
-0.0265385
-0.0314706
-0.0364027
-0.0413122
-0.0511312
-0.0759729
-0.0809276
-0.0858824
-0.0757466
-0.0555882
-0.0604525
-0.0702941
-0.0751357
-0.095
-0.0948642
-0.0847964
-0.0747737
-0.0647285
-0.0596606
-0.0695475
-0.0893665
-0.0941629
-0.114005
-0.0989366
-0.0938914
-0.0839366
-0.0890045
-0.0839593
-0.0938235
-0.0985972
-0.108416
-0.103326
-0.0833484
-0.0684163
-0.0435294
-0.0336878
-0.033733
-0.0336425
-0.0285746
-0.0135067
0.0164028
0.0462218
0.0559955
0.0558598
0.0459276
0.0309955
0.0160408
-0.0139592
-0.0240045
-0.039095
-0.0591855
-0.0793212
-0.104344
-0.129253
-0.144163
-0.14905
-0.154004
-0.14905
-0.14405
-0.148869
-0.138575
-0.138213
-0.147805
-0.15724
-0.161629
-0.151109
-0.155633
-0.155113
-0.144593
-0.138959
-0.138167
-0.142443
-0.181742
-0.236176
-0.325837
-0.390452
-0.320023
-0.0145022
0.486086
1.06158
1.49195
1.58722
1.09244
0.377738
-0.157036
-0.386787
-0.406448
-0.410995
-0.485566
-0.635249
-0.780045
-0.849909
-0.859796
-0.819751
-0.729638
-0.629457
-0.499231
-0.404027
-0.298823
-0.218823
-0.183846
-0.163869
-0.153801
-0.148642
-0.158529
-0.143371
-0.13828
-0.133258
-0.11828
-0.0932352
-0.0831447
-0.0779185
-0.0876244
-0.0874434
-0.0972851
-0.0921945
-0.0772624
-0.0673303
-0.0673981
-0.0623303
-0.0521493
-0.0569909
-0.0568326
-0.0566968
-0.0517194
-0.0317646
-0.016742
-0.0166289
-0.00135748
-0.00608598
-0.000904977
-0.000791878
0.0192534
0.0291629
0.0392307
0.0593213
0.0644796
0.0696154
0.0748416
0.08
0.0951357
0.110204
0.135249
0.130385
0.145611
0.166018
0.161471
0.166878
0.177285
0.197647
0.223077
0.24362
0.259367
0.275136
0.265882
0.281584
0.297104
0.312511
0.32267
0.352805
0.357851
0.367783
0.367579
0.367149
0.376471
0.380634
0.394661
0.403688
0.402805
0.387036
0.37138
0.340769
0.320272
0.289729
0.274208
0.258778
0.238529
0.213326
0.183258
0.158258
0.128281
0.113258
0.0782353
0.0680543
0.0626471
0.0417873
0.0256561
0.00988691
-0.00950222
-0.0216063
-0.0211538
-0.0137783
-0.000950187
0.00463805
0.0120362
0.0120362
0.000972882
-0.0151357
-0.0161764
-0.0024208
0.00599551
0.0141404
0.011991
0.0140046
0.00943442
-0.00710404
-0.015543
-0.0148643
-0.0283484
-0.0189593
-0.0160633
-0.0208597
-0.029819
-0.038733
-0.032647
-0.0412217
-0.029095
-0.0312217
-0.0378506
-0.0342308
-0.0456334
-0.0620588
-0.0792307
-0.0570135
-0.0553167
-0.0491176
-0.0382579
-0.0425565
-0.0469683
-0.0663801
-0.0708597
-0.0703846
-0.0799774
-0.0796606
-0.0643665
-0.0590498
-0.0636425
-0.0731222
-0.0976697
-0.0921946
-0.0817873
-0.0863801
-0.0760181
-0.065543
-0.0850452
-0.084457
-0.0888009
-0.0881448
-0.102511
-0.0969004
-0.0963122
-0.0906561
-0.0799321
-0.0790724
-0.08319
-0.097285
-0.0964027
-0.0855882
-0.0847737
-0.0689366
-0.0680543
-0.0620362
-0.0759502
-0.0698416
-0.063733
-0.0627149
-0.036742
-0.0256561
0.000452548
-0.00341623
0.00282809
0.00909507
0.0202942
0.0464254
0.0774887
0.0985295
0.124525
0.120566
0.106606
0.0876244
0.058552
0.059276
0.034819
0.0351584
0.0203394
-0.00461538
-0.0347059
-0.05
-0.0804299
-0.0861086
-0.0869683
-0.0780543
-0.0842987
-0.0907014
-0.0971946
-0.0887104
-0.0953394
-0.107104
-0.108982
-0.115973
-0.108032
-0.105136
-0.11224
-0.114253
-0.126154
-0.132919
-0.129638
-0.141312
-0.162941
-0.194502
-0.270882
-0.357081
-0.3631
-0.189027
0.200181
0.724457
1.24376
1.56821
1.47781
0.947443
0.252262
-0.222851
-0.387896
-0.387964
-0.3831
-0.468145
-0.608213
-0.76819
-0.873077
-0.913077
-0.883054
-0.868122
-0.698281
-0.573529
-0.458756
-0.358869
-0.278959
-0.229005
-0.194027
-0.194095
-0.174299
-0.154548
-0.144774
-0.125068
-0.120294
-0.120339
-0.120317
-0.130294
-0.115317
-0.105498
-0.0956336
-0.0907467
-0.0808372
-0.0858825
-0.0808598
-0.0909277
-0.0859956
-0.0810861
-0.0712218
-0.0614028
-0.0514933
-0.0515385
-0.0514933
-0.0564707
-0.0664481
-0.0564481
-0.0315159
-0.0215385
-0.0164933
-0.0114254
-0.00126703
-0.00610867
-0.0010182
0.00898181
0.0239592
0.0339818
0.0590497
0.0492533
0.0595927
0.0650904
0.0705656
0.0709502
0.0963574
0.111697
0.127172
0.142828
0.158575
0.16448
0.175317
0.181109
0.186787
0.217308
0.227805
0.253213
0.258597
0.273937
0.289185
0.314253
0.31914
0.343801
0.358371
0.377918
0.397534
0.397149
0.406674
0.406063
0.410362
0.424525
0.433575
0.437647
0.436787
0.441086
0.440475
0.424932
0.399389
0.373869
0.363416
0.343032
0.31776
0.302534
0.277262
0.246674
0.215656
0.194615
0.169344
0.155747
0.144502
0.115701
0.103462
0.0958371
0.0758145
0.0675792
0.0471946
0.0410181
0.0449322
0.028914
0.022466
0.0103846
-0.0174661
-0.00574656
-0.0140723
-0.011923
-0.0143664
-0.0161764
-0.00330304
-0.0318551
-0.0356334
-0.0430316
-0.0614026
-0.063733
-0.05819
-0.0542986
-0.0583031
-0.0517194
-0.0652036
-0.0887556
-0.0969683
-0.0995927
-0.0966968
-0.0833936
-0.085
-0.0768326
-0.0839819
-0.0816289
-0.0848416
-0.083552
-0.0827828
-0.0823303
-0.0720136
-0.0766968
-0.0912896
-0.100814
-0.115452
-0.100204
-0.10009
-0.100068
-0.0999548
-0.109729
-0.114457
-0.11914
-0.123846
-0.123552
-0.103281
-0.0980769
-0.087828
-0.0925113
-0.102127
-0.106584
-0.126154
-0.135656
-0.135226
-0.109864
-0.109547
-0.0841629
-0.0886878
-0.0981221
-0.0974887
-0.10681
-0.0961312
-0.100452
-0.094819
-0.0892534
-0.0836425
-0.0881222
-0.0824208
-0.0867195
-0.0909729
-0.0802036
-0.0544344
-0.0336652
-0.0177828
-0.0118099
-0.0157918
-0.0197511
-0.00377828
0.0221493
0.052896
0.0785521
0.0942308
0.0899322
0.0706335
0.0463122
0.0319005
0.0123982
0.0127602
-0.0020588
-0.0220135
-0.0320135
-0.0671267
-0.0973981
-0.117805
-0.123416
-0.114208
-0.115226
-0.111335
-0.0925339
-0.0886877
-0.109774
-0.130928
-0.137149
-0.138416
-0.124751
-0.126086
-0.117376
-0.138529
-0.149502
-0.140475
-0.141244
-0.131923
-0.142647
-0.17319
-0.248733
-0.324185
-0.29457
-0.099819
0.330091
0.479932
1.3598
1.62459
1.42939
0.794186
0.0741177
-0.370905
-0.49086
-0.455837
-0.435973
-0.511267
-0.641606
-0.7669
-0.842104
-0.852195
-0.792308
-0.717534
-0.597896
-0.47828
-0.363665
-0.258937
-0.184208
-0.149434
-0.139615
-0.149796
-0.155023
-0.130249
-0.105588
-0.0808144
-0.0710633
-0.0812443
-0.0814479
-0.0816741
-0.0866967
-0.076742
-0.066923
-0.0672171
-0.0474886
-0.0477149
-0.0477601
-0.0528053
-0.0627601
-0.0477827
-0.0529185
-0.0331447
-0.0133257
-0.00346148
0.00642541
0.00144804
-0.00352935
-0.00348413
0.00156114
0.00649326
0.0164254
0.0313802
0.051448
0.0714933
0.101606
0.0866064
0.0915611
0.096448
0.10629
0.131109
0.136018
0.135973
0.130996
0.140905
0.155679
0.170249
0.189796
0.229412
0.254253
0.264344
0.269593
0.274864
0.280068
0.305158
0.325226
0.340339
0.355633
0.361041
0.361538
0.366968
0.377195
0.392262
0.412149
0.421991
0.441968
0.441991
0.437081
0.412308
0.382557
0.36267
0.357692
0.352624
0.342511
0.332511
0.302557
0.267738
0.232828
0.218077
0.168665
0.139389
0.124706
0.0984616
0.0897286
0.0681675
0.0447738
0.00696839
-0.0170135
-0.0255882
-0.02638
-0.00264701
-0.00282797
0.0109277
-0.00316735
-0.00472844
-0.0228053
-0.0112669
0.0103395
0.0217874
0.0224662
0.00703631
-0.0144569
-0.0317646
-0.0345248
-0.00733021
0.0100906
0.0129865
0.00644806
-0.0195474
-0.0200904
-0.0303167
-0.030475
-0.0355882
-0.0408597
-0.0511538
-0.0413122
-0.0513122
-0.0462896
-0.0612443
-0.0561538
-0.0611764
-0.111244
-0.11138
-0.0865384
-0.0615611
-0.0465837
-0.0514932
-0.0814479
-0.0864706
-0.116516
-0.106697
-0.101833
-0.0919909
-0.102081
-0.0870588
-0.0920135
-0.0969457
-0.101946
-0.117059
-0.117195
-0.102353
-0.0925113
-0.102602
-0.122602
-0.112602
-0.122579
-0.102511
-0.0875566
-0.0776244
-0.0726697
-0.0576244
-0.0525113
-0.0424208
-0.0424434
-0.0125565
0.0122398
0.0520815
0.0719684
0.0819231
0.0620589
0.0322625
0.0124435
0.00253396
-0.00244342
-0.00244342
-0.0123755
-0.0422172
-0.0820362
-0.12181
-0.161606
-0.156471
-0.146403
-0.141335
-0.121199
-0.11595
-0.135566
-0.145023
-0.15448
-0.163937
-0.163439
-0.153032
-0.152624
-0.137172
-0.126584
-0.13586
-0.145045
-0.164344
-0.163733
-0.208258
-0.272715
-0.30233
-0.201923
0.13353
0.653914
1.20432
1.53471
1.43502
0.785181
0.0202716
-0.444615
-0.564502
-0.539276
-0.499095
-0.503891
-0.678846
-0.788869
-0.824027
-0.804118
-0.749118
-0.65405
-0.538937
-0.428914
-0.32405
-0.234276
-0.16448
-0.13957
-0.12448
-0.129344
-0.134208
-0.129208
-0.124186
-0.104186
-0.104208
-0.0792308
-0.0792081
-0.0841629
-0.0940271
-0.073914
-0.0687782
-0.0887104
-0.0636425
-0.053552
-0.0436651
-0.0287556
-0.0486199
-0.048371
-0.0530543
-0.0427601
-0.0276244
-0.0275113
-0.00751127
-0.00244342
-0.00228505
0.00294121
-0.00190045
0.00332582
0.00855204
0.0187104
0.0388235
0.0438914
0.0540724
0.0593213
0.054638
0.0498869
0.0699774
0.0850453
0.105091
0.115249
0.125498
0.125905
0.116312
0.12672
0.137036
0.162308
0.177557
0.207851
0.213258
0.218869
0.224548
0.225181
0.235588
0.250747
0.275679
0.295475
0.305294
0.315158
0.315113
0.324977
0.329751
0.339344
0.353778
0.373348
0.383122
0.383145
0.378348
0.358575
0.343733
0.343824
0.338846
0.323846
0.313869
0.293982
0.279118
0.244344
0.204593
0.174796
0.16991
0.15491
0.149955
0.119774
0.104344
0.0687783
0.0436425
0.0350453
0.0288688
0.0252715
0.0335068
0.0466742
0.0470136
0.0332353
0.0257014
0.0103846
0.00280546
-0.00624433
-0.000588223
0.000995487
0.0050905
-0.00337107
-0.00606337
-0.0126697
-0.0239367
-0.0195023
-0.00395928
0.00289594
0.000769243
0.00927603
-0.00719458
-0.00895928
-0.0113122
-0.00432125
-0.00789589
-0.0119004
-0.00617644
-0.0106108
-0.0250226
-0.0394796
-0.0490045
-0.0536651
-0.0533484
-0.0530543
-0.0478507
-0.0575113
-0.0620814
-0.0665837
-0.0911086
-0.0907692
-0.0904977
-0.0902715
-0.085
-0.0846833
-0.0892987
-0.0938235
-0.108303
-0.112851
-0.107466
-0.107172
-0.111878
-0.101561
-0.0961991
-0.100679
-0.125249
-0.124751
-0.129321
-0.123982
-0.10871
-0.0933937
-0.0979638
-0.102466
-0.106946
-0.131471
-0.126086
-0.110814
-0.0855204
-0.0652263
-0.0598416
-0.0393891
-0.0388462
-0.0433258
-0.0379186
-0.0175566
0.0127376
0.0380317
0.068371
0.0887783
0.0792082
0.069638
0.0400452
0.0303168
0.0105204
0.0106787
0.0058371
-0.0190045
-0.0537783
-0.103529
-0.123394
-0.123303
-0.128371
-0.123643
-0.118959
-0.124276
-0.129683
-0.140136
-0.145701
-0.151358
-0.14724
-0.148326
-0.13948
-0.135611
-0.146674
-0.142602
-0.153575
-0.154548
-0.150588
-0.156674
-0.172692
-0.193643
-0.269502
-0.355226
-0.380882
-0.23638
0.128122
0.622602
1.14713
1.51172
1.5714
1.1912
0.526154
-0.0487784
-0.198733
-0.383665
-0.363665
-0.403665
-0.53853
-0.723348
-0.858077
-0.927851
-0.907624
-0.827489
-0.702421
-0.562353
-0.43224
-0.332172
-0.252104
-0.216991
-0.196901
-0.186878
-0.176968
-0.157127
-0.132308
-0.122443
-0.122489
-0.127511
-0.137579
-0.142692
-0.122805
-0.113054
-0.0982806
-0.0935747
-0.0937557
-0.0888914
-0.104072
-0.104253
-0.10948
-0.0947512
-0.0750679
-0.0603168
-0.055543
-0.055724
-0.0558598
-0.0709503
-0.0461087
-0.0514254
-0.0317421
-0.0170362
-0.00723985
0.00262439
-0.00742084
-0.00244346
0.00244342
0.0222851
0.0419683
0.0566968
0.0614706
0.0714706
0.0765385
0.076629
0.0867874
0.0969457
0.127059
0.142172
0.157376
0.167783
0.173348
0.184072
0.199864
0.210656
0.226267
0.256765
0.282172
0.297511
0.307896
0.323281
0.328575
0.333665
0.358484
0.36319
0.377873
0.407489
0.417149
0.411833
0.416471
0.416018
0.42043
0.424729
0.438982
0.443235
0.427466
0.416697
0.385928
0.349977
0.329027
0.312986
0.291968
0.276063
0.250181
0.224321
0.193394
0.162195
0.150769
0.109321
0.093552
0.0945249
0.0778054
0.0685068
0.0559276
0.0536199
0.0346154
0.0225339
0.0228507
0.0175113
0.0263349
0.0152715
-0.0109728
-0.00780541
-0.0254525
-0.0236878
-0.0223303
-0.0259502
-0.0192308
-0.0269457
-0.0339367
-0.0302262
-0.0358371
-0.040724
-0.0401357
-0.0395701
-0.0299321
-0.027104
-0.0315837
-0.0481674
-0.0758371
-0.0829185
-0.0873756
-0.0837104
-0.0880317
-0.0816742
-0.0853167
-0.0688914
-0.0923755
-0.0947285
-0.0814932
-0.0830317
-0.074638
-0.0765837
-0.0689367
-0.0767421
-0.08
-0.0937783
-0.0929412
-0.097353
-0.0869231
-0.0764706
-0.0760633
-0.0855204
-0.0999548
-0.0994118
-0.103846
-0.113371
-0.098009
-0.0926697
-0.0822851
-0.0867873
-0.0812217
-0.105633
-0.0999774
-0.0993213
-0.093733
-0.0931448
-0.087534
-0.0817421
-0.080905
-0.0949774
-0.104027
-0.108077
-0.102127
-0.111154
-0.080181
-0.0842534
-0.0732353
-0.0771267
-0.0859503
-0.0897285
-0.0935068
-0.0823756
-0.071267
-0.0650679
-0.0588236
-0.0475113
-0.0510407
-0.0496607
-0.0433711
-0.0272172
-0.00613125
0.0149094
0.0209728
0.0271267
0.0332353
0.0441855
0.0500226
0.0806787
0.0860633
0.0962895
0.0913348
0.0711991
0.0609728
0.0406108
0.0351131
0.0193438
-0.0166743
-0.0377828
-0.0441629
-0.0656109
-0.0820589
-0.0935747
-0.110204
-0.111968
-0.118914
-0.10595
-0.108032
-0.115
-0.116878
-0.12362
-0.125362
-0.132127
-0.138846
-0.145566
-0.127081
-0.113371
-0.109525
-0.110566
-0.131471
-0.157398
-0.208213
-0.288982
-0.359683
-0.335226
-0.120656
0.289072
0.818846
1.30873
1.55862
1.42848
0.843303
0.143099
-0.307059
-0.437172
-0.427172
-0.427172
-0.442172
-0.69233
-0.817557
-0.882692
-0.867851
-0.797987
-0.693077
-0.573077
-0.458145
-0.338235
-0.253394
-0.198552
-0.178665
-0.158711
-0.153824
-0.163982
-0.154254
-0.139548
-0.134774
-0.124977
-0.0952263
-0.0854073
-0.0754978
-0.08043
-0.0804074
-0.0803847
-0.0855883
-0.0807467
-0.0658825
-0.0559956
-0.0510408
-0.0609729
-0.055905
-0.0608598
-0.0560181
-0.0511991
-0.041448
-0.0315837
-0.0217421
0.00325793
0.0132806
0.0184616
0.0186426
0.0186878
0.0336199
0.058439
0.0683032
0.0733032
0.0683937
0.0685521
0.0638009
0.0939819
0.109095
0.144231
0.159457
0.174796
0.175091
0.170317
0.18552
0.205656
0.220769
0.23086
0.256041
0.271199
0.29638
0.316493
0.321561
0.326561
0.331448
0.361267
0.386086
0.395928
0.415815
0.415905
0.416086
0.411312
0.421403
0.431335
0.46129
0.456312
0.451471
0.426674
0.40181
0.381923
0.371991
0.352014
0.346968
0.331901
0.2919
0.247081
0.217376
0.20267
0.167986
0.168032
0.147896
0.132602
0.112104
0.0767421
0.0518326
0.0277602
0.0242308
0.000882357
-0.0078733
-0.022466
-0.0128732
-0.00866507
-0.0140723
-0.0287556
-0.048009
-0.0523756
-0.0370815
-0.0268099
-0.0171719
-0.0274887
-0.0276923
-0.0277375
-0.0426244
-0.0574208
-0.0521719
-0.0519683
-0.0517195
-0.051448
-0.0662443
-0.0710633
-0.0458823
-0.0357692
-0.0208371
-0.0310181
-0.0461991
-0.0563348
-0.0563575
-0.0562218
-0.0710634
-0.0959276
-0.0909276
-0.0859729
-0.0609955
-0.0660408
-0.0710181
-0.0710407
-0.0860408
-0.105973
-0.10095
-0.0959955
-0.066086
-0.0711765
-0.0613123
-0.0813801
-0.0864027
-0.0913801
-0.101312
-0.12629
-0.131267
-0.111267
-0.0912896
-0.071267
-0.0711765
-0.0910181
-0.105882
-0.115882
-0.125928
-0.116018
-0.100995
-0.100905
-0.105679
-0.110385
-0.0801131
-0.0599095
-0.0497738
-0.0296833
-0.0145249
-0.00434391
0.00590497
0.0161991
0.0215385
0.0319004
0.0222851
0.0275792
0.0328054
0.043009
0.028371
-0.0111765
-0.040724
-0.0902715
-0.12991
-0.154593
-0.134389
-0.11414
-0.118778
-0.138348
-0.152919
-0.162421
-0.152036
-0.146742
-0.141448
-0.131154
-0.120814
-0.120385
-0.139842
-0.159389
-0.169072
-0.163869
-0.168665
-0.128507
-0.113213
-0.127919
-0.162579
-0.26224
-0.336991
-0.306833
-0.0167421
0.473326
1.05328
1.48828
1.53824
1.0383
0.253348
-0.356652
-0.581765
-0.547036
-0.47233
-0.482534
-0.592692
-0.727805
-0.817964
-0.838122
-0.803303
-0.718529
-0.608891
-0.484208
-0.374502
-0.294729
-0.22491
-0.200181
-0.180475
-0.160634
-0.130792
-0.0958597
-0.0809502
-0.0860181
-0.101086
-0.106109
-0.101131
-0.0862669
-0.0614932
-0.0516742
-0.0568099
-0.0567873
-0.0667194
-0.0416742
-0.0366063
-0.046561
-0.0466968
-0.0268325
-0.0218778
-0.0166968
-0.00149316
-0.00622168
-0.00599544
-0.00579181
0.00934394
0.0293439
0.0342535
0.0392535
0.044344
0.0495476
0.0598417
0.0551132
0.0652941
0.0903394
0.100339
0.105339
0.110453
0.110611
0.115769
0.115928
0.136018
0.151199
0.161493
0.18681
0.192195
0.202602
0.198077
0.213529
0.218959
0.239344
0.254683
0.279932
0.300204
0.310407
0.305634
0.310634
0.320407
0.340023
0.359434
0.36871
0.387964
0.387421
0.372059
0.386742
0.381448
0.361154
0.360882
0.355747
0.335679
0.325747
0.295905
0.271109
0.23129
0.211357
0.196357
0.19129
0.17629
0.151335
0.121538
0.10181
0.0769683
0.0569457
0.0414479
0.0355656
0.0248642
0.0254525
0.028371
0.0138914
0.0164253
0.00941174
0.0254524
0.0332353
0.0433031
0.0566063
0.0533484
0.0432353
0.0358145
0.0263801
0.0163801
0.00780538
0.00710399
-0.00101817
0.0122624
0.006199
0.000678644
-0.0140725
-0.0228055
-0.0154525
-0.0124887
-0.0142082
-0.000882402
-0.00266972
-0.00470592
-0.0221946
-0.0302715
-0.0388915
-0.0379639
-0.0273304
-0.0317647
-0.0361313
-0.0404978
-0.0499095
-0.0643666
-0.0639367
-0.0685068
-0.0780996
-0.0577602
-0.0523982
-0.0669457
-0.0864706
-0.095905
-0.100385
-0.10991
-0.109525
-0.0991629
-0.0786878
-0.0831221
-0.107511
-0.106855
-0.111222
-0.110656
-0.10509
-0.10457
-0.0890497
-0.0884163
-0.0977375
-0.112104
-0.106448
-0.105905
-0.110362
-0.0999095
-0.0893665
-0.0938009
-0.08819
-0.0824434
-0.0717194
-0.0759955
-0.0604525
-0.0449547
-0.0294344
-0.00889137
0.00171946
0.00246608
0.0232806
0.029095
0.0647964
0.0754525
0.0811086
0.0767873
0.067534
0.0482353
0.0239819
0.004638
-0.0098643
-0.0343892
-0.0490724
-0.0638914
-0.0837783
-0.0936652
-0.11862
-0.128688
-0.129005
-0.12448
-0.120226
-0.126086
-0.122059
-0.133009
-0.14905
-0.145226
-0.146606
-0.1381
-0.134729
-0.131448
-0.123145
-0.134774
-0.131312
-0.15776
-0.154118
-0.165453
-0.216787
-0.288077
-0.354208
-0.365113
-0.200815
0.17862
0.66319
1.16281
1.49747
1.48717
1.08199
0.426855
-0.108167
-0.3331
-0.367941
-0.36276
-0.422557
-0.567443
-0.737353
-0.847217
-0.897014
-0.886833
-0.831629
-0.741425
-0.626312
-0.501312
-0.396403
-0.301561
-0.231674
-0.20172
-0.191742
-0.18181
-0.176878
-0.167059
-0.15233
-0.127579
-0.117805
-0.113077
-0.11819
-0.118258
-0.118394
-0.133665
-0.109005
-0.104299
-0.0845928
-0.0798869
-0.0900679
-0.0901584
-0.0952489
-0.100498
-0.0907919
-0.071086
-0.0613801
-0.0565837
-0.0467647
-0.0468552
-0.0468779
-0.0319683
-0.032172
-0.00737561
-0.00260185
0.0171719
0.0170362
0.0269909
0.0269457
0.0219457
0.0319004
0.0418552
0.0768099
0.10181
0.101878
0.117059
0.117443
0.112851
0.118235
0.128665
0.149095
0.164661
0.175317
0.191041
0.196787
0.217511
0.228077
0.248507
0.268824
0.289095
0.319299
0.329389
0.344434
0.339412
0.334321
0.349118
0.373846
0.383529
0.403213
0.407964
0.417715
0.407489
0.412149
0.416674
0.431154
0.435543
0.439955
0.439367
0.418801
0.398258
0.367489
0.346697
0.325611
0.299502
0.293371
0.267059
0.240543
0.193824
0.157104
0.141199
0.112082
0.100272
0.0957693
0.0929186
0.0751811
0.0706788
0.0532127
0.0282806
0.0222851
0.0111087
-2.25753e-05
0.00355208
-0.00350671
-0.0113121
-0.0296153
-0.0331221
-0.031561
-0.039819
-0.0276696
-0.0249999
-0.016742
-0.0129864
-0.0237783
-0.0292307
-0.039457
-0.0344118
-0.0389592
-0.02319
-0.017466
-0.0228054
-0.0349095
-0.0393213
-0.060905
-0.073552
-0.0805204
-0.0748642
-0.0712217
-0.0855882
-0.0943891
-0.093009
-0.106629
-0.104864
-0.107376
-0.0942986
-0.0808371
-0.0823529
-0.0790045
-0.0910407
-0.0936199
-0.0966968
-0.110317
-0.104366
-0.0936199
-0.0879864
-0.0823077
-0.0866516
-0.095905
-0.105204
-0.109502
-0.113869
-0.0983484
-0.0877828
-0.0922172
-0.0864706
-0.0855882
-0.094638
-0.11871
-0.112873
-0.107127
-0.0964027
-0.0906108
-0.0847511
-0.0937556
-0.102692
-0.111629
-0.115566
-0.099457
-0.0933484
-0.0871946
-0.0909729
-0.0996154
-0.0881674
-0.0916742
-0.0952036
-0.0888461
-0.0875566
-0.081267
-0.0697964
-0.0632805
-0.0716968
-0.0751358
-0.0736652
-0.0573077
