ekg
0
-0.00166667
-0.007
-0.0157143
-0.0061111
0.00727272
0.0226923
0.017
0.0155882
0.0105263
0.000238076
-0.00500003
-0.00400002
-0.00277781
0.0125862
0.0122581
0.0124242
0.00299999
0.00405405
0.00923079
0.00329269
0.00767443
0.00344443
-0.000744686
-0.0162245
-0.0168628
-0.0129245
-0.00945455
-0.0067544
-0.00440679
-0.00147541
-0.00896826
-0.0218461
-0.0239552
-0.0294928
-0.0342958
-0.039863
-0.0252666
-0.02
-0.00411393
0.00691357
0.00234939
-0.00717646
-0.0366092
-0.0260674
-0.0358242
-0.0305376
-0.00978948
0.00587627
0.00570706
0.000346541
0.0105825
0.0205714
0.0290187
0.0252752
0.0321621
0.0398672
0.0433478
0.0376068
0.0394538
0.0393388
0.0528862
0.0768
0.08
0.097093
0.0844275
0.0614662
0.0381852
0.0141241
-0.00589927
0.009078
0.0242307
0.0340689
0.0289796
0.0188591
0.00877483
-0.0113072
-0.0216129
-0.031879
-0.0422013
-0.0274845
-0.0128834
-0.0133333
-0.0138024
-0.0194083
-0.0202924
-0.0265318
-0.0279429
-0.0244633
-0.0213967
-0.0137845
-0.0215028
-0.0292973
-0.0521658
-0.0551587
-0.0681676
-0.0461917
-0.0291282
-0.0168528
-0.0140201
-0.020597
-0.0467981
-0.0526341
-0.0584541
-0.0189234
0.0211138
0.066338
0.121512
0.211705
0.3371
0.49767
0.64776
0.692805
0.532896
0.192919
-0.141968
-0.366719
-0.416403
-0.416154
-0.345973
-0.27586
-0.235837
-0.240814
-0.270792
-0.265792
-0.260747
-0.200724
-0.165747
-0.165905
-0.181086
-0.191267
-0.176448
-0.166561
-0.161697
-0.146855
-0.122104
-0.0873303
-0.0525566
-0.0277376
-0.0328733
-0.0479865
-0.0531675
-0.0534389
-0.0387331
-0.0240498
-0.034276
-0.0395475
-0.034819
-0.035
-0.0351131
-0.0401584
-0.0401584
-0.035181
-0.0203167
-0.0206561
-0.0259503
-0.0213122
-0.011629
-0.0267421
-0.0267873
-0.01681
-0.0118552
-0.0118778
-0.00690047
-0.00692311
-0.00696835
-0.0019231
0.00323528
0.0134389
0.0285747
0.0386652
0.0586878
0.0737557
0.0788688
0.0888914
0.0837556
0.108054
0.121493
0.144005
0.165498
0.176357
0.19233
0.20457
0.203665
0.214299
0.22086
0.227534
0.238914
0.249977
0.250747
0.256403
0.262172
0.26319
0.264276
0.260204
0.260882
0.236403
0.21681
0.182285
0.147896
0.14362
0.119299
0.104842
0.0802036
0.0753168
0.0802715
0.0750905
0.0549322
0.0298417
-0.00015834
-0.0201357
-0.0301131
-0.0303167
-0.0306787
-0.0210859
-0.0262896
-0.0312443
-0.0459276
-0.0552941
-0.0592534
-0.0776244
-0.0803394
-0.0773982
-0.0892986
-0.071923
-0.0761538
-0.0919457
-0.0937783
-0.0858823
-0.073009
-0.0647285
-0.0561538
-0.0623755
-0.0636651
-0.0601357
-0.0565837
-0.0530995
-0.0444796
-0.0257466
-0.0220362
-0.0184163
-0.0248869
-0.0362896
-0.0377602
-0.0393439
-0.0359502
-0.0425113
-0.0389366
-0.0452941
-0.0515837
-0.053009
-0.0345927
-0.0212217
-0.0278959
-0.0245475
-0.0511085
-0.047647
-0.0541855
-0.0607013
-0.0722398
-0.0738009
-0.0753393
-0.0767421
-0.063009
-0.0490271
-0.0500226
-0.0457918
-0.0514479
-0.0769909
-0.0775339
-0.0829864
-0.0833031
-0.0785294
-0.0687556
-0.0589593
-0.0540498
-0.059095
-0.064095
-0.0640724
-0.0590045
-0.0538688
-0.0435973
-0.0432127
-0.0326697
-0.0121493
0.0383484
0.148778
0.314299
0.494887
0.695634
0.816516
0.807398
0.543416
0.144525
-0.199344
-0.413122
-0.446946
-0.40086
-0.339706
-0.283529
-0.26733
-0.276063
-0.314728
-0.328371
-0.291946
-0.240566
-0.20414
-0.182805
-0.196584
-0.220543
-0.239683
-0.218937
-0.193303
-0.15776
-0.122285
-0.0868326
-0.0663801
-0.0459955
-0.0407239
-0.0455656
-0.0456335
-0.0507918
-0.0259728
0.0038688
0.0087557
0.00371043
-0.0112896
-0.0263574
-0.0415158
-0.0417195
-0.0469231
-0.0321267
-0.0273982
-0.0177602
-0.0183258
-0.00384612
0.00567876
0.0101584
0.0197511
0.0243892
0.00407244
0.00884619
0.00368783
0.0135068
0.0232353
0.022896
0.0425792
0.0723077
0.0821267
0.0870589
0.0920815
0.102059
0.101968
0.12681
0.156652
0.176538
0.191493
0.196403
0.216357
0.226267
0.251131
0.27095
0.275815
0.285679
0.29543
0.290158
0.274412
0.268077
0.265747
0.267398
0.268326
0.25448
0.221923
0.196312
0.157376
0.154231
0.101199
0.0829412
0.0693665
0.0554751
0.0364706
0.0174208
0.00341627
0.00459274
0.00576921
-0.0182806
-0.0275113
-0.0318552
-0.0312217
-0.0304751
-0.029638
-0.0486878
-0.0527376
-0.0719231
-0.061267
-0.0457693
-0.0352036
-0.0292761
-0.0276471
-0.0351584
-0.0367195
-0.0177376
-0.0237783
-0.026086
-0.0303168
-0.0411312
-0.027896
-0.0047964
-0.011448
-0.00778283
-0.0138462
-0.0249095
-0.0360634
-0.0423756
-0.0587783
-0.0550226
-0.0660407
-0.0719231
-0.0677828
-0.0637557
-0.0598869
-0.0411312
-0.0422398
-0.0382353
-0.0490498
-0.0497059
-0.0452941
-0.0359276
-0.0316063
-0.0323529
-0.0130995
-0.0139366
-0.0197737
-0.0254977
-0.0361086
-0.0417873
-0.0575792
-0.0485973
-0.0447285
-0.0459955
-0.052285
-0.0736651
-0.0649547
-0.0462217
-0.0174208
-0.0136425
-0.0298416
-0.035905
-0.0619005
-0.062828
-0.0586652
-0.0695249
-0.0753167
-0.0760407
-0.056629
-0.0371041
-0.0374208
-0.0425113
-0.0523077
-0.0570136
-0.0716516
-0.0562443
-0.0458145
-0.0403846
-0.0398416
-0.0491855
-0.0582805
-0.0522172
-0.056086
-0.0498416
-0.043552
-0.0321946
-0.0207013
-0.00420813
0.0173077
0.0288688
0.11043
0.2469
0.463394
0.684864
0.836335
0.787919
0.504434
0.0758824
-0.277738
-0.436606
-0.46052
-0.404774
-0.339095
-0.293462
-0.267896
-0.262353
-0.271878
-0.306471
-0.296131
-0.235837
-0.190701
-0.170656
-0.170656
-0.195656
-0.210679
-0.230724
-0.220882
-0.191109
-0.146403
-0.0916063
-0.0566742
-0.0266516
-0.0165611
-0.0264932
-0.0365158
-0.0365611
-0.0415837
-0.0266063
-0.00165156
0.00332581
-0.00174206
-0.00669682
-0.0165385
-0.0264253
-0.0312896
-0.0162443
-0.00628957
-0.0113348
-0.00635745
-0.00638007
-0.00635745
-0.00138007
0.0135068
0.0233484
0.0332806
0.0382806
0.0283484
0.0283937
0.0233937
0.0233258
0.0432806
0.0732127
0.10319
0.123235
0.118303
0.138529
0.133733
0.133891
0.138891
0.158688
0.178326
0.212738
0.222014
0.23595
0.239253
0.251765
0.243529
0.240068
0.232285
0.236131
0.246629
0.2281
0.219955
0.216674
0.20319
0.189525
0.180634
0.161584
0.142557
0.128643
0.0949774
0.0661539
0.0320136
0.0226019
0.0130996
0.00864261
0.0143213
0.0151358
0.0159503
0.0217195
-0.0126696
-0.0323076
-0.042104
-0.0470814
-0.047104
-0.037104
-0.0470135
-0.0418099
-0.0364932
-0.0361312
-0.0408144
-0.035181
-0.0438687
-0.0365836
-0.0282579
-0.0442307
-0.0354298
-0.0479638
-0.0574434
-0.0436651
-0.0406108
-0.0226018
-0.0293665
-0.0358371
-0.0370814
-0.0532578
-0.0594569
-0.0607692
-0.047285
-0.0388009
-0.0300678
-0.0210859
-0.0170588
-0.0180543
-0.0142307
-0.0105203
-0.00694568
0.00158373
-0.00481901
-0.0160634
-0.0321719
-0.0431674
-0.0540272
-0.0499548
-0.0410181
-0.0422399
-0.0334616
-0.0447059
-0.0459276
-0.0570362
-0.0581448
-0.069276
-0.0704299
-0.0666064
-0.0677828
-0.0538914
-0.044819
-0.0555204
-0.0661765
-0.0817195
-0.0872399
-0.0877376
-0.0731901
-0.0585068
-0.0738009
-0.0838236
-0.0786878
-0.0735521
-0.0583485
-0.0531901
-0.058077
-0.0477376
-0.0472398
-0.0565611
-0.0607466
-0.0748869
-0.0690046
-0.0631901
-0.0324208
0.00339364
0.0343665
0.0704525
0.111719
0.193032
0.334367
0.505679
0.651991
0.713281
0.584593
0.255905
-0.102692
-0.331244
-0.419842
-0.413484
-0.367149
-0.32086
-0.279615
-0.248416
-0.25233
-0.256335
-0.290407
-0.254661
-0.189095
-0.138778
-0.123507
-0.148281
-0.163077
-0.182896
-0.177715
-0.167557
-0.142398
-0.0973982
-0.0574208
-0.022466
-0.00755654
-0.00757916
-0.0175339
-0.0324887
-0.0424208
-0.0323529
-0.0123303
-0.00237556
-0.0173982
-0.0174661
-0.027466
-0.0324208
-0.0324208
-0.0224208
-0.0224887
0.00739822
0.00733033
-0.00762442
-0.00242081
-0.00223982
-0.00710407
0.0029638
0.0129412
0.0278959
0.0378281
0.0478733
0.0529412
0.0431222
0.0533258
0.0584842
0.0736199
0.0837783
0.0939367
0.114118
0.129389
0.139638
0.164796
0.174819
0.174683
0.199344
0.218869
0.243167
0.241855
0.239955
0.247308
0.244163
0.246086
0.244072
0.243665
0.239661
0.231018
0.212896
0.189615
0.151109
0.137285
0.118235
0.114163
0.110158
0.106131
0.0919684
0.0976245
0.0480996
0.0185521
0.00911766
-0.00522622
0.000497743
0.0111991
-0.0181222
-0.0225339
-0.0320588
-0.0417647
-0.0567421
-0.0418778
-0.0320362
-0.0221719
-0.0271493
-0.0418099
-0.0463574
-0.0507918
-0.0500905
-0.039095
-0.0274887
-0.0100679
-0.00701356
-0.00859727
-0.0107918
-0.0244344
-0.0247964
-0.0362443
-0.03819
-0.0400905
-0.0467873
-0.0532579
-0.0545701
-0.0507466
-0.0519909
-0.0533032
-0.0497737
-0.0411764
-0.0222624
-0.0231674
-0.0240045
-0.025
-0.0161538
-0.0174887
-0.013914
-0.0104073
-0.01181
-0.0280317
-0.034095
-0.0300453
-0.0460181
-0.0520362
-0.0631901
-0.0645249
-0.0608145
-0.0520815
-0.0432579
-0.0443665
-0.0455204
-0.0566969
-0.0629186
-0.0741629
-0.070362
-0.0714028
-0.0723982
-0.0680769
-0.0886199
-0.104118
-0.104548
-0.0999322
-0.0852941
-0.0804978
-0.080543
-0.0754525
-0.0852263
-0.0799095
-0.0945475
-0.0892082
-0.0738009
-0.0683484
-0.0678055
-0.0622398
-0.0616064
-0.0708145
-0.0699322
-0.0590046
-0.0430317
-0.0170362
0.0189592
0.0550452
0.116312
0.252692
0.394072
0.550385
0.661697
0.637964
0.404344
0.040724
-0.267873
-0.341471
-0.455113
-0.403846
-0.342692
-0.281719
-0.240792
-0.249887
-0.269027
-0.263213
-0.217421
-0.161742
-0.136063
-0.140701
-0.160475
-0.175339
-0.175294
-0.165249
-0.165181
-0.135249
-0.110317
-0.080362
-0.0255204
-0.00574663
0.00411762
0.00414023
-0.000791878
-0.0357466
-0.0307692
-0.0208597
-0.0110407
0.00386877
0.00877827
-0.00117649
0.00398187
-0.015905
-0.0107919
-0.0207693
-0.000859767
0.00904974
0.0289593
0.0238914
0.0238235
0.0187783
0.023733
0.0236878
0.033552
0.0433484
0.0432353
0.0631674
0.0582353
0.0684163
0.0685972
0.0787783
0.0988009
0.118846
0.143914
0.169072
0.174276
0.179434
0.184525
0.19457
0.214502
0.224186
0.243756
0.268077
0.247308
0.250656
0.248258
0.240204
0.231991
0.234638
0.233959
0.23491
0.226697
0.203733
0.19552
0.156968
0.128167
0.104118
0.0950905
0.0860407
0.0769231
0.0526697
0.0282806
0.0138235
-0.00554296
-0.0148643
-0.0191403
-0.0235521
-0.0280091
-0.0324434
-0.0370815
-0.0318326
-0.0366969
-0.0516516
-0.0566969
-0.0567648
-0.0417648
-0.036629
-0.0363575
-0.0309276
-0.050362
-0.0495928
-0.048258
-0.0313123
-0.0186652
-0.00554299
-0.022534
-0.020543
-0.025181
-0.0312444
-0.0326018
-0.0345476
-0.0362444
-0.0376923
-0.0438688
-0.0599322
-0.0560407
-0.0522398
-0.0534389
-0.0445475
-0.0404525
-0.0212896
-0.0221041
-0.0129864
-0.00895925
-0.00497736
-0.00106335
-0.00223981
-0.0084389
-0.0245927
-0.0106787
-0.0115158
-0.0173303
-0.0431448
-0.0440045
-0.0449095
-0.0460181
-0.0371493
-0.0232805
-0.0443439
-0.035362
-0.0563574
-0.0673755
-0.058371
-0.0644117
-0.0503619
-0.0412669
-0.0419909
-0.0525565
-0.0578959
-0.0581674
-0.0684163
-0.0736425
-0.0737782
-0.0488009
-0.0337104
-0.0534841
-0.05819
-0.0777375
-0.082285
-0.0817647
-0.0812669
-0.0457013
-0.0399999
-0.0442081
-0.05819
-0.0620361
-0.0508597
-0.0497058
-0.043552
-0.0123529
0.0289819
0.050362
0.0969231
0.118575
0.320091
0.496584
0.653032
0.689412
0.500792
0.122195
-0.24129
-0.434729
-0.483213
-0.426833
-0.35052
-0.289389
-0.253371
-0.272489
-0.266629
-0.245769
-0.2
-0.164389
-0.148937
-0.163575
-0.183258
-0.188054
-0.172873
-0.15776
-0.14776
-0.0978054
-0.0728732
-0.0429185
-0.0229637
-0.013009
-0.00803161
-0.0129863
-0.0278959
-0.0327827
-0.0327148
-0.0276696
-0.0127375
-0.00273746
0.00226253
0.00233041
0.00751139
0.007715
-0.00214922
-0.00703612
-0.00192299
-0.0118325
0.00316752
-0.00178723
0.00330326
0.00346164
0.0186879
0.0187784
0.0188236
0.023801
0.0488236
0.0589141
0.0690951
0.059344
0.0545929
0.0598643
0.0701585
0.0954978
0.115815
0.151131
0.166425
0.181742
0.182127
0.197534
0.207828
0.217964
0.223032
0.233009
0.242964
0.252919
0.247873
0.252466
0.251674
0.245204
0.243032
0.230339
0.212398
0.190317
0.169706
0.145566
0.117308
0.0992534
0.0960407
0.0875792
0.073914
0.0502036
0.0364706
0.0178507
0.00420819
-0.00957009
-0.0136878
-0.0181221
-0.0127149
-0.0172172
-0.0263575
-0.0253394
-0.0493665
-0.0535294
-0.0528733
-0.0423529
-0.0370362
-0.0368326
-0.0465385
-0.0460407
-0.0654072
-0.0595928
-0.0487104
-0.0369683
-0.0244796
-0.0112444
-0.0128733
-0.0103167
-0.0344796
-0.0453394
-0.047104
-0.0441403
-0.0409502
-0.0424208
-0.048552
-0.0445475
-0.0506335
-0.0616968
-0.0527602
-0.0436199
-0.0343665
-0.0300905
-0.0408824
-0.0267648
-0.0276471
-0.018439
0.000791818
0.00502259
0.00438911
0.00380087
-0.00165161
-0.0170588
-0.0274435
-0.0428281
-0.0383032
-0.0390045
-0.0297738
-0.0206335
-0.0165159
-0.032353
-0.033258
-0.0341177
-0.0500227
-0.0459729
-0.0520136
-0.0481675
-0.0543439
-0.0554525
-0.0365385
-0.0475114
-0.0584163
-0.0742534
-0.0950679
-0.0807014
-0.0662896
-0.0467647
-0.057172
-0.0623304
-0.0773756
-0.072353
-0.0722625
-0.0670815
-0.0668553
-0.0715159
-0.0610408
-0.0604073
-0.0595928
-0.0786652
-0.0776697
-0.0816516
-0.0605883
-0.0493666
-0.0331675
-0.0118779
-0.0055204
0.00592756
0.0224434
0.083914
0.180339
0.311719
0.458122
0.584502
0.635882
0.46224
0.148484
-0.175385
-0.379457
-0.42871
-0.393054
-0.34733
-0.306674
-0.296041
-0.265543
-0.275158
-0.289864
-0.264729
-0.209615
-0.144525
-0.109434
-0.129276
-0.174095
-0.20405
-0.199072
-0.184163
-0.149208
-0.109208
-0.0641403
-0.0340271
-0.023914
-0.0287783
-0.0387104
-0.0336878
-0.0287104
-0.0186425
-0.0085746
-0.0184389
-0.0131448
-0.022828
-0.0225339
-0.0123982
-0.00735293
0.00271492
0.0077828
0.00789592
-0.00699097
-0.00190048
-0.0018326
-0.00180997
0.0181448
0.0180995
0.0281221
0.03819
0.0383258
0.0384615
0.0336878
0.028914
0.0392081
0.0495475
0.069819
0.0851357
0.0853846
0.0956787
0.100905
0.106063
0.121131
0.156176
0.166222
0.186357
0.196584
0.201878
0.227172
0.222421
0.232579
0.247489
0.267443
0.282421
0.282443
0.272579
0.257783
0.248054
0.228213
0.218258
0.213235
0.188054
0.178009
0.153054
0.143258
0.113439
0.0985747
0.0935973
0.0685747
0.0435747
0.0386651
0.0237783
0.0189366
0.00420815
-0.000542969
-0.0103846
-0.0103846
-0.0154072
-0.0104525
-0.0353846
-0.0202036
-0.0348642
-0.0394344
-0.0490497
-0.053733
-0.048371
-0.0326923
-0.0215611
-0.0297963
-0.0223303
-0.029276
-0.0360181
-0.0285294
-0.0225339
-0.00312215
0.00536202
0.00366519
-0.0177601
-0.013914
-0.0249321
-0.0209049
-0.0117873
-0.0126923
0.00633489
-0.00454746
-0.00515833
-0.0104751
-0.0206108
-0.0308597
-0.0112895
0.00305435
-0.00757913
-0.0230995
-0.0334162
-0.0384389
-0.0432805
-0.0430316
-0.0578054
-0.0426244
-0.0525339
-0.0373982
-0.0471945
-0.0369231
-0.0415611
-0.0662217
-0.0759502
-0.0707014
-0.0604299
-0.0501358
-0.0548417
-0.0494797
-0.0540724
-0.0536878
-0.0533258
-0.0430091
-0.0377376
-0.0324661
-0.021991
-0.0264706
-0.0258597
-0.0352263
-0.0446154
-0.0490272
-0.0485068
-0.0529186
-0.0422851
-0.0216743
-0.0309502
-0.0150905
-0.0292308
-0.0284164
-0.0225566
-0.0167648
-0.00585979
-0.00477383
-0.01362
-0.0223756
-0.0310634
-0.0447512
-0.0333711
-0.0120136
0.0294343
0.0259049
0.0175113
0.0142533
-0.0139819
-0.0273077
-0.020724
-0.00429867
0.0120135
0.013371
0.0297058
0.0159276
0.0121719
-0.00174215
-0.00576933
2.25604e-05
0.0107239
0.0264931
0.0221719
0.00773749
0.00325784
-0.0112444
-0.0258372
-0.0204978
-0.000181109
0.0150451
0.020294
0.0205881
0.0159275
0.00117636
-0.0185521
-0.018439
-0.00341642
0.0216515
0.026742
0.0168777
0.0121039
0.00244331
-0.00730783
-0.0121042
-0.00694582
-0.0118101
0.00332567
0.0284841
0.0287556
0.0190949
-0.00554308
-0.0203394
-0.0101132
-0.00993216
0.0002262
-0.00450233
-0.00418559
0.00122166
-0.00341633
-0.00307694
-0.00782809
-0.00264707
-0.00757924
0.0126018
0.0129638
0.00325787
-0.00644797
-0.031267
-0.0261087
-0.0160181
-0.000950277
0.00404972
0.0140724
0.00909495
-0.000746667
-0.00565618
-0.0154752
-0.0203847
-0.000497788
-0.00565618
-0.010724
-0.0056788
-0.000588298
-0.00549778
-0.0104525
-0.00547516
-0.015543
-0.000588298
0.00945693
0.00954744
-0.0152941
-0.0250679
-0.0349774
-0.0300227
-0.0252263
-0.0204751
-0.0107919
-0.0311086
-0.031448
-0.0167195
-0.0219005
-0.0371946
-0.0374887
-0.0178733
-0.0232354
-0.00355211
-0.0137331
-0.0188009
-0.023801
-0.023801
-0.0289593
-0.0242082
-0.0145702
-0.014819
-0.0249774
-0.0149095
-0.0247964
-0.0396606
-0.0445475
-0.0345249
-0.0294796
-0.00441176
0.000769258
-0.0189819
-0.0187104
-0.0183936
-0.03319
-0.023009
-0.00796378
0.00208145
0.00714934
-0.0127602
-0.0176018
-0.0173981
-0.0123076
-0.0222398
-0.00728506
-0.00739813
-0.00751126
0.00246614
-0.00248864
-0.0174208
-0.0224434
-0.0275792
-0.0179864
0.00115389
0.0145702
-0.00719458
-0.0203393
-0.0291855
-0.0380543
-0.0558145
-0.0467873
-0.0312443
-0.0299095
-0.0333032
-0.0267873
-0.0253846
-0.0290951
-0.0329186
-0.03681
-0.0206561
-0.0195702
-0.0186199
-0.00785074
-0.0222172
-0.0316516
-0.0309955
-0.0302489
-0.0245702
-0.00889143
-0.00337109
0.0121267
0.00742072
-0.0172851
-0.0121267
-0.0271041
-0.0121946
-0.0124661
-0.00266975
0.00219449
0.00210398
0.0120361
0.00199088
-0.0130543
-0.00814486
-0.0183032
-0.00350687
0.0163122
0.0161991
0.00113115
-0.0139819
-0.0141629
-0.0193213
-0.00457019
0.00511307
0.014819
0.00945699
-0.000814497
-0.00604075
-0.0162896
-0.021742
0.00269231
0.0320136
0.0563575
0.055724
0.0650453
0.0643892
0.0635521
0.0576471
0.0566969
0.0705883
0.0843892
0.0881449
0.0819684
0.0757693
0.0495929
0.0333033
0.0169458
0.00552042
0.0290272
0.0375566
0.046086
0.0296833
0.0282806
0.0168553
0.000497803
-0.0159275
-0.0173755
-0.028733
-0.0499547
-0.0510406
-0.0618551
-0.0626244
-0.0684388
-0.064276
-0.0549773
-0.0556108
-0.0412216
-0.0466288
-0.0469682
-0.0421945
-0.0424886
-0.0578505
-0.0483031
-0.0487329
-0.0391175
-0.0394343
-0.03457
-0.0346379
-0.0346605
-0.0346605
-0.014751
0.00509064
0.0498644
0.129706
0.289661
0.344683
0.674616
0.834435
0.829186
0.578824
0.173326
-0.172127
-0.352534
-0.407918
-0.393371
-0.353846
-0.304276
-0.279706
-0.275158
-0.310566
-0.31095
-0.271244
-0.231561
-0.191832
-0.182262
-0.202828
-0.218461
-0.209163
-0.209774
-0.180271
-0.170679
-0.131018
-0.11138
-0.0818551
-0.0623528
-0.0478732
-0.0333709
-0.0438686
-0.0493211
-0.0446152
-0.0449546
-0.0402714
-0.0456107
-0.0460406
-0.0364253
-0.0368551
-0.0471945
-0.0423981
-0.057647
-0.0529411
-0.0333257
-0.0337556
-0.019276
-0.00970584
-0.0100679
-0.00536197
-0.010724
-0.0112443
-0.00687778
0.0122172
0.0258371
0.0389593
0.0363801
0.033077
0.0441177
0.0451584
0.0620815
0.0757466
0.101177
0.132692
0.139525
0.151357
0.157964
0.159321
0.175453
0.191425
0.202466
0.213529
0.229502
0.220385
0.226086
0.221719
0.22233
0.217919
0.213484
0.219005
0.209412
0.184751
0.164932
0.139819
0.104547
0.099095
0.0885746
0.0930316
0.0625791
0.0321945
0.0368325
0.00658365
0.00131218
-0.0190046
-0.0242987
-0.0146381
0.0049547
0.00461535
-0.0156787
-0.0158824
-0.0561765
-0.0715385
-0.0719457
-0.082353
-0.0778054
-0.0681448
-0.0583711
-0.0633937
-0.0680543
-0.0670588
-0.0658597
-0.0482806
-0.0350227
-0.0117421
0.00540717
0.00563343
0.00929859
0.00212665
0.00957012
0.0170136
0.0045249
-0.00285067
-0.00515835
-0.022466
-0.0149547
-0.0374887
-0.0348642
-0.0372172
-0.0195022
-0.00178733
0.0108145
0.0233484
0.00597283
-0.00631224
-0.0235068
-0.0256561
-0.0275565
-0.0292308
-0.0206787
-0.0319909
-0.023009
-0.0238009
-0.0245475
-0.055181
-0.0457692
-0.0412669
-0.0467194
-0.0421946
-0.0476018
-0.047828
-0.0529864
-0.0631222
-0.0532127
-0.0583937
-0.0535747
-0.0435973
-0.0285747
-0.0334389
-0.0382127
-0.0430317
-0.0328733
-0.00776018
0.0123529
0.0624887
0.162715
0.298077
0.483484
0.668959
0.814389
0.824842
0.630204
0.245656
-0.148846
-0.388213
-0.442398
-0.426516
-0.370611
-0.319729
-0.273891
-0.262828
-0.291674
-0.310475
-0.299208
-0.252896
-0.201652
-0.175362
-0.184072
-0.177805
-0.181561
-0.185339
-0.174072
-0.157896
-0.131946
-0.0861312
-0.0505883
-0.0201358
-0.00466065
-0.00414029
-0.0185747
-0.0230543
-0.0276245
-0.0372172
-0.036991
-0.0268326
-0.0267421
-0.016629
-0.016448
-0.0212217
-0.0310407
-0.0410181
-0.0209728
-0.00108594
0.00877832
0.00864258
0.0185295
0.013439
0.00837107
0.0083032
0.00819008
0.0230091
0.0328055
0.0576245
0.0674887
0.0574208
0.0575113
0.0776697
0.077828
0.0829412
0.112986
0.128054
0.153258
0.178394
0.188529
0.19371
0.198869
0.208937
0.213824
0.248688
0.273439
0.283303
0.287941
0.287195
0.275837
0.253552
0.260543
0.257149
0.239253
0.207828
0.188145
0.179751
0.131878
0.0990271
0.0808823
0.0523982
0.0485746
0.0297738
0.026086
0.0274887
0.013914
-0.0149095
-0.0290271
-0.0433032
-0.0476923
-0.0419231
-0.0361538
-0.0502262
-0.0592534
-0.0683258
-0.0775792
-0.0670815
-0.0567874
-0.0515385
-0.0511765
-0.0507014
-0.0499548
-0.0637783
-0.0570362
-0.0694571
-0.0561086
-0.0421041
-0.0130543
-0.00988692
-0.00343898
-0.00873308
-0.0200679
-0.0317421
-0.0283711
-0.0198191
-0.0109955
-0.0470136
-0.0530317
-0.0542082
-0.0604978
-0.0567421
-0.0527829
-0.0586426
-0.0643892
-0.0601584
-0.0608598
-0.0615385
-0.0672851
-0.0580996
-0.0340046
-0.0248644
0.00945693
-0.00608605
-0.0164254
-0.0366969
-0.0420589
-0.0626245
-0.0732806
-0.0640498
-0.0549774
-0.0459276
-0.0518326
-0.0627829
-0.0687105
-0.0596607
-0.0506788
-0.0367648
-0.0429638
-0.0490951
-0.0600905
-0.0609955
-0.0767874
-0.0773756
-0.0728734
-0.0633937
-0.0588688
-0.0492761
-0.0445476
-0.0496833
-0.0445702
-0.049344
-0.0641403
-0.0638915
-0.0635295
-0.0481675
-0.037715
-0.0320589
-0.0511539
-0.0450679
-0.0488915
-0.0576924
-0.0665385
-0.0353847
-0.0141403
-0.00289603
0.0235746
0.0202488
0.0920135
0.193756
0.345452
0.537081
0.688643
0.760294
0.651991
0.328597
-0.0549322
-0.328597
-0.45233
-0.446312
-0.380498
-0.304774
-0.259186
-0.253552
-0.272986
-0.297421
-0.296901
-0.246448
-0.181222
-0.151041
-0.135928
-0.16086
-0.165747
-0.195566
-0.195475
-0.170475
-0.135588
-0.0856561
-0.0456334
-0.0254977
-0.025294
-0.0301357
-0.0399999
-0.0349094
-0.0248642
-0.0247963
-0.00977367
-0.00972842
-0.00954741
-0.00920804
-0.0138913
-0.0235746
-0.0333031
-0.0131221
-0.00800893
0.00719468
-0.00253381
0.00782818
0.018077
0.023258
0.0283938
0.0284616
0.0285295
0.0385974
0.0387105
0.0337331
0.0238462
0.0140046
0.0242082
0.0493892
0.0846155
0.0999548
0.105362
0.110973
0.0965385
0.0970136
0.117398
0.147692
0.162873
0.183077
0.208326
0.213643
0.214027
0.224367
0.229661
0.234932
0.245158
0.250407
0.265769
0.271131
0.261448
0.251719
0.227014
0.192217
0.167421
0.167624
0.157919
0.143235
0.128575
0.108959
0.079276
0.0645928
0.0598869
0.0501131
0.045362
0.0456109
0.0310181
0.0164027
-0.0231448
-0.0378734
-0.0326471
-0.0275114
-0.0123304
-0.00714938
-0.0167422
-0.0112218
-0.0256788
-0.0450453
-0.0544571
-0.0436879
-0.0324888
-0.025543
-0.027715
-0.0341177
-0.0401811
-0.0317422
-0.0298643
-0.0197738
-0.0159277
-0.0126471
-0.00432135
-0.00567882
-0.0066743
-0.0224888
-0.0282806
-0.0342083
-0.025249
-0.0262897
-0.00708152
-0.0125566
-0.0129186
-0.00816751
-0.0135295
-0.0239593
-0.0196381
-0.0103168
0.00414021
-0.0161991
-0.0261991
-0.0409955
-0.0507466
-0.040543
-0.0354299
-0.0253846
-0.0303394
-0.0302263
-0.0350679
-0.0298417
-0.0495249
-0.059163
-0.0538688
-0.0486652
-0.0435973
-0.0335521
-0.0283937
-0.0431449
-0.0477829
-0.0574661
-0.0671494
-0.0568553
-0.0465611
-0.0362218
-0.0308598
-0.0254526
-0.0399322
-0.0244571
-0.0390724
-0.0487783
-0.0585521
-0.0582353
-0.0578507
-0.0572399
-0.0615611
-0.0708145
-0.0750453
-0.0643665
-0.0637557
-0.0480996
-0.0423077
-0.056448
-0.0554525
-0.0593213
-0.0631674
-0.0570362
-0.0558824
-0.0546606
-0.0334163
-0.0271493
-0.0358598
-0.0394797
-0.0330996
-0.0317648
-0.0354978
-0.0293439
-0.0283032
-0.0223756
-0.0314028
-0.0304525
-0.0245475
-0.0287557
-0.0180543
-0.0125566
-0.0121267
-0.0116969
-0.0163349
-0.0159503
-0.0355204
-0.0201584
-0.0298869
-0.00984168
0.00506783
0.0199773
-6.79195e-05
-0.0100453
-0.0299096
-0.0347738
-0.0296607
-0.0246607
-0.0197738
0.0100678
0.0149774
-4.52995e-05
-0.00502264
-0.0250227
-0.0301132
-0.0303168
-0.0105204
-0.000746638
-0.000882387
-0.000950277
-0.00597289
-0.010905
-0.0158145
-0.0108145
-0.010905
-0.001086
-0.00126699
-0.00140274
-0.00647059
-0.0114253
-0.00633484
-0.0163348
-0.0162896
-0.0062896
0.0187104
0.0186878
0.013733
0.0038009
-0.0212218
-0.0263122
-0.0165158
-0.00678733
0.00798646
0.0128281
0.0177149
0.0126244
0.00264704
0.00257918
-0.0174887
-0.0276923
-0.0129864
0.00176468
0.0215384
0.016448
0.0114027
-0.00361994
-0.0137783
-0.0139819
-0.00425345
0.0104751
0.0152715
0.0101357
0.00506783
-0.00497741
-0.02
-0.0101358
0.00475109
0.0145475
0.0192986
0.00902709
0.0187782
0.00357461
0.003371
-0.00687787
-0.00726247
-0.00266969
0.0120136
0.0217194
0.0215158
0.0212896
0.0110407
0.00576928
0.00545257
0.0100906
0.0147512
0.00438917
0.00402719
0.0087783
0.00857469
0.00339368
0.00816748
0.00787336
0.0125566
0.0122399
0.00196838
0.00171953
-0.00846151
-0.0137556
-0.0191402
-0.00945696
-0.00986421
0.00481907
0.00454758
-0.000723913
0.00404982
-0.00619909
-0.0164932
-0.016923
-0.0123755
-0.00294113
0.0115159
0.0161086
0.0107919
0.010362
-0.0101358
-0.0207919
-0.0115837
-0.00242078
0.00178735
0.00104074
-0.00454749
-0.0100679
-0.0156109
-0.0161765
-0.00685517
0.00748873
0.0118326
0.0162896
0.00585975
-0.00454751
-0.00997737
-0.0205204
-0.0261086
-0.00662893
-0.0020362
0.0126923
0.0074887
0.0073756
-0.00771491
-0.0128507
-0.0280995
-0.00839363
-0.0136425
-0.00891399
-0.0191402
-0.00923072
-0.014276
-0.00432122
-0.00445697
0.000226304
0.00988692
0.0145928
0.0142987
0.00409509
0.0039141
-0.00622167
-0.0314479
-0.0167646
-0.0121266
-0.00262436
0.00669689
0.000837162
-0.000475034
-0.0274886
-0.0304977
-0.0343664
-0.0238687
-0.0230542
-0.0209728
-0.0319909
-0.0364253
-0.0401131
-0.0435972
-0.0421719
-0.041018
-0.0301809
-0.0193665
-0.0135294
-0.0125113
-0.0164253
-0.0205429
-0.0298416
-0.0293665
-0.0239592
-0.00355199
-0.0029864
-0.0123755
-0.0167647
-0.0212443
-0.0108823
-0.0207013
-0.0157239
-0.0108597
-0.00601804
-0.00613117
-0.00119905
-0.00131217
-0.00647053
-0.0116289
-0.0268099
-0.0220135
-0.00221714
0.00257927
-0.00260171
-0.00773747
-0.0129411
-0.0231221
-0.00839357
0.011267
0.000837177
0.0154752
0.00515844
-0.000113055
-0.000361934
-0.0106787
-0.0109502
-0.00135742
0.00819007
0.027715
0.0422625
0.0568326
0.0414933
0.0361312
0.0406787
0.0452262
0.0594796
0.0836878
0.0978959
0.0920588
0.0862896
0.0804751
0.0695702
0.0585294
0.0573304
0.0610181
0.0497285
0.0485068
0.0422851
0.0260634
0.0197285
0.0233032
0.04181
0.0452263
0.0236199
0.00217198
-0.0292307
-0.0354977
-0.056742
-0.0629864
-0.059276
-0.0405656
-0.0268778
-0.0480769
-0.044095
-0.045
-0.0509276
-0.0617421
-0.0675792
-0.0583936
-0.0441176
-0.0447511
-0.0452036
-0.035543
-0.0408371
-0.0411086
-0.04638
-0.0317421
-0.0221946
-0.0125339
-0.0028054
0.0270136
0.0819231
0.19681
0.371719
0.586538
0.771358
0.896222
0.816109
0.536086
0.126131
-0.208801
-0.368756
-0.418869
-0.404072
-0.354344
-0.299593
-0.284864
-0.275136
-0.305385
-0.315747
-0.281176
-0.231674
-0.197217
-0.182692
-0.193167
-0.228507
-0.233824
-0.219208
-0.189661
-0.155181
-0.115724
-0.0812217
-0.0617194
-0.0571719
-0.0625792
-0.0679412
-0.0682579
-0.0585746
-0.0539592
-0.0493891
-0.0499095
-0.0453619
-0.0457013
-0.0459502
-0.0561991
-0.0514705
-0.0567647
-0.0471493
-0.0374434
-0.0225792
-0.0277149
-0.0378054
-0.0329864
-0.0382353
-0.028552
-0.0339593
-0.0143665
-0.0147738
-0.01
-0.0100453
-0.00490949
-0.00977376
0.000181019
0.0150227
0.0148417
0.0597286
0.0597512
0.0699322
0.0901358
0.0801358
0.0896607
0.103371
0.126109
0.152964
0.174389
0.176154
0.174208
0.179005
0.185158
0.20181
0.213462
0.224932
0.236403
0.237511
0.223439
0.219321
0.205204
0.196176
0.1969
0.192376
0.18767
0.178032
0.173529
0.129118
0.109774
0.105317
0.090724
0.0909503
0.0960181
0.0760181
0.060905
0.0307013
0.0104525
0.000271484
-0.0149095
-0.0150905
-0.00524889
-0.010362
-0.0204299
-0.0304977
-0.040543
-0.0504299
-0.0500453
-0.0542308
-0.0576244
-0.0550905
-0.0616969
-0.0477602
-0.0591629
-0.0668552
-0.081448
-0.0826244
-0.0545702
-0.0417874
-0.0289593
-0.0358371
-0.0224434
-0.0140271
-0.0157466
0.00728507
0.0151584
0.0231674
0.0213801
0.00472851
0.00805429
-0.00375567
-0.0107692
-0.00794117
-2.26051e-05
0.00791857
0.0209955
-0.000837103
0.00242083
-0.00425339
-0.0109728
-0.0227602
-0.0296154
-0.0314932
-0.0232579
-0.0199774
-0.0165837
-0.0281674
-0.0346606
-0.0510633
-0.0573982
-0.0587557
-0.0599547
-0.0511312
-0.0570362
-0.0727149
-0.0832353
-0.0786878
-0.0692081
-0.0596606
-0.0450679
-0.0353393
-0.0355656
-0.0255882
-0.0555882
-0.0755203
-0.100385
-0.0852262
-0.0601357
-0.0399773
-0.0297059
-0.0394344
-0.0539366
-0.0634163
-0.0528733
-0.0122624
0.0883258
0.263937
0.469593
0.655362
0.751312
0.682376
0.388394
0.00436656
-0.299661
-0.423643
-0.427489
-0.381244
-0.359909
-0.273507
-0.252081
-0.260724
-0.289412
-0.313167
-0.276923
-0.225679
-0.179502
-0.173303
-0.187195
-0.226086
-0.235271
-0.209525
-0.183824
-0.153167
-0.122624
-0.0970362
-0.056561
-0.0361538
-0.0258823
-0.0307239
-0.0355656
-0.0354298
-0.0452488
-0.0399547
-0.039638
-0.0293665
-0.0241855
-0.0291176
-0.0341855
-0.0142986
-0.0144796
-0.00459273
-0.00961538
-0.00466061
-0.00968324
-0.00484161
0.00493214
0.0196606
0.0294344
0.0393439
0.0443439
0.0294118
0.024457
0.0345249
0.0745927
0.099638
0.124819
0.13009
0.135498
0.14095
0.161199
0.181425
0.191538
0.221606
0.216719
0.241878
0.247127
0.267443
0.28267
0.287828
0.302805
0.312557
0.322081
0.326448
0.309864
0.302602
0.279638
0.271154
0.252805
0.230701
0.215385
0.211538
0.183462
0.175543
0.127353
0.088733
0.0697511
0.0506108
0.0565837
0.0476923
0.0337104
0.0145475
0.000316739
-0.0239367
-0.0280543
-0.0372172
-0.0513801
-0.0507014
-0.04
-0.0443213
-0.0536652
-0.0531222
-0.0577828
-0.0626471
-0.0576697
-0.0526244
-0.0573982
-0.0516742
-0.0451358
-0.0426697
-0.0493439
-0.0456561
-0.0273755
-0.0154072
-0.0101131
-0.0161765
-0.0328281
-0.0445023
-0.0560181
-0.0625113
-0.0686426
-0.0697059
-0.0658145
-0.0670588
-0.0783937
-0.0795701
-0.0705656
-0.0813122
-0.0721719
-0.0780995
-0.0592307
-0.0654298
-0.0615158
-0.0675339
-0.0435068
-0.0494117
-0.0452489
-0.0460633
-0.0468326
-0.0426244
-0.0534389
-0.0643212
-0.0752489
-0.0913348
-0.102511
-0.103733
-0.095
-0.0812896
-0.0625791
-0.053914
-0.0451131
-0.0663348
-0.0875565
-0.0938009
-0.0899321
-0.0760407
-0.0720362
-0.0779864
-0.088733
-0.0893665
-0.0948642
-0.0952488
-0.0955656
-0.0857918
-0.0758371
-0.0706787
-0.0753393
-0.084819
-0.104208
-0.113529
-0.0828054
-0.0720135
-0.0561312
-0.0502036
-0.0540724
-0.0528733
-0.0615384
-0.0601357
-0.0586425
-0.0370814
-0.000452459
0.0461991
0.0879412
0.119751
0.331606
0.493394
0.655113
0.776674
0.738258
0.459796
0.0512896
-0.277308
-0.445973
-0.479728
-0.408507
-0.317511
-0.251765
-0.226086
-0.24552
-0.264864
-0.234208
-0.178643
-0.153281
-0.148032
-0.167964
-0.187941
-0.207964
-0.198032
-0.188077
-0.1581
-0.133213
-0.0983937
-0.0635747
-0.033733
-0.00886881
-0.0139819
-0.0140724
-0.0241403
-0.0292534
-0.0293439
-0.0343892
-0.0195023
0.000384599
-0.00470591
-0.0197964
-0.0247964
-0.0197964
-0.0197964
-0.00986427
0.00497735
0.00975113
0.0145249
0.0143213
0.0142308
0.00918551
0.00907241
0.0189366
0.00877829
0.0385068
0.0382805
0.0430769
0.0479412
0.0478281
0.0577602
0.0776697
0.0926244
0.102511
0.137443
0.14733
0.16224
0.162172
0.172059
0.181878
0.206538
0.231018
0.240294
0.259344
0.268032
0.261131
0.263484
0.250068
0.25129
0.25767
0.255362
0.234887
0.225973
0.207964
0.209955
0.181538
0.167647
0.148529
0.129299
0.100181
0.0761086
0.0470136
0.0427828
0.0283936
0.013914
-0.000610873
-0.0101584
-0.0147059
-0.00909503
-0.00848417
-0.00796381
-0.0226923
-0.0426697
-0.0477602
-0.0578733
-0.0579638
-0.0579864
-0.0679186
-0.0576471
-0.0672398
-0.0716742
-0.0760181
-0.0744797
-0.0622851
-0.0443213
-0.0507919
-0.0523982
-0.0602037
-0.0549095
-0.046086
-0.0581222
-0.065362
-0.0673077
-0.0538235
-0.0600226
-0.0561539
-0.0724208
-0.0838009
-0.0801131
-0.0561765
-0.047172
-0.0331674
-0.029276
-0.0305203
-0.0368552
-0.0432353
-0.0397059
-0.0261538
-0.0226018
-0.0239593
-0.035181
-0.0463122
-0.047353
-0.0485294
-0.0597738
-0.0461765
-0.0476697
-0.0592308
-0.0558824
-0.0574208
-0.0487783
-0.0400905
-0.0564706
-0.0628733
-0.0792534
-0.075543
-0.0666516
-0.0575113
-0.0631901
-0.0687557
-0.0892308
-0.099638
-0.095
-0.0903168
-0.0754978
-0.0607014
-0.0606561
-0.0705204
-0.0653168
-0.0750679
-0.0798416
-0.0795701
-0.0641403
-0.0536652
-0.0580543
-0.0472398
-0.0513575
-0.0504299
-0.0495023
-0.0435747
-0.0176471
0.00834841
0.044457
0.0957014
0.187036
0.333439
0.519819
0.701154
0.792376
0.73862
0.429887
0.0212217
-0.317557
-0.501357
-0.495272
-0.409231
-0.313348
-0.262511
-0.24181
-0.266176
-0.275656
-0.260226
-0.21991
-0.179593
-0.164434
-0.164344
-0.179344
-0.189367
-0.194344
-0.184276
-0.149186
-0.0891176
-0.0391176
-0.0143213
-0.0195022
-0.0247059
-0.0397964
-0.0398416
-0.0499321
-0.0349773
-0.0301357
-0.0203167
-0.00556557
0.00920819
-0.000950202
-0.00597282
-0.0159954
-0.0310633
-0.0212443
-0.0264706
-0.00665155
0.00314483
0.00798647
0.00282809
-0.00219454
0.00778285
0.017715
0.0225114
0.0372625
0.0371041
0.0470362
0.0521041
0.0572851
0.0674208
0.0675113
0.087534
0.117557
0.142557
0.167602
0.18267
0.187828
0.197986
0.2031
0.22819
0.243213
0.268167
0.283235
0.298303
0.313348
0.303416
0.283462
0.268575
0.26871
0.268778
0.268778
0.24871
0.21871
0.178801
0.143959
0.124072
0.104095
0.0890045
0.0738462
0.063733
0.0436878
0.0387557
0.0139593
-0.00588234
-0.0157692
-0.020724
-0.0157466
-0.0157466
-0.030724
-0.0256109
-0.0454072
-0.0552489
-0.0600679
-0.0549774
-0.0549095
-0.0448416
-0.0347285
-0.024457
-0.0240045
-0.0434389
-0.0426471
-0.0465385
-0.0447511
-0.0271493
-0.00868778
-0.00472848
0.00402716
-0.00859725
-0.00314476
-0.009276
-0.00631219
0.00162897
0.00497736
-0.00117651
0.00796378
0.00219455
-0.00373307
-0.00966065
-0.0156109
-0.0214028
-0.00201362
-0.00253399
0.00194566
-0.00361997
-0.0192082
-0.0248643
-0.0304978
-0.0259955
-0.0261539
-0.00106339
-0.0108598
-0.0157014
-0.040543
-0.0504978
-0.0504525
-0.0504978
-0.0354978
-0.0354752
-0.025362
-0.0301584
-0.0348417
-0.0495928
-0.0593666
-0.0542308
-0.0392082
-0.0241629
-0.0241177
-0.0289141
-0.0435747
-0.0432806
-0.0580317
-0.0628281
-0.0476245
-0.0323756
-0.0321267
-0.0467647
-0.0413349
-0.0608371
-0.070362
-0.0548643
-0.0443892
-0.0339819
-0.0384389
-0.0277602
-0.0219231
-0.020905
-0.0398417
-0.0487783
-0.0477602
-0.0417647
-0.0256335
-0.0194118
-0.0280769
-0.0265611
-0.0299774
-0.0283711
-0.0218326
-0.0254299
-0.0190725
-0.0177376
-0.00638016
-0.00502267
-0.0136878
-0.022534
-0.0265838
-0.0207693
-0.00509055
0.000452429
0.0059728
0.0014479
-0.0080996
-0.017715
-0.0324209
-0.0222851
-0.0222851
-0.00233038
0.00260176
-0.00735299
-0.0122625
-0.0172399
-0.0272625
-0.0223982
-0.0176245
-0.00280549
0.00212665
0.00208138
-0.00285073
-0.012715
-0.0275792
-0.0175566
-0.017715
0.00214928
-0.00296384
0.0019909
-0.00789596
-0.027715
-0.0376018
-0.042534
-0.0276018
-0.0176471
-0.00264707
0.00739817
0.0025339
-0.0122851
-0.0271041
-0.0269005
-0.01681
-0.0267647
-0.00669685
-0.00169685
-0.00169684
-0.00658372
-0.00642535
-0.0112444
-0.0161539
-0.00622173
-0.00131221
0.00359729
-0.0114253
-0.0164027
-0.0162217
-0.0111312
-0.0161086
-0.00619908
-0.00640269
0.0034163
0.0082127
0.00800909
-0.00212668
-0.00719452
-0.0172398
-0.0123077
-0.0125339
-0.0028054
0.00692311
0.0117647
0.00676474
-0.00821263
-0.0282805
-0.0134389
-0.00871037
-0.00404975
0.00558826
0.00529414
0.0100905
-0.0001131
-0.015362
-0.0206108
-0.0109276
-0.0112896
0.00339371
0.0181448
0.00794119
0.0077602
-0.00239818
-0.0175339
-0.0126923
-0.00800905
0.0116516
0.0213122
0.0160634
0.0108597
0.010724
-0.0143891
-0.0145701
-0.0047964
-6.78599e-05
0.00968324
0.00441176
0.00916289
0.00393665
0.00377826
-0.0113575
-0.00156109
0.00312217
-0.00226243
0.00735296
0.0171719
0.0071267
0.00203621
-0.00312218
-0.00839369
0.00631222
0.0159729
0.0255882
0.0252715
0.0251132
0.00495477
-0.00524883
-0.00547507
0.00929871
0.0139367
0.0236652
0.00843896
-0.0116968
-0.016742
-0.0318099
-0.0370135
-0.0272398
-0.00257917
0.017172
0.0118778
0.00174209
-0.0133936
-0.0335746
-0.0337556
-0.0190045
-0.00434387
0.0102941
0.0100452
-0.00518098
-0.0102262
-0.0201584
-0.0250679
-0.0300679
-0.0252941
-0.00558825
-0.000905007
-0.0111765
-0.00122175
-0.00615388
-0.0111086
-0.0211765
-0.021267
-0.00647064
0.0134162
0.013371
0.00841619
-0.0014933
-0.0115612
-0.0217195
-0.0119231
-0.00210415
-0.00228514
0.0125791
0.00746599
0.0125112
0.0275565
0.0125565
0.00748862
-0.00269239
-0.00291863
0.0168778
0.0167194
0.0216063
0.0116063
-0.0083711
-0.0134163
0.00149314
0.00626688
0.0311085
0.0309728
0.0308596
0.030837
0.0257918
0.0257691
0.0206334
0.0253619
0.0200904
0.0198868
0.0247737
0.0197737
0.0198642
0.00981896
0.0147058
0.014457
0.0191176
0.0338914
0.0287104
0.0286651
0.0137104
0.018733
0.00871038
-0.00640273
0.00830315
0.0130317
0.0227828
0.0226923
0.0226471
0.0225792
0.0175113
0.0123303
0.0071267
0.0119231
0.0267647
0.036629
0.0415159
0.0114254
-0.0136199
0.00126697
0.011086
0.0258824
0.0207013
0.0156109
0.0356109
0.0206335
0.00567877
0.0107241
0.0106335
0.0104299
0.00520366
0.0250001
0.00988695
0.00488694
-0.000180945
-0.0153167
-0.0104977
0.0142082
0.00886884
0.0185973
0.00843899
0.0183937
0.0033711
-0.00171939
0.0131222
0.00285073
-0.00242077
0.00737563
0.00723986
-0.00278275
0.00221726
-0.0228506
-0.038009
-0.0482578
-0.043552
-0.00884609
0.00588241
0.0207467
0.000724033
-0.0293438
-0.0493664
-0.0444569
-0.0246153
-0.0198642
-9.04202e-05
-0.0252035
-0.0301809
-0.0451809
-0.0502262
-0.0303393
-0.0154977
-0.00572392
-0.00588229
-0.0109502
-0.0109728
-0.0159049
-0.0408823
-0.0358823
-0.0258823
-0.0209954
-0.00108594
-0.00119905
-0.00122169
-0.011199
-0.0111991
-0.0261312
-0.0260859
-0.0161991
-0.0213801
-0.0115384
-0.0115837
-0.0115158
-0.0114027
-0.0212217
-0.0161086
-0.0161086
-0.00113124
0.0138688
0.0088914
0.00391403
-0.0160407
-0.025905
-0.0307919
-0.0107466
0.00420815
0.0241629
0.0290498
0.00902714
0.00411765
-0.00585973
-0.0158824
-0.0161086
-0.0113801
0.00825793
0.0228054
0.0174887
0.0221946
-0.00803168
-0.00828053
-0.00861989
-0.0039819
0.0156109
0.0203167
0.00495476
0.00466064
0.00447965
-0.00558823
-0.000565603
-0.000723988
0.00393665
0.0136425
0.0134163
0.00337104
-0.00171943
-0.0118099
-0.00669682
-0.0116063
-0.0114932
-0.00131221
0.0138462
0.0189819
0.0290498
0.014276
-0.000588238
-0.000475109
-0.00538462
-0.000452489
0.0095475
0.0146606
0.00979638
0.0100679
0.00524889
-0.00457013
0.000475138
0.000520393
0.00561088
0.00563352
0.0056109
0.00567877
-0.00429861
-0.00941172
-0.00979634
0.00427605
0.0126019
0.0150453
0.00656115
0.00253397
-0.0115611
-0.034638
-0.0361086
-0.0361086
-0.0252489
-0.0139366
-0.0024208
-0.00599547
-0.0146606
-0.0236199
-0.017647
-0.0116063
-0.00561084
-0.00461535
0.00138012
-0.00285065
-0.0120588
-0.0211991
-0.0252941
-0.0194118
-0.00873303
0.00680995
0.0171946
0.00746605
0.00273757
-0.0170362
-0.00687784
-0.00178732
-0.0117421
-0.0168099
-0.00185518
0.00814481
0.0181901
-0.00174208
-0.00167421
-0.0116516
-0.026629
-0.0117195
0.00823529
0.0131674
0.00319006
0.00334843
-0.00151582
-0.00649321
-0.0215837
-0.02181
-0.00710405
0.00276022
0.00766972
0.0227376
0.00789595
-0.00208142
0.00789595
0.0177376
0.0474435
0.062172
0.0719005
0.0766968
0.0615385
0.0613122
0.0560634
0.0605882
0.0800226
0.0844344
0.0888235
0.0582353
0.0676471
0.0568552
0.0460407
0.0301584
0.0141403
0.0230543
0.0369005
0.0407466
0.0347059
0.00864255
0.0124887
0.00633486
-0.0199095
-0.0311765
-0.0525113
-0.0637783
-0.0598642
-0.0558145
-0.0466742
-0.0623982
-0.0581448
-0.0589593
-0.0597285
-0.0404525
-0.0509276
-0.0512896
-0.0616063
-0.0818778
-0.0721267
-0.0623529
-0.0475792
-0.0527602
-0.0479186
-0.0430091
-0.0380543
-0.0480996
-0.0381448
-0.0182353
0.0466063
0.141425
0.291335
0.476357
0.686448
0.841538
0.871606
0.661584
0.286471
-0.0686652
-0.278824
-0.373869
-0.398824
-0.37371
-0.33371
-0.293733
-0.283846
-0.313982
-0.309118
-0.289253
-0.274434
-0.214548
-0.219729
-0.239955
-0.250249
-0.25052
-0.230747
-0.195882
-0.15095
-0.120996
-0.101131
-0.0912896
-0.0765385
-0.0716969
-0.0618326
-0.0520362
-0.0572625
-0.057353
-0.0723756
-0.0673077
-0.0673756
-0.0574887
-0.0576697
-0.0429412
-0.0480996
-0.0430543
-0.0480317
-0.0630317
-0.0630769
-0.0431448
-0.0382127
-0.0183711
-0.00850681
-0.0235973
-0.0185973
-0.0335747
-0.0484389
-0.0384389
-0.0335068
-0.0135973
0.00638008
0.00158371
0.00692308
0.0123303
0.0177602
0.0280769
0.0383937
0.0586652
0.0790045
0.0844118
0.0948643
0.110362
0.115747
0.146063
0.151312
0.166516
0.186719
0.206923
0.222217
0.227579
0.212919
0.218235
0.228394
0.223529
0.233643
0.243665
0.253643
0.238552
0.208507
0.193462
0.178439
0.158416
0.148303
0.148235
0.138213
0.123213
0.0732806
0.0582579
0.0532806
0.0382127
0.0330317
0.0228959
0.0128281
0.00789595
0.00298645
-0.00696829
-0.016923
-0.0169004
-0.0169004
-0.0168552
-0.00669679
-0.00119906
-0.00524883
-0.0186199
-0.0261991
-0.0278733
-0.0188688
-0.00468324
-0.00147055
0.00506791
0.0100453
-0.00588232
-0.0172172
-0.0237104
-0.00513572
-0.0114705
-0.00266963
0.00619914
0.00997741
0.0138462
0.0228281
0.0118779
0.0210634
0.020181
0.0242082
0.0132127
0.00726248
-0.00357462
-0.00425336
0.000248909
0.00988692
0.00952493
0.00920817
-0.00099545
-0.00117644
0.00368781
0.00375568
-0.0111538
-0.0160407
-0.026086
-0.0161765
-0.00628956
-0.00135745
0.00364255
-0.00624433
-0.0311086
-0.0209955
-0.0259955
-0.0161312
-0.016267
-0.0213348
-0.0163122
-0.0212217
-0.0160407
-0.0259502
-0.0258371
-0.0357919
-0.0208371
-0.0158145
-0.00072398
-0.00549772
-0.0251584
-0.0397738
-0.0444118
-0.0439819
-0.033552
-0.0330996
-0.0276244
-0.0370136
-0.0312896
-0.0355204
-0.0397285
-0.043914
-0.0180317
-0.011991
-0.0109502
-0.0248869
-0.0387783
-0.0474887
-0.0461765
-0.0348869
-0.0336652
-0.0224661
-0.0111991
-0.00999999
-0.0137104
-0.0124208
-0.0161538
-0.0350453
-0.029095
-0.02819
-0.0172851
-0.0114932
-0.0158145
-0.0252263
-0.0297059
-0.024276
-0.0141855
-0.0242308
-0.0141855
-0.00918552
-0.00909503
-0.0139819
-0.0288462
-0.0388009
-0.0238461
-0.0189819
-0.00914027
-0.0142081
-0.0142308
-0.0192308
-0.0291176
-0.033914
-0.0336652
-0.0234163
-0.0132579
-0.00816743
-0.0181222
-0.013009
-0.0177602
-0.0274661
-0.0371493
-0.0419457
-0.0317647
-0.0215611
-0.00131221
0.00882353
0.00402716
-0.00579186
-0.0205656
-0.0252489
-0.0249095
0.00538462
0.0157014
0.0160407
0.0114706
0.00183259
-0.00287329
-0.00273755
0.00223982
0.00205882
0.0216969
0.0208824
0.00941178
0.00705881
0.00380091
-0.0351131
-0.0489593
-0.0566516
-0.0374208
-0.0226244
-0.0159502
-0.013914
-0.0269231
-0.0351131
-0.0436199
-0.0323755
-0.0110407
0.00533938
0.00667423
0.0128054
-0.00126696
0.00454754
-0.00459273
0.00144799
0.00244345
0.00355206
0.00954756
0.00547515
-0.00366512
-0.0129185
-0.0173077
-0.0319457
-0.0217647
-0.0316289
-0.0265158
-0.0213122
-0.0160633
-0.0257918
-0.0306561
-0.0355656
-0.0305429
-0.0204977
-0.0304751
-0.0352488
-0.0299547
-0.0197058
-0.00959273
-0.029638
-0.0197511
-0.00993207
-0.0100452
-0.000113055
-0.00509045
0.00504529
-0.00481896
0.00520368
0.0201584
0.0400001
0.0447512
0.0395023
0.0242082
0.028982
0.0437331
0.0633937
0.0679186
0.0722399
0.0964933
0.110701
0.0847965
0.0788689
0.0529865
0.0370815
0.0211313
0.0349774
0.0486426
0.0573304
0.051086
0.0299095
0.0187331
0.0125114
-0.00377823
-0.0201583
-0.0365158
-0.0528506
-0.0441176
-0.0350905
-0.0209502
-0.0267194
-0.0573982
-0.0630995
-0.0637783
-0.0544118
-0.0599321
-0.0703394
-0.060543
-0.0405882
-0.0454751
-0.0303846
-0.0353394
-0.050362
-0.0453846
-0.0453846
-0.0402036
-0.0449321
-0.059638
-0.0543213
-0.0439819
-0.0186425
0.0167421
0.0571267
0.107557
0.208122
0.353688
0.539253
0.739751
0.890158
0.875385
0.605588
0.175747
0.0410634
-0.363597
-0.433281
-0.418054
-0.373009
-0.313145
-0.283394
-0.293529
-0.308529
-0.288394
-0.243167
-0.202986
-0.172873
-0.187783
-0.222783
-0.22276
-0.247624
-0.232466
-0.202285
-0.18224
-0.14233
-0.117466
-0.0825792
-0.0577375
-0.052828
-0.0479864
-0.0580995
-0.0682126
-0.0682805
-0.0484841
-0.033733
-0.0240045
-0.0342307
-0.0342986
-0.0543439
-0.0644344
-0.0545023
-0.0395701
-0.0197059
-0.0148869
-4.52548e-05
-0.00511312
-0.0151131
-0.0249774
-0.0398869
-0.0397737
-0.019819
-0.00484161
0.0152036
0.0153394
0.0204525
0.0305204
0.0254299
0.0352262
0.0497738
0.0687783
0.106991
0.12414
0.140453
0.151425
0.162783
0.155634
0.160385
0.166652
0.198552
0.230633
0.242602
0.234389
0.231041
0.227534
0.239005
0.250475
0.26181
0.252919
0.248756
0.244412
0.190136
0.171041
0.142036
0.127941
0.128597
0.11414
0.0945475
0.0648643
0.0500453
0.0150452
-9.04799e-05
-0.0251584
-0.0252941
-0.0252941
-0.0252941
-0.0303394
-0.0353167
-0.0452489
-0.055181
-0.060181
-0.0703394
-0.0854977
-0.0905882
-0.100543
-0.0953393
-0.104932
-0.114321
-0.113258
-0.121561
-0.104027
-0.080543
-0.0714253
-0.0723756
-0.0645701
-0.078733
-0.0685973
-0.060362
-0.0425339
-0.0196154
0.00843892
0.0217647
0.0052489
-0.00638007
-0.0231448
-0.0449774
-0.0317421
-0.0333937
-0.0249548
-0.0165611
-0.0183937
-0.0453167
-0.0524434
-0.0546832
-0.031923
-0.0141402
-0.0162443
-0.0282353
-0.0350452
-0.0417194
-0.038371
-0.0449774
-0.0416289
-0.0482805
-0.0299321
-0.026448
-0.0277149
-0.0338462
-0.0599321
-0.0758824
-0.0718099
-0.0726018
-0.0631674
-0.0385068
-0.0486878
-0.0437557
-0.0537104
-0.0685973
-0.0885068
-0.0834163
-0.0783937
-0.0533258
-0.0481901
-0.0479186
-0.0474887
-0.0370815
-0.0316516
-0.0111991
0.0192081
0.0896606
0.230158
0.410747
0.651561
0.862489
0.953462
0.844525
0.510588
0.0665837
-0.282398
-0.436312
-0.460023
-0.418529
-0.366968
-0.340543
-0.324163
-0.327783
-0.33138
-0.314864
-0.278235
-0.231652
-0.205091
-0.208575
-0.237398
-0.241357
-0.225407
-0.199548
-0.178688
-0.147873
-0.117217
-0.09181
-0.0614932
-0.0213348
-0.0162217
-0.00615385
-0.0209728
-0.025724
-0.0304299
-0.0401131
-0.049819
-0.0445249
-0.0343665
-0.0143213
-0.0093665
-0.0145022
-0.019638
-0.0197737
-0.0247964
-0.0198416
-0.0200452
-0.0152715
-0.0155656
-0.0257466
-0.0158145
-0.0158823
-0.0109728
-0.00606331
0.013733
0.0286199
0.0485294
0.0435521
0.0586878
0.0589593
0.0542987
0.0695249
0.0846381
0.119661
0.149615
0.164615
0.174661
0.169706
0.184819
0.204864
0.224706
0.264367
0.293801
0.308258
0.321946
0.319887
0.311946
0.303303
0.299819
0.29276
0.292738
0.284253
0.286516
0.278801
0.240792
0.222466
0.203824
0.174955
0.151086
0.112308
0.0734615
0.0393891
0.0252715
0.00613123
-0.00289592
-0.0219231
-0.0260181
-0.0352941
-0.0345702
-0.0439819
-0.0384163
-0.0529864
-0.0676923
-0.0625113
-0.0623304
-0.0571041
-0.0517195
-0.0511991
-0.045362
-0.043914
-0.0516742
-0.0533484
-0.0391403
-0.0395701
-0.0204525
-0.00782804
-0.00714931
-0.0180543
-0.0345927
-0.0512896
-0.0578507
-0.0392308
-0.035543
-0.0417873
-0.038077
-0.0543665
-0.070543
-0.0716064
-0.0725566
-0.0684389
-0.0493892
-0.0405204
-0.0517647
-0.0480091
-0.0491629
-0.0552715
-0.0413122
-0.0173982
-0.0134389
-0.0144344
-0.0202489
-0.0360408
-0.0618552
-0.0778507
-0.0890046
-0.100317
-0.101674
-0.113032
-0.0943892
-0.0757241
-0.0669231
-0.0631449
-0.0694118
-0.0806562
-0.101923
-0.10819
-0.0842535
-0.0801584
-0.0759503
-0.0866064
-0.0922172
-0.0877602
-0.0882806
-0.0837331
-0.0739367
-0.0839367
-0.078801
-0.0834616
-0.0830317
-0.0823077
-0.0814254
-0.0705883
-0.0547512
-0.0488462
-0.0528733
-0.0467421
-0.0555204
-0.0442082
-0.0479412
-0.0316743
-0.010362
0.0260407
0.0776018
0.0993665
0.291244
0.458213
0.645158
0.797036
0.758846
0.450656
-0.00251138
-0.335634
-0.503688
-0.486697
-0.414706
-0.342941
-0.276312
-0.249751
-0.263326
-0.277014
-0.26086
-0.199887
-0.164118
-0.168484
-0.188054
-0.19767
-0.197421
-0.177217
-0.172127
-0.136991
-0.106946
-0.0719231
-0.0419683
-0.0170362
-0.00703624
-0.0120136
-0.0269457
-0.0267647
-0.0265159
-0.0212218
-0.0159502
-0.0157693
-0.000678748
0.00943437
-0.000565618
-0.00552039
-0.0204299
-0.0203394
-0.0352715
-0.0253168
-0.0153846
-0.00542989
0.00468324
0.00486425
0.0100226
0.00515835
-0.00481904
0.00504521
0.0248868
0.0347511
0.044638
0.0546153
0.0747058
0.0897963
0.0949321
0.105
0.119955
0.159955
0.175045
0.195158
0.195339
0.19552
0.210566
0.235407
0.265113
0.294683
0.294072
0.283009
0.286176
0.28862
0.275339
0.281719
0.283529
0.271787
0.27681
0.273054
0.23491
0.201855
0.183484
0.154774
0.135724
0.131538
0.127466
0.118462
0.0695023
0.0453846
0.0310181
0.00656106
-0.0178281
-0.0671268
-0.101335
-0.095543
-0.0797964
-0.0791629
-0.0586652
-0.0633259
-0.0681222
-0.0780544
-0.0729413
-0.0578281
-0.0476471
-0.0473304
-0.0418553
-0.0561991
-0.0654978
-0.0689367
-0.0616969
-0.0485974
-0.0348191
-0.0312444
-0.038982
-0.0487557
-0.0750001
-0.0870815
-0.099163
-0.0909729
-0.082534
-0.0887331
-0.0898191
-0.0909503
-0.097172
-0.0984164
-0.0894797
-0.0754752
-0.0515386
-0.0526924
-0.0438689
-0.0400227
-0.0260634
-0.037172
-0.0283032
-0.019457
-0.020543
-0.0315385
-0.042353
-0.0481222
-0.0539819
-0.0750453
-0.0913122
-0.0976697
-0.0940498
-0.0854073
-0.0717647
-0.0680317
-0.0492534
-0.0454978
-0.0467874
-0.0481675
-0.0545249
-0.0458824
-0.056991
-0.0678733
-0.0835973
-0.0942308
-0.0948416
-0.085362
-0.0758598
-0.0562896
-0.0516516
-0.05681
-0.0567195
-0.0565611
-0.0713801
-0.081086
-0.0857466
-0.0702489
-0.049638
-0.0439367
-0.0380543
-0.0371041
-0.0510634
-0.0550679
-0.0391403
-0.018077
-0.00190046
0.0194117
0.0508597
0.15233
0.313801
0.495272
0.67672
0.763077
0.674502
0.350996
-0.0475565
-0.336063
-0.47457
-0.46819
-0.391968
-0.31086
-0.244955
-0.219095
-0.238235
-0.252308
-0.25638
-0.210747
-0.165204
-0.139887
-0.159683
-0.179615
-0.199887
-0.200339
-0.180792
-0.141131
-0.106403
-0.076561
-0.0416968
-0.0218325
-0.0220135
-0.0272398
-0.0273755
-0.0374434
-0.037466
-0.0274208
-0.0174661
-0.0175792
-0.00276014
-0.00794111
-0.00805423
-0.00307688
-0.023009
-0.0279864
-0.0380995
-0.0233936
-0.00873299
0.000927642
0.0156788
0.000497758
0.000294134
-0.00495473
-0.0002262
0.0194118
0.0390272
0.0587104
0.0685068
0.0684616
0.0634616
0.0585068
0.0535521
0.0735747
0.113529
0.148484
0.168507
0.178597
0.16371
0.163733
0.17862
0.208394
0.252896
0.272195
0.281176
0.279593
0.277285
0.269208
0.265633
0.257308
0.260181
0.264864
0.260113
0.247014
0.204072
0.165837
0.142195
0.133258
0.12905
0.114864
0.105814
0.0818326
0.0778281
0.0536652
0.00932127
0.0049095
0.0104751
0.00604072
0.011629
-0.0177828
-0.0321719
-0.0365158
-0.0359955
-0.0356335
-0.0354299
-0.0254525
-0.0104978
-0.0255204
-0.0253846
-0.0251132
-0.0247286
-0.0292308
-0.0383711
-0.0318326
-0.0194797
-0.00631225
-0.00773758
-0.0145249
-0.0127602
-0.0178055
-0.0242082
-0.0412896
-0.0433711
-0.0402037
-0.0266969
-0.0378733
-0.0439141
-0.065
-0.0761991
-0.0625114
-0.0686878
-0.0346607
-0.0355204
-0.0315159
-0.0076471
-0.00384615
-9.05097e-05
-0.0113575
-0.0275113
-0.0335973
-0.0446154
-0.0504977
-0.0512896
-0.0370136
-0.0428281
-0.0488009
-0.0600226
-0.0713348
-0.0676697
-0.0639593
-0.0552036
-0.0513122
-0.0574434
-0.0686878
-0.0899548
-0.0913348
-0.0726923
-0.0590497
-0.0602262
-0.0712669
-0.0821041
-0.0878506
-0.0886199
-0.0793439
-0.0749321
-0.0604298
-0.0557918
-0.0609502
-0.070905
-0.0807239
-0.0904751
-0.0902715
-0.0851131
-0.0649547
-0.0596154
-0.0490045
-0.05319
-0.067285
-0.0813801
-0.0705882
-0.0448416
-0.0240045
0.016991
0.0483032
0.114751
0.246267
0.41776
0.604208
0.720543
0.686855
0.428168
0.029525
-0.0940045
-0.462557
-0.486131
-0.429909
-0.348846
-0.297964
-0.247149
-0.25138
-0.270656
-0.274932
-0.249321
-0.208733
-0.17328
-0.158145
-0.152964
-0.167783
-0.182715
-0.18767
-0.177738
-0.167918
-0.133122
-0.0933258
-0.0585067
-0.0236425
-0.0236198
-0.013552
-0.028552
-0.0435972
-0.0485746
-0.0436199
-0.0236198
-0.0137103
-0.0138235
-0.0138687
-0.0188235
-0.0287556
-0.0337103
-0.033733
-0.0238461
-0.013914
-0.00900447
0.0109276
0.0159276
0.0110182
0.00601815
-0.00409497
0.00563353
0.0253394
0.0401132
0.039887
0.0399096
0.0499096
0.0599774
0.0551132
0.0652263
0.0902942
0.105362
0.125339
0.140272
0.145158
0.145
0.129706
0.144367
0.178891
0.223213
0.242421
0.255837
0.253575
0.240656
0.222308
0.219186
0.242127
0.251606
0.257421
0.24905
0.240837
0.217489
0.203869
0.169932
0.165837
0.156674
0.147579
0.113529
0.099276
0.0898642
0.0654298
0.0410181
0.0216289
0.00719453
0.0126923
0.0181674
0.0134841
-0.0062896
-0.0261539
-0.0360634
-0.036086
-0.0261991
-0.0163348
-0.00642537
-0.0113801
-0.0162444
-0.0409729
-0.0504977
-0.0547059
-0.0483484
-0.0363349
-0.0134615
-0.00506788
-0.00676471
-0.00959279
-0.0292308
-0.0294796
-0.0414932
-0.0437104
-0.0506787
-0.0372624
-0.033552
-0.0296832
-0.0358145
-0.0470814
-0.0484163
-0.0497059
-0.0458144
-0.0218778
-0.0378959
-0.0338914
-0.0149321
-0.00608598
-0.0123756
-0.00373305
-0.00518103
-0.00651585
-0.0127375
-0.0238235
-0.0497964
-0.045905
-0.0470362
-0.0383258
-0.0547511
-0.0412217
-0.0576697
-0.0489819
-0.0402263
-0.046448
-0.0576923
-0.0688914
-0.0751584
-0.0613575
-0.0474434
-0.0633937
-0.0741177
-0.0797059
-0.0900905
-0.0954072
-0.0856561
-0.065905
-0.0511312
-0.056267
-0.0561991
-0.0610181
-0.0808371
-0.0756561
-0.0854298
-0.0751584
-0.0648869
-0.0495475
-0.0590271
-0.0534841
-0.0477375
-0.0469457
-0.0411538
-0.0103167
0.0154299
0.0412217
0.082172
0.0983711
0.264615
0.420973
0.572308
0.678552
0.634661
0.395769
0.0470136
-0.266629
-0.445113
-0.45862
-0.412149
-0.350837
-0.289593
-0.263529
-0.252511
-0.266584
-0.265724
-0.214955
-0.164299
-0.153733
-0.163394
-0.178235
-0.17819
-0.173213
-0.168213
-0.12819
-0.0881447
-0.0631221
-0.0432126
-0.0233484
-0.018552
-0.0286651
-0.0286877
-0.0335972
-0.0334841
-0.0235068
-0.0386199
-0.043914
-0.0392307
-0.0145701
-0.0197285
-0.0196606
-0.0345475
-0.0445475
-0.044638
-0.034819
-0.0150226
0.00475113
0.00454752
-0.000678718
-0.0157918
-0.000927597
-0.00601807
0.00389144
0.0137104
0.0284616
0.0282353
0.0530543
0.0580317
0.0579638
0.0528959
0.0628507
0.0878054
0.112692
0.142624
0.152624
0.167715
0.172805
0.182647
0.212195
0.226516
0.245633
0.259367
0.262443
0.259842
0.246516
0.237941
0.229955
0.233348
0.218371
0.224525
0.206086
0.182738
0.164231
0.125385
0.10129
0.0771267
0.0678959
0.048733
0.0446154
0.0303168
0.0208371
-0.00377828
-0.0133937
-0.0129186
-0.0124435
-0.0118778
-0.0113349
-0.0157919
-0.0204073
-0.0351131
-0.0250679
-0.0501358
-0.0452489
-0.0404299
-0.0505883
-0.045543
-0.040362
-0.0400679
-0.0495476
-0.0389367
-0.0476697
-0.0407693
-0.0281901
-0.0101132
-0.00728513
-0.0105657
-0.0253847
-0.0565612
-0.0635974
-0.0706788
-0.062534
-0.0642082
-0.0606335
-0.0569457
-0.0482579
-0.0446832
-0.0611312
-0.0524208
-0.043552
-0.019638
-0.00583707
-0.00210404
-0.00341627
-0.00479639
-0.00622171
-0.0175565
-0.0338235
-0.0301131
-0.0313348
-0.0175565
-0.0287556
-0.0399774
-0.0562443
-0.0675565
-0.0439366
-0.0504072
-0.0219004
-0.0234389
-0.0149547
-0.0462669
-0.0775113
-0.0836877
-0.0648642
-0.0510633
-0.0521719
-0.0481674
-0.0540045
-0.059638
-0.0601583
-0.0705656
-0.0609728
-0.0663122
-0.0716516
-0.0619231
-0.0469909
-0.0519004
-0.056742
-0.0664253
-0.0711538
-0.0659049
-0.0507692
-0.0405429
-0.0301357
-0.0294796
-0.0435973
-0.0626244
-0.0665837
-0.0206787
0.0202036
0.0761539
0.122195
0.218439
0.349819
0.516199
0.662557
0.728778
0.609864
0.30095
-0.0679638
-0.326765
-0.42052
-0.424366
-0.373371
-0.312579
-0.267014
-0.256538
-0.251131
-0.270747
-0.270452
-0.210136
-0.154932
-0.129728
-0.129706
-0.154819
-0.174932
-0.190023
-0.195068
-0.185
-0.139932
-0.104842
-0.0598642
-0.0298642
-0.015
-0.000158325
-0.00029406
-0.0154072
-0.0204298
-0.0204072
-0.0304524
-0.0355882
-0.0157013
-0.000859678
-0.00101805
-0.00608593
0.00395933
0.00902718
-0.000904918
-0.0159276
-0.00613119
-0.0113574
-0.016561
0.00330319
0.00816743
0.0080317
0.0179186
0.0278055
0.0327376
0.0476245
0.0625566
0.0626471
0.0778281
0.0780769
0.0883258
0.108552
0.123756
0.143937
0.169118
0.199208
0.204299
0.224389
0.224548
0.219638
0.229706
0.234774
0.249842
0.28
0.270113
0.275362
0.275611
0.255905
0.236018
0.220882
0.205769
0.200747
0.18086
0.166041
0.151312
0.126584
0.101742
0.0718552
0.0568779
0.0569457
0.0520136
0.0471041
0.0122625
-0.0075113
-0.0223303
-0.0321719
-0.0170814
-0.0119909
0.00809957
-0.00178732
-0.0165385
-0.0462217
-0.065905
-0.0756787
-0.0755882
-0.0405656
-0.0253167
-0.00979638
-0.0139593
-0.0379638
-0.0516063
-0.0446606
-0.0369683
-0.0136651
0.0149321
0.0129865
0.0197286
-0.0201357
-0.0261991
-0.0277375
-0.0193665
0.00416295
0.0129865
0.00703622
-0.00384614
-0.009638
-0.0104977
-0.0213122
-0.0118778
-0.0222624
-0.00755654
0.0121494
0.0117195
0.00624435
-0.00423075
-0.029819
-0.0354525
-0.0458597
-0.036086
-0.0311086
-0.0259502
-0.0157692
-0.015543
-0.0302941
-0.0451131
-0.0499774
-0.0349095
-0.0248869
-0.0198869
-0.0197511
-0.0144797
-0.0241856
-0.0338462
-0.0385068
-0.0432353
-0.0380996
-0.0280543
-0.0278733
-0.0376697
-0.0424435
-0.0420815
-0.0367195
-0.0364028
-0.0261086
-0.0307919
-0.0354525
-0.0349774
-0.0593892
-0.0537783
-0.0530996
-0.0474661
-0.0418552
-0.0361765
-0.0304525
-0.0395475
-0.0335294
-0.027353
-0.0261539
-0.0249548
-0.0188235
-0.0226697
-0.0364706
-0.0451358
-0.0386878
-0.0321041
-0.0305883
-0.0290724
-0.0275792
-0.0162444
0.01
0.00115384
0.00226244
-0.0116063
-0.025543
-0.0395475
-0.0435973
-0.022828
-0.0120814
-0.00144796
-0.000904977
-0.0052941
-0.0147964
-0.0193665
-0.0191176
-0.0140045
-0.0138914
-0.00875565
-0.0134842
-0.00823529
0.00210407
-0.0176018
-0.0223982
-0.0223529
-0.0173303
-0.0073303
0.00264706
-0.0022172
-0.0220136
-0.0367421
-0.026448
-0.0112444
-0.0111538
-0.0111086
-0.00108597
-0.000950232
-0.000701368
-0.0204299
-0.035181
-0.0300905
-0.0200226
-0.00493211
0.0102715
0.00552036
0.000814468
-0.00389141
-0.0186425
-0.0234389
-0.0332579
-0.0280769
-0.0128959
-0.00773756
-0.00748868
-0.00210406
-0.0117647
-0.0264932
-0.00633486
0.0137104
0.00877827
0.00382352
0.0039593
-0.00581446
0.00443441
0.00972852
0.00490952
0.00497739
0.00995474
0.0249321
0.0249547
0.025
0.0151131
0.00020358
-0.0046833
-0.019638
-0.00959279
0.0104525
0.0304525
0.0355203
0.0156335
0.00572397
-0.00425343
-0.0142987
-0.00927603
0.000859737
0.0159276
0.0209955
0.0211086
0.00617647
-0.00366516
-0.00864255
-0.00866514
0.00128962
0.0162217
0.0211991
0.0262444
0.00635746
0.00642534
0.0014706
0.0014706
0.0215158
0.0365611
0.0266516
0.0267647
0.00185522
-0.0081674
-0.00819002
-0.00330316
0.00158374
0.00647064
0.0213801
0.0213801
0.0265837
0.0217195
0.01181
0.00676472
0.00649324
0.00117651
0.0158598
-0.00432125
-0.00950222
-0.00470586
-0.0199773
-0.000361934
0.00914033
0.01362
0.0231675
0.00773762
-0.00764701
-0.0229411
-0.0133031
-0.0136425
-0.0139592
-0.00936648
-0.00472847
-0.0200452
-0.0253393
-0.0204524
-0.0205429
-0.0206787
-0.0209049
-0.0312443
-0.0365384
-0.0267421
-0.0118552
-0.00192307
-0.0068552
-0.0068552
-0.0168778
-0.00692308
-0.0120362
-0.0121267
-0.0171719
-0.0320815
-0.0169683
-0.0168325
-0.0217421
-0.0217873
-0.0169231
-0.0120588
-0.0222172
-0.0123303
-0.0173303
-0.0223303
-0.0323982
-0.0224434
-0.0125566
0.00226244
0.00214933
-0.00789592
-0.0131448
-0.0236425
-0.0395475
-0.0412217
-0.0438009
-0.0223077
-0.0165159
-0.0158145
-0.0239141
-0.020181
-0.0147285
-0.0233485
-0.0166969
-0.0152037
-0.00891407
-0.0178281
-0.0217873
-0.0156561
-0.0243439
-0.0228733
-0.016629
-0.0106561
4.52548e-05
-0.0143439
-0.0337104
-0.0179864
-0.00703618
-0.021086
-0.015181
-0.0345249
-0.0290271
-0.013733
-0.00852938
0.00162898
-0.00316741
-0.0130091
-0.022828
-0.0228733
-0.0129185
0.00208142
-0.00787333
-0.00771493
-0.0125113
-0.0223756
-0.0322851
-0.0173303
-0.0124887
0.0123529
0.0122624
0.0122172
0.00721718
-0.00273758
-0.022715
-0.0177376
-0.00776021
0.00719455
0.0421041
0.0370136
0.0319004
0.0219004
0.0317647
0.0465837
0.0613122
0.080905
0.0954977
0.0951357
0.0797737
0.0794796
0.0691176
0.0536425
0.0630543
0.0624208
0.0667195
0.0660181
0.050181
0.0393665
0.0384615
0.00753392
0.0115384
0.0153846
0.0141855
0.0229186
0.0215837
0.0152262
-0.00610861
-0.017353
-0.0385973
-0.0248643
-0.021086
-0.0373077
-0.0384616
-0.0396381
-0.0407467
-0.0566969
-0.0476245
-0.0584164
-0.0542082
-0.0299096
-0.0256335
-0.0311992
-0.0366517
-0.0421041
-0.0524888
-0.0478734
-0.0333032
-0.0337105
-0.0290272
-0.0292308
-0.0242987
-0.0193214
0.0206108
0.0705882
0.160543
0.32043
0.530294
0.740181
0.890271
0.910453
0.650634
0.260769
-0.11914
-0.324118
-0.394208
-0.374276
-0.334299
-0.304231
-0.284299
-0.284502
-0.304819
-0.335249
-0.305656
-0.25595
-0.206177
-0.196267
-0.196403
-0.206629
-0.24181
-0.236946
-0.227217
-0.187534
-0.162986
-0.123462
-0.103869
-0.0842308
-0.0795249
-0.064819
-0.0651584
-0.035543
-0.0359276
-0.0512443
-0.0614706
-0.0666968
-0.0619005
-0.0571041
-0.0474208
-0.0427828
-0.0280769
-0.0283258
-0.0384389
-0.0435294
-0.0486199
-0.0438009
-0.0391403
-0.0245702
-0.0299321
-0.0352489
-0.0304525
-0.0305204
-0.0306109
-0.0407014
-0.0308824
-0.0260181
-0.00113124
0.0138461
0.0337556
0.0335746
0.0380317
0.0316968
0.0293891
0.0360634
0.041991
0.0582127
0.0708824
0.0707014
0.107149
0.109186
0.116086
0.117466
0.138326
0.17405
0.18491
0.200973
0.207104
0.208032
0.213733
0.209186
0.21957
0.219955
0.21043
0.20095
0.196448
0.196923
0.182285
0.142466
0.122353
0.107127
0.106833
0.0815611
0.0863801
0.056267
0.0361087
0.0259729
0.0208145
0.0155883
0.0203168
0.00506794
-0.00515831
-0.0203619
-0.0355203
-0.0456787
-0.0459049
-0.0609728
-0.0657918
-0.0651809
-0.0588235
-0.0615384
-0.0783257
-0.0844343
-0.0755429
-0.0678733
-0.0519683
-0.032828
-0.0197058
-0.0218778
-0.0340271
-0.051018
-0.0329411
-0.0098642
0.0181222
0.030905
0.0234842
0.00117651
-0.0109276
-0.0328506
-0.0397737
-0.0418778
-0.0391629
-0.0416742
-0.0291855
-0.0166516
-0.00884615
-0.000927605
-0.00287332
-0.00972854
-0.0165385
-0.0233032
-0.0249322
-0.0264932
-0.0277602
-0.0338462
-0.0399548
-0.0510408
-0.0571267
-0.0630543
-0.0488009
-0.0493892
-0.0498417
-0.055181
-0.0604299
-0.0656788
-0.0658824
-0.0511539
-0.0264027
-0.0266064
-0.0366064
-0.0365385
-0.0464706
-0.0413575
-0.0413349
-0.0463349
-0.0363575
-0.0362896
-0.0261765
-0.0309729
0.00434387
0.0397285
0.120045
0.280317
0.495543
0.710769
0.861109
0.806561
0.487195
0.017828
-0.341584
-0.485882
-0.465181
-0.349457
-0.263665
-0.227715
-0.251629
-0.295453
-0.299186
-0.252873
-0.206629
-0.170385
-0.16414
-0.182828
-0.186539
-0.190249
-0.199072
-0.192986
-0.166968
-0.126131
-0.0754751
-0.0398869
-0.0342987
-0.0336199
-0.0280543
-0.0374661
-0.031991
-0.041629
-0.0413801
-0.0361087
-0.0208145
-0.0104525
-0.0150679
-0.0147512
-0.0245928
-0.0195928
0.00027144
0.00515832
6.78301e-05
-0.00504529
-0.0100679
-0.00511315
-0.000203647
-0.000452511
0.0192081
0.0288914
0.0285973
0.0383937
0.0583258
0.0533484
0.0683484
0.0732805
0.0881222
0.108077
0.12819
0.153439
0.168756
0.174072
0.179299
0.189434
0.199457
0.239367
0.269276
0.284186
0.289095
0.288982
0.268778
0.268348
0.277557
0.276018
0.28362
0.275452
0.2569
0.239005
0.202624
0.162941
0.154412
0.14129
0.138122
0.109864
0.0762217
0.0525339
0.0287557
0.0199774
0.00124437
-0.00757917
-0.0216516
-0.0109728
-0.0103393
-0.0145249
-0.043552
-0.0625113
-0.0664706
-0.0706335
-0.0499095
-0.0443665
-0.0489819
-0.0586651
-0.0633936
-0.0581221
-0.0678733
-0.0625113
-0.0469683
-0.0310633
-0.024457
-0.0219004
-0.0333484
-0.0440498
-0.0600452
-0.0425113
-0.0321719
-0.0235294
-0.0254977
-0.0273303
-0.0435973
-0.0594344
-0.0551131
-0.0659502
-0.0720814
-0.0783031
-0.0643212
-0.0601357
-0.0657918
-0.0714479
-0.0672172
-0.0779864
-0.0638461
-0.0498416
-0.0358823
-0.0118099
-0.0127149
-0.0183937
-0.0339366
-0.0545475
-0.0552036
-0.0559954
-0.0619457
-0.0579412
-0.0440045
-0.0551131
-0.0662217
-0.0773303
-0.0983936
-0.0945475
-0.0757466
-0.0570135
-0.0382353
-0.0442081
-0.0650452
-0.0658597
-0.0866063
-0.077285
-0.0729411
-0.0584389
-0.0488461
-0.0490271
-0.0490724
-0.0539819
-0.0637783
-0.0684842
-0.0631901
-0.0577828
-0.0523303
-0.0567873
-0.066086
-0.0652489
-0.0643439
-0.0683258
-0.0672398
-0.0561538
-0.0499095
-0.0285973
-0.0271041
-0.0205204
-0.0188461
0.00280546
0.0395023
0.101041
0.192557
0.359095
0.545747
0.712444
0.794072
0.650634
0.317082
-0.0566742
-0.315656
-0.409728
-0.408846
-0.392919
-0.312127
-0.286493
-0.265973
-0.265588
-0.280339
-0.265204
-0.215113
-0.160023
-0.134842
-0.149638
-0.18448
-0.20948
-0.209638
-0.174819
-0.144977
-0.104977
-0.0749321
-0.0498416
-0.0398642
-0.0299774
-0.0300905
-0.0203167
-0.0255429
-0.025724
-0.0207466
-0.0156787
-0.0206108
-0.0356787
-0.0258823
-0.0211538
-0.00635742
0.00850682
-0.00158368
-0.0116516
-0.0217195
-0.03181
-0.0319909
-0.0222172
-0.00246605
0.0123077
0.0120362
0.0118326
0.0116968
0.0165158
0.0212217
0.0158597
0.0304299
0.050181
0.0650453
0.0650227
0.100136
0.100181
0.105158
0.125113
0.13491
0.169751
0.194638
0.20957
0.214593
0.224683
0.229683
0.244525
0.244253
0.258982
0.268756
0.273643
0.268643
0.233688
0.208688
0.198597
0.178529
0.158371
0.158235
0.128145
0.108122
0.0781901
0.0582128
0.0282128
0.0131223
0.0130091
0.00791864
-0.00219449
-0.00723974
-0.012285
-0.0273302
-0.0373981
-0.027466
-0.0375791
-0.0477148
-0.0428279
-0.0679411
-0.0730316
-0.073009
-0.0629637
-0.0679185
-0.0578958
-0.067828
-0.0525339
-0.0469682
-0.0409501
-0.0641402
-0.0614479
-0.0480089
-0.0442533
-0.031199
-0.0196605
-0.00981891
-0.0011085
-0.00780533
-0.0245248
-0.026199
-0.0275339
-0.0287782
-0.0249547
-0.00610851
-0.00230761
-0.00339358
-0.0191628
-0.0296606
-0.0349999
-0.0304298
-0.0261538
-0.0120135
-0.0129185
-0.0235972
-0.039095
-0.0443664
-0.0595248
-0.0446153
-0.0297284
-0.0247737
-0.00979632
-0.00472845
0.000384673
-0.0195248
-0.034457
-0.0343891
-0.0194117
-0.00447959
-0.00950222
-0.00943436
-0.0142081
-0.013914
-0.0186878
-0.0185746
-0.0284841
-0.0234841
-0.00848413
-0.0134615
-0.0233484
-0.0180995
-0.017828
-0.0275113
-0.0222624
-0.0020588
0.0181675
0.0233032
-0.00142533
-0.0109954
-0.0204977
-0.0249547
-0.00929862
0.00133488
-0.00805427
0.00766972
-0.00156105
-0.0106335
-0.0245249
-0.0383936
-0.037285
-0.0261312
-2.26051e-05
0.016267
-0.00242081
-0.00601809
-0.00957012
-0.0131448
-0.00176468
0.00441177
0.00542986
0.0014706
0.00239819
0.00821266
0.00404976
0.00479637
-0.0045249
0.0060181
0.011448
0.0267195
0.0219231
0.0121041
0.0223077
0.0124661
0.0176245
0.0127602
0.00782809
0.00780545
0.017896
0.0179412
0.0129412
0.0229864
0.0228959
0.0177375
0.0125339
0.0173755
0.0222172
0.0320814
0.0169683
0.0169683
0.00699089
-0.00296389
-0.0130318
-0.0131901
-0.00325799
0.00662889
0.00658365
0.00660628
-0.00323536
-0.00805435
-0.00294127
0.00203614
0.00696826
0.0119456
0.0169456
0.0120135
0.00717187
-0.00264715
-0.0225567
-0.0275114
-0.0375341
-0.0325567
-0.00253406
0.00255646
0.0127827
-0.00196843
-0.0118327
-0.0218327
-0.0169006
-0.0070589
0.00787321
0.00289585
-0.00201367
-0.0118327
-0.0265838
-0.0213123
-0.0111992
-0.00624441
0.0086877
0.00368771
0.00382346
-0.0109503
-0.0307014
-0.0304752
-0.0253168
-0.0102263
-0.0151811
-0.00513582
-0.00502272
0.00013566
0.000271425
-0.0146607
-0.0195702
-0.0295023
-0.0144797
0.000588194
0.000746593
0.0160181
0.00138009
-0.0133484
-0.0131222
-0.0230317
-0.0130317
-0.00791854
0.00233032
-0.00244342
-0.00219455
-0.00201356
-0.0169683
-0.00701354
0.00287335
0.00276022
0.0177602
-0.00710402
-0.0118552
-0.0166515
-0.0164027
-0.00628954
-0.00128955
0.0087557
0.0188009
0.00398192
0.00916295
0.0143439
0.00950229
-0.000429824
-0.0053167
-0.00527145
-0.000203565
0.0049548
0.00520366
0.0104526
0.000656188
0.000837177
-0.00409497
-0.00416282
-0.00427596
0.00556566
-0.00959271
-0.00966059
-0.00966059
-0.0147058
-0.00975108
9.05395e-05
0.00988692
0.00966066
0.00447968
0.00941181
-0.00552031
-0.0154525
-0.0154977
-0.0156108
-0.0157918
0.00400457
-0.00619906
0.00366518
-0.00135744
-0.00638004
-0.0264479
-0.0215158
-0.0115611
0.00352943
0.0136878
0.00391404
-0.000791818
-0.0104751
-0.010181
-0.00997739
0.0101584
0.00515838
0.0101584
0.00513576
0.000135794
-0.00968324
-0.0244796
-0.0292307
-0.0141402
0.000905007
0.0108598
0.0158145
0.0108824
0.00601813
-0.00386874
-0.00884612
-0.0189592
-0.019276
-0.00468323
0.0148417
0.0191403
0.0179864
0.00101812
-0.0268326
-0.0356108
-0.0399321
-0.0284841
-0.0216289
-0.0117647
-0.0207466
-0.0291855
-0.0225113
-0.0209276
-0.014457
-0.0132805
-0.00721717
-0.00610857
-0.00986421
-0.00861986
-0.0125565
-0.0265837
-0.0308823
-0.0302036
-0.00936645
0.00647065
-0.00260174
-0.0216742
-0.0258597
-0.0152262
-0.00979635
0.0104978
0.0156109
0.015724
0.0158824
0.001086
-0.00361988
-0.0133936
-0.0231448
-0.0380317
-0.0130316
0.0070136
0.00712673
0.012353
-0.0173755
-0.0221719
-0.0220135
-0.0119004
0.00309959
-0.00690041
-0.0018778
0.00319007
-0.011742
-0.0166742
-0.0216289
-0.021629
-0.00674208
0.00814478
0.0429864
0.0478507
0.0527149
0.0526244
0.0423982
0.0270814
0.0316289
0.041086
0.0655882
0.0701357
0.0697059
0.0642534
0.0436199
0.0228959
0.00696832
0.030905
0.0347511
0.0385973
0.0324434
0.0314027
0.0252715
0.00911759
0.007828
0.0164479
0.00499995
-0.0064254
-0.0327829
-0.0440951
-0.0553394
-0.0665385
-0.067715
-0.0688915
-0.055068
-0.0511313
-0.0420137
-0.0477603
-0.0533485
-0.0538463
-0.0643214
-0.0648644
-0.0654299
-0.0458824
-0.0461765
-0.0362897
-0.0313123
-0.046267
-0.0462218
-0.0462444
-0.0312896
-0.0112896
0.0186425
0.0436878
0.0688462
0.12414
0.239525
0.414796
0.610023
0.800068
0.900113
0.730158
0.645226
-0.00463799
-0.264525
-0.37457
-0.399729
-0.374932
-0.350136
-0.300272
-0.280385
-0.300407
-0.315407
-0.300453
-0.260611
-0.225837
-0.181176
-0.191516
-0.226787
-0.236946
-0.246991
-0.242172
-0.207534
-0.172919
-0.128235
-0.0984842
-0.0736426
-0.063733
-0.0638235
-0.0738688
-0.0789593
-0.0891176
-0.0993212
-0.0745475
-0.049819
-0.0499095
-0.0599095
-0.0749095
-0.0749095
-0.0750453
-0.0602262
-0.0454299
-0.0255656
-0.0356561
-0.045724
-0.0557466
-0.0507466
-0.045905
-0.0411312
-0.0264027
-0.0116968
-0.0118778
-0.00703618
-0.0120814
-0.0123529
-0.0130995
0.000407264
0.0178281
0.0442308
0.055181
0.0466516
0.044819
0.0499321
0.0564027
0.0934163
0.120249
0.151674
0.172919
0.194027
0.195181
0.196561
0.192919
0.204095
0.219977
0.245588
0.261267
0.257059
0.257919
0.253801
0.259434
0.25491
0.235158
0.225158
0.215023
0.214842
0.189661
0.169525
0.134434
0.104299
0.0790724
0.0687783
0.0734389
0.0631448
0.0328733
0.0127149
-0.0123982
-0.0224887
-0.032534
-0.0377602
-0.0280091
-0.0332127
-0.0483711
-0.0433711
-0.0681901
-0.0779865
-0.0877602
-0.102353
-0.0764254
-0.0797059
-0.0621041
-0.0636199
-0.0596833
-0.0465611
-0.0488914
-0.0342534
-0.010905
0.00183259
0.0144344
0.0121946
0.00011313
-0.00680996
-0.023733
-0.0309276
-0.0283032
-0.00570138
0.00199093
0.00977375
0.00271492
-0.0143665
-0.0216064
-0.0339367
-0.0163801
0.00113122
-0.00122172
-0.00839367
-0.0203167
-0.0219683
-0.0334615
-0.0347964
-0.0460181
-0.052172
-0.0432579
-0.0443665
-0.0503167
-0.0560407
-0.0715837
-0.0720362
-0.0724887
-0.0680317
-0.0685294
-0.0639367
-0.0591855
-0.0642534
-0.0592308
-0.0742082
-0.079276
-0.0793892
-0.059457
-0.049457
-0.0444344
-0.0393213
-0.0491403
-0.0389819
-0.0288462
0.026267
0.136403
0.301516
0.531674
0.741946
0.847353
0.742873
0.393371
-0.0311765
-0.330747
-0.455407
-0.434864
-0.364231
-0.338371
-0.282376
-0.286176
-0.330023
-0.328937
-0.287896
-0.226765
-0.18052
-0.194163
-0.20776
-0.231357
-0.244977
-0.21362
-0.187285
-0.146063
-0.0999321
-0.0689593
-0.0580543
-0.0420362
-0.0461312
-0.0452715
-0.0395928
-0.0240271
-0.00850677
-0.00803167
-0.0175113
-0.0220136
-0.026629
-0.0363574
-0.0312443
-0.0362443
-0.0114027
-0.00660631
-0.0167194
-0.0117194
-0.0267647
-0.036742
-0.0168552
0.00287335
0.0174887
0.0170589
0.0167874
0.0165611
0.011448
0.0113122
0.0211539
0.0359729
0.0557693
0.0806109
0.105566
0.110588
0.100656
0.090724
0.105769
0.125769
0.165679
0.190543
0.21043
0.230498
0.245656
0.255815
0.250815
0.250611
0.260158
0.27448
0.288801
0.292149
0.284774
0.271697
0.238281
0.225294
0.198643
0.173665
0.149887
0.131674
0.128507
0.0850905
0.0613575
0.0473982
0.0283032
0.0193213
0.0254072
0.0163801
-0.00291856
-0.0223077
-0.0467421
-0.0461086
-0.0554072
-0.0446832
-0.0440271
-0.0483937
-0.0577828
-0.0572625
-0.0618552
-0.0615611
-0.056448
-0.0463348
-0.0462444
-0.050905
-0.0450679
-0.0383937
-0.0406335
-0.0369683
-0.0427828
-0.0391403
-0.027104
-0.0169683
0.00674209
-0.00509048
-0.00178729
-0.0231674
-0.0344344
-0.0604977
-0.0516516
-0.038009
-0.0343439
-0.0454751
-0.0563801
-0.0570588
-0.0528054
-0.0586878
-0.0547964
-0.0559729
-0.0470362
-0.0279638
-0.0286878
-0.00420812
0.000316769
-0.0252262
-0.0257918
-0.0364932
-0.0322398
-0.0379638
-0.0537104
-0.0543891
-0.0601131
-0.0659502
-0.0718778
-0.0679412
-0.0591855
-0.0454072
-0.021561
-0.017647
-0.0286877
-0.0597511
-0.0658144
-0.076923
-0.0729864
-0.0488913
-0.0346153
-0.0401357
-0.0505203
-0.0658823
-0.0762443
-0.0765384
-0.0717873
-0.0569456
-0.0570361
-0.0518778
-0.0514705
-0.0507466
-0.0449547
-0.0442307
-0.0485972
-0.0429185
-0.0371266
-0.0311085
-0.0298868
-0.0435972
-0.0521719
-0.0406561
-0.00911759
0.0223304
0.0738236
0.115362
0.137036
0.373778
0.535543
0.68724
0.753869
0.660339
0.356765
-0.0118778
-0.285611
-0.414434
-0.413303
-0.357127
-0.291176
-0.245407
-0.229706
-0.254118
-0.268597
-0.238032
-0.177557
-0.152194
-0.137014
-0.156991
-0.166968
-0.187059
-0.177149
-0.172285
-0.147489
-0.117828
-0.08819
-0.0586651
-0.0291176
-0.0194343
-0.00466056
-0.00481895
-0.00502257
-0.0251809
-0.0353619
-0.0256108
-0.0359049
-0.0212443
-0.0166063
-0.0219909
-0.00737551
-0.012647
-0.0228959
-0.0231448
-0.0235067
-0.013914
0.000497803
-4.51952e-05
-0.00545244
-0.0108144
-0.00113116
-0.00644791
-0.00678727
0.0078281
0.0323982
0.0319684
0.0364932
0.0311312
0.025905
0.025724
0.0456335
0.0705883
0.0904073
0.115226
0.125
0.124932
0.144842
0.144683
0.15448
0.169163
0.183665
0.208077
0.237376
0.236606
0.215701
0.224457
0.21767
0.210204
0.212059
0.20362
0.180498
0.163484
0.14319
0.114231
0.0858145
0.0823756
0.0836199
0.0645249
0.0553168
0.0460407
0.0469005
0.0128733
-0.016267
-0.0606787
-0.0702941
-0.0650226
-0.054638
-0.049095
-0.0534615
-0.062828
-0.0822398
-0.0768099
-0.0865384
-0.0915158
-0.0865611
-0.0715384
-0.0814027
-0.0810181
-0.0954298
-0.094638
-0.0927602
-0.0802036
-0.0720136
-0.0635068
-0.0604751
-0.0688461
-0.0738461
-0.0800905
-0.0920362
-0.109004
-0.105747
-0.0920814
-0.0931448
-0.0891176
-0.0852262
-0.0914479
-0.0825792
-0.0784841
-0.0593213
-0.0500678
-0.0508823
-0.0366968
-0.027647
-0.0185068
-0.00934385
0.00981905
0.0140951
0.033439
0.027896
0.00242085
-0.00807689
-0.0235294
-0.0190723
-0.0246832
-0.0154298
-0.00635743
0.00266971
0.00160636
0.00558824
0.0196154
0.0286199
0.0276471
0.0116063
0.0154299
0.0192987
0.0181901
0.0321946
0.0313349
0.0155204
0.00979639
-0.010905
-0.0215158
-0.0170814
-0.00262442
0.00203621
0.00694571
0.0170136
0.00223982
-0.00746606
-0.0171719
-0.0119683
-0.0166516
-0.0112217
-0.0106109
-0.00979637
-0.0388688
-0.0378733
-0.03681
-0.0257466
-0.00466063
0.0315611
0.0478733
0.0792534
0.105747
0.152172
0.253507
0.379819
0.521086
0.642353
0.70371
0.625068
0.38638
0.0326244
-0.246199
-0.370136
-0.374231
-0.318371
-0.252489
-0.226652
-0.205814
-0.220068
-0.244367
-0.213891
-0.153575
-0.108507
-0.0784842
-0.103462
-0.143439
-0.158348
-0.153326
-0.138348
-0.103439
-0.0834616
-0.0385521
-0.0135747
0.00144795
0.00653845
0.00162894
-0.00332581
-0.0283937
-0.0334616
-0.0235521
-0.0136199
-0.0186199
-0.00855207
-0.0034842
-0.0134163
-0.0133937
0.0116289
0.0165837
0.0214931
-0.00350685
-0.0184164
-0.0232806
-0.0181449
-0.00812224
0.00185515
0.0118325
0.0218099
0.0170135
0.0122624
0.00257912
0.0129185
0.00332575
0.00371034
0.0290723
0.0345022
0.0499547
0.0554751
0.0709954
0.0864253
0.0917647
0.111923
0.126991
0.136878
0.166561
0.185814
0.194525
0.197624
0.190317
0.1881
0.196855
0.207104
0.22776
0.219932
0.21724
0.204366
0.191335
0.182941
0.159299
0.150611
0.141968
0.128416
0.124774
0.0959728
0.0670588
0.0330769
0.00416285
-0.0147059
-0.0184842
0.00264701
-0.00128967
-0.000384688
-0.019525
-0.0388236
-0.053258
-0.0679412
-0.0626697
-0.0624435
-0.0571041
-0.0716064
-0.0759276
-0.0652037
-0.0594344
-0.0435068
-0.0423982
-0.0258145
-0.0186878
-0.0209729
-0.0326698
-0.0341403
-0.0409729
-0.0389141
-0.0435068
-0.0494118
-0.0459503
-0.0424887
-0.0486878
-0.0595928
-0.0704299
-0.0612444
-0.0521267
-0.0381674
-0.0341177
-0.0247964
-0.0252715
-0.0206561
-0.0111765
-0.0219683
-0.0129412
-0.0140045
-0.0199547
-0.0307466
-0.0265385
-0.0471719
-0.0527149
-0.0533032
-0.0639593
-0.0546606
-0.0454751
-0.0464706
-0.0424661
-0.0383937
-0.0492081
-0.06
-0.0608371
-0.0716742
-0.0676018
-0.0735294
-0.0691402
-0.0745701
-0.0898416
-0.0951357
-0.105452
-0.100747
-0.0709728
-0.066086
-0.0560633
-0.0508823
-0.0805656
-0.0802262
-0.0948868
-0.0845475
-0.0891855
-0.0738235
-0.0584615
-0.0529412
-0.0523303
-0.0466063
-0.0508597
-0.0550905
-0.044276
-0.0184616
0.0074434
0.0433936
0.0994117
0.205656
0.336946
0.473371
0.569796
0.566109
0.362376
0.0337104
-0.069819
-0.398281
-0.421765
-0.380271
-0.328778
-0.247376
-0.205973
-0.199751
-0.228575
-0.257421
-0.23138
-0.180362
-0.149502
-0.128824
-0.133348
-0.157964
-0.18776
-0.177579
-0.157308
-0.127036
-0.111787
-0.0766743
-0.0466742
-0.0217195
-0.0117647
-0.00176473
-0.0166969
-0.0315159
-0.0364027
-0.0314254
-0.0114706
-0.0215385
-0.0165611
-0.0216064
-0.0164706
-0.00624438
-0.0159729
-0.00581451
-0.00574662
-0.000791878
0.00918549
0.0192534
0.0343212
0.0294344
0.00952487
0.0095475
0.0195022
0.0344344
0.0343891
0.0443891
0.054457
0.0545475
0.0546832
0.064819
0.0699774
0.0902036
0.115362
0.140566
0.130769
0.13095
0.151063
0.161176
0.166154
0.191041
0.210837
0.215566
0.235023
0.249344
0.243235
0.236493
0.219072
0.20629
0.223869
0.227964
0.23871
0.240385
0.197262
0.163869
0.135023
0.115792
0.106425
0.0971041
0.0878959
0.0737104
0.0543439
0.0298643
0.0104072
0.000882357
-0.00357465
-0.0130317
-0.00744344
-0.0170136
-0.0165837
-0.0261312
-0.0408145
-0.0507013
-0.0506787
-0.040724
-0.0357919
-0.0307918
-0.0306335
-0.0252941
-0.029819
-0.049095
-0.0379638
-0.0562218
-0.0488688
-0.0261539
-0.0134389
-0.0166516
-0.0363574
-0.0315611
-0.0382805
-0.0401131
-0.0568099
-0.0532805
-0.0644344
-0.0503167
-0.0511539
-0.0571946
-0.0484615
-0.0496832
-0.045724
-0.0366742
-0.0275339
-0.0384389
-0.019457
-0.0206108
-0.0218099
-0.0280316
-0.0242307
-0.0154751
-0.0116063
-0.0176697
-0.0336651
-0.0396154
-0.0555882
-0.0766516
-0.0778959
-0.0541629
-0.0404298
-0.0316063
-0.0277375
-0.0238008
-0.0498642
-0.0659276
-0.0819457
-0.0729411
-0.0587782
-0.0445475
-0.0500678
-0.0753845
-0.0806334
-0.0857692
-0.0759049
-0.0661086
-0.0611764
-0.0661312
-0.0609049
-0.0605655
-0.0601131
-0.0596606
-0.0592081
-0.0588235
-0.058371
-0.0628733
-0.0571719
-0.0562669
-0.0552489
-0.0542081
-0.0482353
-0.0422172
-0.0311991
-0.0151584
0.00606334
0.0123529
0.0836652
0.125136
0.221674
0.3681
0.524412
0.595611
0.506742
0.173032
-0.200611
-0.399186
-0.447828
-0.381674
-0.285747
-0.214977
-0.189276
-0.208552
-0.227896
-0.202263
-0.156674
-0.121199
-0.120837
-0.135656
-0.150498
-0.165339
-0.165181
-0.134932
-0.119729
-0.109593
-0.0744797
-0.0294345
-0.00443453
0.00554287
0.00561075
0.000701264
-0.00914036
-0.0240725
-0.018982
-0.0189368
-0.00395937
-0.00889151
-0.00889151
0.00617638
0.00133473
0.00151575
0.00167412
0.00667413
0.0115836
0.0114931
0.0214026
0.0212669
0.031199
0.011018
0.00588229
0.0207239
0.0406334
0.0556108
0.0655882
0.0755655
0.0755429
0.0805882
0.0805429
0.0806334
0.100769
0.125905
0.150995
0.176131
0.186357
0.201584
0.211833
0.211946
0.226991
0.2319
0.256833
0.25681
0.261968
0.262172
0.242398
0.23267
0.228032
0.23328
0.233461
0.218575
0.193733
0.178959
0.129321
0.0945701
0.0896832
0.0797285
0.0747511
0.0697963
0.0399547
0.025181
0.000407204
-0.0244344
-0.0393666
-0.0293666
-0.0293439
-0.0142987
-0.0192308
-0.0242082
-0.049163
-0.0691403
-0.0690498
-0.0839367
-0.0688462
-0.0588009
-0.0486878
-0.0485295
-0.0633032
-0.0580091
-0.0577602
-0.072172
-0.0713801
-0.0501131
-0.0281901
-0.0155883
-0.0076471
-0.0200905
-0.0290951
-0.034819
-0.0214706
-0.0234163
-0.0100453
-0.00619911
-0.0120589
-0.0277376
-0.0235747
-0.0295023
-0.0353394
-0.0309955
-0.0314253
-0.0119005
-0.0173756
-0.0228959
-0.0334163
-0.0488462
-0.0492082
-0.0345249
-0.0398416
-0.0399773
-0.0399321
-0.0346606
-0.0443665
-0.0440498
-0.053733
-0.0334615
-0.0333258
-0.0281448
-0.0329411
-0.0426244
-0.0472398
-0.0568778
-0.056448
-0.0510859
-0.0507692
-0.0354298
-0.0100905
-0.0147058
-0.0142081
-0.0187104
-0.0282127
-0.0126697
-0.0073303
-0.00196832
-0.0215611
-0.0259954
-0.0252941
-0.0194796
-0.00868776
-0.0129412
-0.00219457
-0.0114253
-0.0207013
-0.019819
-0.0138462
-0.0177149
-0.0264706
-0.0202036
-0.028914
-0.0125339
-0.00115387
0.0153394
-0.00816742
-0.0165159
-0.0299095
-0.0233258
-0.01681
-0.0204299
-0.0340724
-0.0326923
-0.0312217
-0.0297059
-0.0282806
-0.0270136
-0.0408371
-0.0199322
-0.0142082
-0.00355208
-0.00291857
0.00273755
-0.0116063
-0.0209955
-0.0254525
-0.00502262
0.0152037
0.0302715
0.0254073
0.0205882
0.0159276
0.026267
0.0165159
0.0266516
0.011629
0.00660637
0.0115385
0.0265159
0.0165611
0.0166969
0.0168326
0.0218779
0.0368779
0.0317874
0.0266968
0.0166516
0.0167421
0.0219231
0.0171719
0.0123529
0.0224434
0.0274434
0.0324661
0.0476018
0.0428054
0.0330543
0.0383258
0.0236425
0.0388009
0.038914
0.0439819
0.0490724
0.0341402
0.0442307
0.0293891
0.0245475
0.00972846
-0.0101584
0.00481898
0.00979638
0.0198416
0.0149321
0.0200679
-0.00479639
0.000339389
-0.00459275
-0.00961536
-0.00968325
0.005362
0.000384629
-0.00452489
-0.0144117
-0.0343665
-0.0293891
-0.0295249
-0.0196606
-0.00975111
-0.0147511
-0.0096606
-0.0144343
-0.0392534
-0.0290724
-0.0289366
-0.0288235
-0.00361985
-0.0134162
-0.00816736
-0.0230316
-0.0378506
-0.0527149
-0.0376244
-0.0275113
-0.0223529
-0.0271493
-0.0169457
-0.0317647
-0.0265384
-0.0363122
-0.0361538
-0.0311085
-0.0211312
-0.0311764
-0.0311086
-0.0409502
-0.0357013
-0.0455656
-0.0355656
-0.025656
-0.010837
-0.00106329
-0.00631216
-0.0166515
-0.0320361
-0.0424434
-0.0378732
-0.0282805
-0.0237782
-0.0143438
-0.00986418
-0.000384569
-0.00583705
-0.0162216
-0.0215837
-0.0419909
-0.0424434
-0.042828
-0.0230769
-0.00321263
-0.00834841
-0.0184841
-0.0386877
-0.0439592
-0.0291629
-0.0293891
-0.0145022
-0.0146154
-0.0195927
-0.0144796
-0.019276
-0.0291176
-0.0289593
-0.0238688
-0.00875568
0.0114027
-0.00343892
-0.0132805
-0.0231222
-0.0230091
-0.0278733
-0.00782809
-0.00280544
0.00730765
-0.00253394
-0.0123982
-0.0272399
-0.0221041
-0.0220362
-0.0369683
-0.0170814
-0.00212666
0.00280544
-0.0073303
0.00246605
-0.00312218
0.000837088
-0.00595024
-0.0186199
-0.0169457
-0.00538465
-0.00782809
-0.00859731
-0.0228281
-0.0313348
-0.0296833
-0.023371
-0.0172625
0.00373304
0.00452489
0.000384599
0.00644797
-0.00255656
-0.0117195
-0.00619912
0.00404975
0.0192986
0.0196154
0.0151357
-0.0042308
-0.00868779
-0.0132353
-0.00787333
-0.00773758
-0.00269234
-0.00776023
-0.0129186
-0.00798649
-0.0131222
-0.00812224
-0.023258
-0.0135295
0.00108591
0.00576916
-0.00943443
-0.00961542
-0.0197512
-0.0248417
-0.0350679
-0.0303168
-0.0206561
-0.00599551
0.0137104
0.00852939
-0.0017195
-0.0120136
-0.017353
-0.017715
0.00183252
0.00638008
0.0309502
0.0456335
0.0453394
0.0500679
0.0597512
0.0643439
0.0688235
0.0632127
0.0826018
0.0819684
0.0913801
0.0958598
0.0903168
0.0747285
0.0740272
0.0681901
0.0671946
0.0461765
0.0351584
0.0292082
0.0433033
0.0372625
0.0461087
0.0547965
0.048439
0.0421268
0.0258372
0.00963807
-0.026561
-0.0428053
-0.0490497
-0.0503845
-0.0517873
-0.0381674
-0.0394117
-0.035543
-0.0414932
-0.0474434
-0.0584162
-0.0493891
-0.0502488
-0.0360407
-0.0366968
-0.0472398
-0.0526696
-0.0431447
-0.0335746
-0.0340723
-0.0295701
-0.0249547
-0.000384539
-0.000656024
0.00420824
0.0241404
0.0440499
0.11405
0.224095
0.374231
0.564367
0.694525
0.699729
0.494977
0.130249
-0.199547
-0.364502
-0.39457
-0.344638
-0.294683
-0.274683
-0.23457
-0.249502
-0.279548
-0.269661
-0.239887
-0.180204
-0.140498
-0.135679
-0.150724
-0.185769
-0.20086
-0.186086
-0.16138
-0.146652
-0.1219
-0.0920588
-0.0672171
-0.0474208
-0.0427828
-0.0381673
-0.0636199
-0.0490724
-0.0345474
-0.0249547
-0.0252036
-0.0404072
-0.040656
-0.0559276
-0.0563122
-0.0416968
-0.032104
-0.0225339
-0.0228959
-0.0281448
-0.0432126
-0.0383258
-0.0284615
-0.0286199
-0.018914
-0.00923075
0.000588223
0.00540724
-0.00459278
0.000429854
-0.00959276
-0.00963801
-0.00466065
0.0103167
0.0353168
0.0452489
0.0552941
0.0552263
0.0450452
0.0596154
0.0636199
0.0768326
0.0992308
0.111041
0.112715
0.110068
0.114004
0.124502
0.15095
0.167602
0.184276
0.19052
0.196516
0.192443
0.188348
0.189344
0.195136
0.200701
0.215973
0.221041
0.216109
0.19129
0.181652
0.162104
0.147511
0.142783
0.132783
0.107715
0.0875113
0.0773529
0.0571041
0.0417873
0.0414027
0.0210859
0.0207918
0.0255203
0.000316709
-0.00484167
-0.019819
-0.034819
-0.0448643
-0.0499095
-0.0599548
-0.0746606
-0.0888235
-0.0922398
-0.104796
-0.106787
-0.0988009
-0.101765
-0.0864706
-0.067715
-0.0547059
-0.0568779
-0.0587783
-0.0654299
-0.0720588
-0.0635521
-0.045181
-0.0270815
-0.0139593
-0.00572395
-0.0072398
-0.0237104
-0.0402262
-0.0419457
-0.0388688
-0.0309729
-0.0230769
-0.0351357
-0.0371719
-0.0590498
-0.0557919
-0.0524208
-0.0240272
-0.0157014
-0.00739822
-0.00420818
-0.015905
-0.0224209
-0.0437783
-0.0500906
-0.0564254
-0.0526697
-0.0388915
-0.045068
-0.0509051
-0.0415612
-0.0470363
-0.0574888
-0.0779865
-0.0735747
-0.0790724
-0.0843892
-0.0595249
-0.0545702
-0.0645702
-0.0595702
-0.0745475
-0.0645249
-0.0544796
-0.0445248
-0.0394796
-0.0344117
-0.0342081
-0.0238688
-0.0284842
-0.0031448
0.0321267
0.0923077
0.212557
0.372896
0.553348
0.678959
0.709593
0.540181
0.180724
-0.168665
-0.363032
-0.412308
-0.406493
-0.300633
-0.249751
-0.238778
-0.247783
-0.281833
-0.270905
-0.234887
-0.173778
-0.127511
-0.126199
-0.134909
-0.173824
-0.187896
-0.182104
-0.15638
-0.105656
-0.0799321
-0.0492986
-0.0438461
-0.0235294
-0.0183032
-0.00814478
-0.013009
-0.0079864
-0.0128733
-0.0227375
-0.0276244
-0.0425339
-0.0376018
-0.0227375
-0.00294112
0.0169005
0.0116516
0.00138013
-0.0139818
-0.0143438
-0.00986418
-0.000452444
0.00395934
0.0233258
0.0328281
0.0325566
0.0423756
0.0321946
0.0270136
0.0416743
0.0511991
0.0658145
0.0955656
0.100498
0.10552
0.110611
0.140679
0.155588
0.185453
0.195294
0.220113
0.235
0.249977
0.259887
0.249774
0.249457
0.24914
0.263846
0.283688
0.293597
0.293552
0.283416
0.257964
0.231923
0.219955
0.207059
0.183371
0.159208
0.145498
0.0831901
0.0526471
0.0235295
0.0200001
0.0264707
0.0326924
0.0187331
-0.0103845
-0.0495701
-0.0586651
-0.0577148
-0.0467873
-0.0460181
-0.0555656
-0.0551357
-0.0446379
-0.0640045
-0.0632579
-0.0774887
-0.0817647
-0.0810633
-0.0605203
-0.0449773
-0.0343891
-0.0336199
-0.0473982
-0.0555203
-0.0628733
-0.0496832
-0.03138
-0.0188687
-0.0279411
-0.0236199
-0.0201583
-0.0269004
-0.0236425
-0.0249547
-0.0410633
-0.0521267
-0.0482353
-0.0445927
-0.0608823
-0.0769683
-0.0978054
-0.103439
-0.104118
-0.0848869
-0.0608371
-0.0518778
-0.0528054
-0.0587104
-0.0694344
-0.0751358
-0.0558145
-0.0365385
-0.0371719
-0.0377149
-0.0332353
-0.0288462
-0.0495475
-0.0504072
-0.0714706
-0.0726697
-0.0540045
-0.0553394
-0.051629
-0.0679186
-0.0591629
-0.0704525
-0.06681
-0.0732579
-0.0547285
-0.0462217
-0.0426697
-0.0390045
-0.0552036
-0.0862896
-0.0923077
-0.09319
-0.0940271
-0.0647285
-0.0402489
-0.0506109
-0.0607692
-0.0807466
-0.0855882
-0.0903846
-0.0850452
-0.0645701
-0.0690045
-0.0631222
-0.0521946
-0.056086
-0.0649321
-0.058733
-0.0524887
-0.026267
-0.0200226
-0.0188009
-0.0174887
-0.0210407
-0.0195475
0.00694573
0.0683258
0.194593
0.380724
0.581787
0.752873
0.863869
0.779796
0.465701
0.071267
-0.233326
-0.368054
-0.377828
-0.342489
-0.297036
-0.266629
-0.256335
-0.251222
-0.256222
-0.261244
-0.221267
-0.166312
-0.15138
-0.156425
-0.176425
-0.196561
-0.196742
-0.187104
-0.172534
-0.142964
-0.118235
-0.0933031
-0.0733031
-0.0532579
-0.0383258
-0.0285067
-0.023733
-0.0188914
-0.013914
-0.0238914
-0.0189592
-0.0240271
-0.029095
-0.0241855
-0.0141629
-0.00916287
-0.00925337
-0.00941175
0.0104072
0.00531675
-0.00475115
4.52548e-05
-0.000271484
0.0093665
0.0189819
0.0186878
0.0235068
0.00339365
0.0233258
0.0331674
0.0529638
0.077715
0.0925566
0.0924887
0.0774435
0.0824435
0.0974661
0.122489
0.15233
0.187014
0.211629
0.226199
0.230747
0.235091
0.254027
0.262217
0.264502
0.265656
0.266131
0.266787
0.273824
0.273032
0.254027
0.245928
0.232873
0.219344
0.200339
0.181176
0.146878
0.122805
0.0988914
0.0697737
0.0603393
0.0357013
0.0310633
0.00647058
0.0069683
0.00260179
-0.0367874
-0.036267
-0.0508598
-0.0456788
-0.0407466
-0.040905
-0.0461313
-0.0512218
-0.0462896
-0.0513123
-0.0613801
-0.0615159
-0.0616743
-0.0467195
-0.046448
-0.0405883
-0.0339141
-0.0463122
-0.0428733
-0.0439367
-0.0454525
-0.0284163
-0.0231448
-0.0242308
-0.0209502
-0.042715
-0.0643213
-0.0707919
-0.077172
-0.0785747
-0.0649774
-0.0614254
-0.0529412
-0.0492761
-0.055362
-0.0614254
-0.0626245
-0.0540046
-0.0454978
-0.021991
-0.0136426
-0.0152942
-0.0318553
-0.0633711
-0.0697964
-0.0811765
-0.0725792
-0.0590724
-0.0605657
-0.0671494
-0.0837105
-0.0852263
-0.07681
-0.0733937
-0.0699548
-0.0714933
-0.0929865
-0.0893892
-0.0855883
-0.0816064
-0.0724888
-0.0882354
-0.108959
-0.0946154
-0.0902263
-0.0856336
-0.0808824
-0.0810408
-0.0811313
-0.0861765
-0.0962444
-0.0812444
-0.0811765
-0.0760181
-0.0756788
-0.075181
-0.079638
-0.0891629
-0.0887104
-0.083258
-0.0626923
-0.0269684
-0.0309955
-0.0198417
0.00642531
0.0526923
0.148959
0.300271
0.511674
0.753077
0.909525
0.865973
0.582511
0.114118
-0.274186
-0.46767
-0.491177
-0.414751
-0.313371
-0.277059
-0.245792
-0.264729
-0.273756
-0.238009
-0.177444
-0.151991
-0.156652
-0.17129
-0.186041
-0.195769
-0.195566
-0.170611
-0.135747
-0.0909729
-0.0461765
-0.0212896
-0.00131224
-0.00631225
-0.00633489
-0.0163575
-0.00638013
0.00357462
0.00848411
0.00841625
-0.00160637
-0.00667426
-0.00183262
-0.00701363
-0.0222399
-0.0224209
-0.00762448
-0.00280544
-0.00789595
-0.0129638
-0.00800908
-0.00807694
-0.00830318
0.00631221
0.0159276
0.0305656
0.0351584
0.0398642
0.0495475
0.0493213
0.0491403
0.0589592
0.0837104
0.103462
0.108258
0.108054
0.152964
0.167896
0.177851
0.19267
0.197308
0.206855
0.231199
0.265362
0.274163
0.297353
0.294751
0.286199
0.286968
0.28776
0.27371
0.262398
0.257873
0.249231
0.210882
0.172443
0.143756
0.134774
0.125566
0.101222
0.0970815
0.0530091
0.0288688
0.019457
0.00481901
0.000135742
-0.0144344
-0.00893667
-0.0133258
-0.0126923
-0.0270588
-0.0465385
-0.0561991
-0.0560634
-0.0461539
-0.0313122
-0.0315611
-0.0366516
-0.0565159
-0.0713801
-0.0812218
-0.0760408
-0.0707014
-0.0598869
-0.0683937
-0.060905
-0.0623077
-0.0530543
-0.0640498
-0.0664027
-0.0859728
-0.0672624
-0.0744118
-0.076629
-0.0834163
-0.0897059
-0.100905
-0.0920362
-0.0983711
-0.0748417
-0.0661991
-0.0522399
-0.0531448
-0.0640951
-0.0651584
-0.0714027
-0.0627602
-0.0492082
-0.0306109
-0.0269005
-0.0280091
-0.0439367
-0.0648417
-0.0757466
-0.07681
-0.0729638
-0.0792534
-0.0855656
-0.0768552
-0.0831222
-0.0793439
-0.0706335
-0.0470136
-0.0384389
-0.0449095
-0.0564254
-0.0578281
-0.0690498
-0.0750905
-0.0760407
-0.0819005
-0.0726697
-0.0583484
-0.0439367
-0.0492987
-0.0595249
-0.0495702
-0.0595249
-0.0493892
-0.0592308
-0.0640272
-0.0687783
-0.0584163
-0.0578733
-0.057172
-0.046448
-0.0457014
-0.0397964
-0.0438914
-0.0279412
-0.0169004
-0.0007466
0.0354977
0.0869231
0.183484
0.320045
0.491719
0.688348
0.839932
0.846538
0.818167
0.219819
-0.173484
-0.38681
-0.445226
-0.418801
-0.357624
-0.281561
-0.245566
-0.234548
-0.263575
-0.272534
-0.251742
-0.186063
-0.13552
-0.125023
-0.154548
-0.17914
-0.188778
-0.193416
-0.1881
-0.162896
-0.122919
-0.0829864
-0.0430996
-0.0281674
-0.00314479
-0.0180543
-0.0329864
-0.0379638
-0.0330091
-0.0131674
-0.00325793
-0.0133258
-0.0132806
-0.0232127
-0.0281222
-0.0181222
-0.00816743
0.00662895
0.0263574
0.0160633
0.010905
0.000791833
-0.019276
-0.0293891
-0.0145475
0.000226244
0.0250452
0.0448869
0.0548643
0.0449321
0.0400226
0.0450905
0.0551131
0.0800905
0.095
0.114977
0.130023
0.140249
0.14552
0.150769
0.170928
0.190905
0.220814
0.240747
0.260724
0.275701
0.280656
0.280566
0.270317
0.274887
0.289186
0.303077
0.306312
0.29871
0.270339
0.241606
0.203371
0.176697
0.151923
0.138371
0.120317
0.102398
0.069276
0.0508597
0.0271719
0.0134842
-0.000226252
0.00606333
-0.00273757
-0.0119005
-0.0262217
-0.0404751
-0.0545928
-0.0536425
-0.0576018
-0.0466742
-0.0308597
-0.0302263
-0.0346833
-0.0542308
-0.0637783
-0.07819
-0.0723529
-0.0611312
-0.0593439
-0.0467195
-0.0382353
-0.0340724
-0.0298869
-0.0408597
-0.0595928
-0.0601358
-0.0517195
-0.0585747
-0.0452942
-0.0517195
-0.0478281
-0.0637783
-0.0797285
-0.100882
-0.0921493
-0.0933258
-0.0742307
-0.0798642
-0.0804751
-0.0812217
-0.0671719
-0.0733031
-0.0645475
-0.0558597
-0.0270362
-0.0280316
-0.0189366
-0.0197058
-0.0255203
-0.0413801
-0.0424208
-0.0535973
-0.054819
-0.0410407
-0.0521267
-0.0532353
-0.069457
-0.0857466
-0.087104
-0.073552
-0.0599095
-0.0411765
-0.0323077
-0.0482805
-0.0591629
-0.0749547
-0.0857466
-0.0815384
-0.0773077
-0.0729185
-0.073371
-0.083552
-0.0885067
-0.098371
-0.0882579
-0.08319
-0.0830769
-0.0728959
-0.062466
-0.0668778
-0.0661086
-0.0852714
-0.0893212
-0.0833257
-0.0773529
-0.0563574
-0.0502488
-0.0539366
-0.057466
-0.0608597
-0.0591855
-0.037466
-0.00581442
0.0407693
0.112398
0.229118
0.385905
0.567738
0.729548
0.811222
0.692783
0.344163
-0.0745701
-0.348371
-0.447195
-0.461018
-0.399887
-0.338914
-0.288054
-0.277376
-0.281787
-0.271267
-0.260679
-0.185136
-0.154638
-0.159231
-0.189004
-0.203937
-0.213937
-0.189004
-0.159004
-0.123846
-0.088552
-0.0582126
-0.043009
-0.0378733
-0.0428959
-0.0328733
-0.0227828
-0.037647
-0.0324434
-0.0321719
-0.031923
-0.0267647
-0.0168325
-0.0119909
0.00289601
0.00291863
-0.00199087
-0.00678726
-0.00167416
-0.00162891
0.00832585
0.0232354
0.0380317
0.0379639
0.0429186
0.0330317
0.0380543
0.0379864
0.0578733
0.0878054
0.10776
0.127738
0.122738
0.122919
0.1431
0.153348
0.178552
0.213665
0.238733
0.253756
0.258778
0.263824
0.253914
0.268869
0.283733
0.298326
0.302624
0.316742
0.305475
0.293665
0.276131
0.257941
0.224208
0.195792
0.18371
0.162149
0.148371
0.130362
0.11233
0.0789592
0.0502262
0.0412669
0.0371719
0.0430995
0.0390724
0.0348868
0.00549771
-0.0139367
-0.0334163
-0.0328281
-0.0472624
-0.051629
-0.0409955
-0.025362
-0.0297285
-0.0441403
-0.0587104
-0.0685294
-0.0685973
-0.073733
-0.0588235
-0.0536652
-0.0581901
-0.0623304
-0.0609503
-0.0638914
-0.0611539
-0.0526924
-0.0488915
-0.0406335
-0.0389367
-0.0491177
-0.0604526
-0.082353
-0.0943439
-0.096086
-0.0925566
-0.0787783
-0.0749774
-0.0761991
-0.087353
-0.0885294
-0.0894344
-0.0853168
-0.0612444
-0.0423077
-0.0284615
-0.0196154
-0.0256335
-0.0465837
-0.0774208
-0.0932579
-0.0841176
-0.08
-0.0609502
-0.0669457
-0.0729185
-0.0838688
-0.0899774
-0.101086
-0.0973303
-0.0786199
-0.0449095
-0.0462217
-0.0574208
-0.0786199
-0.099819
-0.111041
-0.0972851
-0.0784389
-0.0745702
-0.0804751
-0.0761991
-0.0967195
-0.102127
-0.117421
-0.102692
-0.0829412
-0.0730543
-0.0679186
-0.0775792
-0.0720815
-0.066448
-0.0757919
-0.0750905
-0.0793213
-0.068552
-0.0526471
-0.0565159
-0.045181
-0.0537557
-0.0572625
-0.0507693
-0.0293665
-0.00787333
0.0386651
0.0902941
0.131991
0.233778
0.370543
0.552285
0.708982
0.81552
0.736878
0.428145
0.304389
-0.304434
-0.468348
-0.457376
-0.381516
-0.310882
-0.265362
-0.244887
-0.239457
-0.243959
-0.208439
-0.152964
-0.132602
-0.127376
-0.14224
-0.157127
-0.177149
-0.172127
-0.167014
-0.146787
-0.131606
-0.101493
-0.0515159
-0.00160636
0.0133031
0.0232126
-0.00176474
-0.0266743
-0.0415385
-0.0414933
-0.0364933
-0.00653853
-0.00653854
-0.00149329
-0.00140277
-0.00628965
-0.0111765
-0.0311313
-0.00619914
-0.00140274
0.00337102
0.00323527
-0.00180997
0.00328052
0.00339365
-0.00156111
0.013371
0.0282127
0.0530769
0.0579411
0.058009
0.0632127
0.0534841
0.0488235
0.0641629
0.0743665
0.109412
0.144367
0.164412
0.184457
0.189615
0.194751
0.199909
0.219955
0.224955
0.254932
0.264887
0.269955
0.285249
0.265566
0.280814
0.280905
0.28086
0.280769
0.265792
0.26095
0.221154
0.19638
0.166652
0.14181
0.121855
0.106787
0.10681
0.0769457
0.0421267
0.0273755
0.0125339
0.00278284
-0.00699095
-0.0167873
-0.011629
-0.00151584
-0.00631222
-0.0209955
-0.0407466
-0.0454751
-0.0553168
-0.050181
-0.0400453
-0.0447738
-0.0393892
-0.0437557
-0.0528959
-0.0568779
-0.0604525
-0.063439
-0.0656561
-0.0421493
-0.0281222
-0.0294117
-0.0320588
-0.0352036
-0.0311765
-0.0279186
-0.024638
-0.0110408
-0.017172
-0.0180543
-0.0138235
-0.0245475
-0.0352941
-0.0309276
-0.0363801
-0.026742
-0.0270362
-0.0223077
-0.00762442
-0.023009
-0.0334389
-0.0438914
-0.0393213
-0.0396606
-0.0248416
-0.0197511
-0.0194118
-0.0240271
-0.0335972
-0.0433031
-0.0581674
-0.0431221
-0.0330769
-0.0280316
-0.0378054
-0.0425565
-0.0522624
-0.0519909
-0.0517194
-0.046561
-0.0314253
-0.0211764
-0.0258597
-0.0455429
-0.0602035
-0.0749321
-0.0745927
-0.0593438
-0.0441628
-0.0238461
-0.0283936
-0.0227827
-0.042104
-0.0514027
-0.0507918
-0.0552488
-0.0597963
-0.0492986
-0.0437103
-0.0379185
-0.0469909
-0.0409501
-0.0447963
-0.0435293
-0.052285
-0.0360406
-0.0297511
-0.0334388
-0.0220135
-0.0254977
-0.0389818
-0.0424207
-0.0359954
-0.0194796
-0.00803161
-0.00651577
-0.0149321
-0.023371
-0.0268325
-0.0354977
-0.0392986
-0.0333257
-0.0124434
-0.00162888
-0.00585964
-0.0100678
-0.00941166
-0.0189365
-0.00852932
-0.0232352
-0.0129411
-0.0177148
-0.00746597
-0.00219451
-0.0118777
-0.0216289
-0.0114252
-0.00637999
0.00861998
0.00861998
0.0136652
0.00380097
-0.00101806
-0.010837
-0.0107465
-0.00567868
0.00432134
0.00927608
0.0192308
0.0141856
0.00427608
-0.00556555
-0.015475
-0.0303846
-0.0153393
-0.0103167
-0.00524881
-0.000135705
0.0100453
0.000248909
-0.00463796
-0.00959271
-0.00961535
0.000294164
0.0152716
0.0152263
0.0052263
-0.0148416
-0.0199547
-0.0251357
-0.0104072
-0.000791818
0.0137331
0.00837108
0.00300908
-0.00728503
-0.0125565
-0.00778277
-0.00807688
-0.00350673
0.00613126
0.010724
0.0104525
0.0153168
0.00524889
0.000113145
-0.00509046
-0.000339344
-0.00561082
0.0141403
-0.00101805
-0.0010633
-0.0109502
-0.00579181
-0.0107013
-0.000723928
-0.0108145
0.00907245
0.0190272
0.00409508
-0.0107239
-0.0205655
-0.0304298
-0.0354298
-0.0105429
-0.00561079
0.00936656
0.0144118
0.00447968
-0.00545245
-0.000361934
-0.00538458
-0.0104524
-0.0305656
-0.0206787
-0.015837
-0.00595017
-0.00599542
-0.00119902
-0.0114931
-0.00696824
-0.00289585
0.0060408
-0.000950143
0.0113575
-0.00701351
-0.0257239
-0.0390497
-0.0409275
-0.0360633
-0.0300678
-0.00852935
-0.0119456
-0.0154298
-0.0191176
-0.0229637
-0.0218778
-0.0157918
-0.0149321
-0.00423068
-0.0137556
-0.00818995
-0.0225112
-0.021742
-0.0209501
-0.0102488
-0.0147737
0.000656232
0.0058146
-0.00404966
-0.00893654
-0.018846
-0.0338234
-0.0288234
-0.0138686
-0.0189592
-0.00904967
-0.00404966
-0.00900441
-0.013846
-0.0238008
-0.0287782
-0.0188686
-0.024027
-0.019208
-0.00932115
-0.0143664
-0.019389
-0.019389
-0.029389
-0.00945689
0.0103621
0.0151359
0.019887
0.00970601
0.00959289
0.00950238
0.0243214
0.038982
0.0685748
0.0730996
0.0876698
0.0972399
0.0768327
0.076335
0.0757241
0.0749775
0.0641404
0.0732354
0.0922625
0.0662444
0.0602264
0.0442082
0.0231222
0.0120362
0.0158598
0.024525
0.0231222
0.0267421
0.0204073
0.00427607
-0.00692303
-0.0330543
-0.0493212
-0.055543
-0.0467421
-0.0478507
-0.0438914
-0.0447059
-0.0553394
-0.0609729
-0.061629
-0.0522851
-0.0429185
-0.0285068
-0.0389367
-0.0542081
-0.0743891
-0.0695475
-0.0647059
-0.0649548
-0.0501584
-0.0353846
-0.030543
-0.0307014
-0.0307693
-0.0258371
-0.0357919
-0.00572403
0.0243891
0.0594796
0.144615
0.169796
0.380068
0.550317
0.710566
0.785656
0.690633
0.360475
-0.029706
-0.28991
-0.415136
-0.420249
-0.385339
-0.330407
-0.300543
-0.290701
-0.290837
-0.251018
-0.206244
-0.17138
-0.181493
-0.211584
-0.221742
-0.221946
-0.212217
-0.172466
-0.152738
-0.0879412
-0.0680995
-0.0632353
-0.0534163
-0.0486651
-0.0490045
-0.049276
-0.039457
-0.0346832
-0.044819
-0.0498868
-0.065
-0.0452488
-0.0505203
-0.0358371
-0.0311312
-0.0414027
-0.0415384
-0.0516515
-0.0518325
-0.0520814
-0.0423303
-0.0376018
-0.0177827
-0.012828
-0.00789587
-0.0129185
-0.0130542
-0.0182352
-0.00846149
0.00635751
0.0161313
0.0259503
0.0306335
0.0400227
0.0487783
0.0616064
0.0786878
0.0953394
0.106923
0.125068
0.140091
0.156561
0.168529
0.17543
0.191923
0.197986
0.208824
0.239615
0.250543
0.251629
0.23767
0.213507
0.214005
0.199344
0.219615
0.214932
0.205317
0.195792
0.171244
0.141606
0.111833
0.0968099
0.086561
0.0762669
0.0609049
0.0456335
0.0354751
0.00536196
0.000180975
-0.000135779
-0.0105204
-0.000859767
-0.00619911
-0.00647061
-0.0266516
-0.0467421
-0.0568552
-0.0520136
-0.0672398
-0.0725565
-0.0777602
-0.0828054
-0.0876244
-0.0920362
-0.10138
-0.0998416
-0.0825792
-0.0596154
-0.0463575
-0.023552
-0.0172398
-0.00773756
0.000542969
-0.00678734
-0.0192308
-0.0316516
-0.0238914
-0.0260181
-0.0331222
-0.0202489
-0.0122624
-0.0241629
-0.0410407
-0.043009
-0.0452262
-0.0375339
-0.0248869
-0.0221493
-0.0242307
-0.0262443
-0.0329864
-0.0496154
-0.0461991
-0.0427601
-0.0391402
-0.0504751
-0.0566968
-0.0527375
-0.0636877
-0.074638
-0.0704525
-0.0463122
-0.0519683
-0.0475113
-0.0428959
-0.0531448
-0.078371
-0.0735973
-0.0638235
-0.0540724
-0.0543212
-0.0594344
-0.0594344
-0.069276
-0.0590497
-0.0638235
-0.048733
-0.0386199
-0.0285294
-0.0233937
0.00185521
0.0221946
0.0575566
0.137896
0.288281
0.473665
0.639072
0.73457
0.750181
0.39586
-0.00837104
-0.307534
-0.441652
-0.430769
-0.354842
-0.278824
-0.237692
-0.221425
-0.239932
-0.273348
-0.256833
-0.215452
-0.154231
-0.127986
-0.136833
-0.160543
-0.179163
-0.187873
-0.181652
-0.155633
-0.124887
-0.0793213
-0.0338235
-0.0233258
0.0021946
-0.00728506
-0.0168099
-0.0363801
-0.0360859
-0.0258823
-0.00565606
-0.0104751
-0.0102036
-0.00995471
-0.0146832
-0.0295475
-0.0245701
-0.0146153
0.00536203
0.0153847
0.0204525
0.0155204
0.000565663
-0.00447959
0.00542992
0.0202715
0.0300906
0.035
0.0450227
0.0501358
0.0504299
0.0607692
0.0711086
0.0814027
0.101606
0.131787
0.147036
0.152353
0.157715
0.162986
0.178213
0.198462
0.228688
0.238846
0.263959
0.273982
0.283869
0.273665
0.273213
0.277308
0.280747
0.273507
0.265724
0.268032
0.231312
0.221176
0.197353
0.16914
0.155996
0.147602
0.113914
0.110045
0.0862217
0.0574887
0.0387557
0.0148416
0.000588253
0.001086
-0.00843889
-0.00266968
-0.00174208
-0.0207466
-0.0398643
-0.054095
-0.0635068
-0.0580543
-0.0327375
-0.037466
-0.0371719
-0.0368778
-0.0465611
-0.0561312
-0.0506109
-0.0399773
-0.0389592
-0.0272398
-0.0146832
-0.0113348
-0.0125566
-0.00873303
-0.00658369
-0.00635745
-0.00248867
0.00576928
-0.000904918
-0.00721715
-0.0282352
-0.0490497
-0.069819
-0.0806561
-0.0666968
-0.0526923
-0.043552
-0.0491629
-0.0446606
-0.0552036
-0.0809276
-0.0717873
-0.0678054
-0.0488461
-0.0198416
-0.0107239
-0.0114253
-0.0220362
-0.0376697
-0.0532805
-0.0590724
-0.0599547
-0.0609502
-0.0470362
-0.0530769
-0.0540497
-0.0650226
-0.0659955
-0.0720362
-0.0631674
-0.0494117
-0.0556108
-0.0566742
-0.0824886
-0.0981448
-0.103665
-0.104185
-0.0897059
-0.0851357
-0.0804524
-0.0755882
-0.0805882
-0.0854977
-0.0952941
-0.115023
-0.119683
-0.109253
-0.088733
-0.0731448
-0.0774208
-0.101493
-0.10552
-0.114548
-0.0985068
-0.0725113
-0.0664253
-0.0702262
-0.0688461
-0.0573982
-0.0357918
0.00579187
0.0424208
0.103982
0.205475
0.352014
0.498529
0.605
0.591448
0.382941
0.0392308
-0.259547
-0.398416
-0.407398
-0.361471
-0.305543
-0.259819
-0.244118
-0.268552
-0.26319
-0.217964
-0.152919
-0.122919
-0.112986
-0.168122
-0.193258
-0.208484
-0.188914
-0.164525
-0.135294
-0.0961086
-0.07181
-0.0473077
-0.0426697
-0.0330091
-0.0333032
-0.0337104
-0.0341629
-0.0245928
-0.0297965
-0.0348869
-0.0349095
-0.0449322
-0.0450679
-0.0403394
-0.0257467
-0.00608602
-0.00638013
-0.00656113
-0.0116064
-0.016629
-0.00667424
-0.0118552
-0.00714934
-0.0125792
-0.00305434
0.00156103
0.0114027
0.0164027
0.0163574
0.0162669
0.031018
0.0406334
0.0653393
0.0750678
0.0899094
0.0949773
0.100068
0.125113
0.140136
0.160068
0.189887
0.199638
0.204389
0.224185
0.224005
0.228665
0.223145
0.222262
0.23595
0.24905
0.256606
0.248643
0.225317
0.187285
0.160317
0.134887
0.130701
0.11681
0.0933258
0.0796606
0.0557918
0.0367647
0.0226018
0.00848415
-0.000656128
-0.0149322
-0.0244118
-0.0340724
-0.0387783
-0.0482806
-0.0626924
-0.0571946
-0.0517195
-0.0614027
-0.0460408
-0.0506335
-0.0553168
-0.065181
-0.070181
-0.0802489
-0.0652715
-0.0651132
-0.0597512
-0.0441177
-0.0480317
-0.0362218
-0.0287783
-0.0258598
-0.0280317
-0.016267
-0.0110634
-0.0171946
-0.0238914
-0.0206335
-0.0321493
-0.0234163
-0.0245702
-0.0207014
-0.00696836
0.00178729
0.0158371
0.0101583
0.024638
0.0291176
0.0333937
0.0523982
0.0762896
0.0952262
0.114208
0.113326
0.0926244
0.0720362
0.0364706
0.0308371
0.0200452
0.0342081
0.0332805
0.0323529
-0.00850685
-0.0344118
-0.0404525
-0.0315385
-0.00780547
0.0158145
0.0444117
0.0280769
0.0168325
-0.00434396
-0.025543
-0.0367874
-0.0380543
-0.0292082
-0.025362
-0.0163575
-0.0172851
-0.0230317
-0.0585747
-0.0840272
-0.0793666
-0.0646154
-0.0398643
-0.0350453
-0.0450453
-0.0448417
-0.0495023
-0.0691177
-0.0635973
-0.0531222
-0.0575114
-0.0518326
-0.0410408
-0.0300679
-0.0290272
-0.0379412
-0.0266516
0.00466061
0.0459502
0.117262
0.213484
0.339819
0.471244
0.602715
0.679163
0.615452
0.356561
0.00255652
-0.276538
-0.340566
-0.414615
-0.368778
-0.318054
-0.277534
-0.252149
-0.2669
-0.27172
-0.261584
-0.221493
-0.17138
-0.141312
-0.171267
-0.19629
-0.201403
-0.201516
-0.176561
-0.171629
-0.156606
-0.131584
-0.0965838
-0.0667195
-0.0418779
-0.0321267
-0.0322625
-0.042353
-0.0423756
-0.0422851
-0.0572625
-0.0522625
-0.0522625
-0.0472399
-0.0222172
-0.0220815
-0.0269457
-0.0418326
-0.0417421
-0.0466064
-0.0465611
-0.026448
-0.0163575
-0.0111991
-0.0109502
-0.0306561
-0.0252263
-0.0298643
-0.0195249
-0.0291629
0.00622173
0.0166742
0.0272625
0.0429864
0.0438235
0.044638
0.045362
0.0658824
0.0861765
0.131516
0.141855
0.162262
0.16276
0.158326
0.163688
0.188846
0.198937
0.229095
0.254367
0.264796
0.26543
0.265973
0.251584
0.257127
0.262466
0.262692
0.247851
0.243032
0.213281
0.193642
0.164004
0.124299
0.114434
0.0944343
0.0744796
0.0745701
0.074819
0.0450905
0.0253167
0.00547506
0.010543
-0.0145023
0.000497699
-0.00443444
-0.00434393
-0.00916296
-0.0188915
-0.0235521
-0.0283032
-0.0531675
-0.0580318
-0.0477376
-0.0572173
-0.0363349
-0.0450679
-0.0482127
-0.0458145
-0.0428507
-0.0245928
-0.0166064
-0.014819
-0.0195928
-0.0405657
-0.0518553
-0.0534842
-0.0449774
-0.0263122
-0.0174661
-0.00348419
-0.00454755
-0.0055204
-0.0114254
-0.0271946
-0.0277828
-0.0282806
-0.0239593
-0.0197511
-0.0154977
-0.0261991
-0.0317647
-0.0372398
-0.0426244
-0.0430543
-0.0233937
-0.0235747
-0.013552
-0.0234389
-0.0332805
-0.0431674
-0.0531221
-0.0431221
-0.0282353
-0.0233258
-0.0284163
-0.0334389
-0.0483484
-0.0432126
-0.0430995
-0.0431448
-0.04819
-0.0383484
-0.0435068
-0.0384842
-0.0483484
-0.0531674
-0.0530317
-0.0680543
-0.0580543
-0.0380995
-0.0380543
-0.0380543
-0.0328733
-0.0376471
-0.0473077
-0.0519457
-0.0465385
-0.0461539
-0.0208145
-0.00542986
-0.0199321
-0.0291629
-0.0283484
-0.0474434
-0.0615385
-0.0556788
-0.0347738
-0.0238009
-0.0278055
-0.0267195
-0.0355204
-0.0492761
-0.0430317
-0.0667873
-0.0706109
-0.0443213
-0.0280317
-0.0117647
-0.0054525
-0.0141855
-0.0280769
-0.0271041
-0.0163575
-0.0158145
-0.0102715
-0.0147738
-0.00929868
-0.0188914
-0.0185294
-0.0182806
-0.00319007
0.0118326
0.0169004
0.0119004
0.00703613
-0.00285076
-0.0176698
-0.027534
-0.0324888
-0.0124888
0.0023981
0.0121945
0.00699086
-0.00312224
-0.0132806
-0.00337109
-0.00852947
0.00124429
0.00604068
0.0158371
0.0107466
0.0157466
0.00576919
-0.0093213
-0.0045023
-0.00481904
0.00988685
0.024638
0.0244796
0.0194796
0.0145475
-0.0103847
-0.015362
-0.00538467
0.00447959
0.0143665
0.0242534
0.0241629
0.00911763
-0.000927612
-0.0059955
-0.0211539
-0.0263575
0.00843887
0.0232805
0.0182805
-0.00162901
-0.0115611
-0.0215837
-0.0217421
-0.00699098
0.00266965
0.0124208
0.0122851
0.0121946
0.00210409
0.00199097
-0.00814477
-0.0082579
0.0115385
0.0113349
0.031086
0.030905
0.0107466
-0.00432123
-0.0094796
0.000316784
0.0151358
0.0148643
0.0195928
0.00947967
0.00936657
0.00420821
0.00404985
-0.0111764
-0.00147052
-0.0117873
-0.00708136
0.00262453
0.0125114
0.00753401
-0.00753386
-0.00764695
-0.00782795
-0.00814471
-0.00355196
-0.00882344
0.000972927
0.00585981
0.015724
0.0155657
0.0153168
0.0149548
0.0146155
0.014163
-0.00624429
-0.00149313
0.00334847
-0.0218099
-0.0169909
-0.0122171
-0.0025112
0.017172
0.0219232
0.0116743
0.00149333
-0.0137781
0.000973001
0.0106563
0.00531685
0.0200227
0.0148191
0.00966075
-0.000429749
-0.0155881
-0.0157465
-0.0309954
-0.0263121
-0.0166968
-0.0121492
0.00751141
0.00223993
-0.00294109
-0.0131447
-0.013371
-0.00866507
-0.00393657
0.00579192
0.000610903
0.000475138
-0.00966059
-0.0247963
-0.0299773
-0.0101583
-0.0104072
0.00936656
0.00420819
0.00407243
0.00400457
-0.0210407
-0.0211312
-0.0213348
-0.0116968
-0.00710404
0.00262445
-0.00264706
-0.00278279
-0.00282806
-0.0078733
-0.00305429
-0.00825793
0.00644796
0.0111312
0.00576922
-0.00438917
-0.0195023
-0.0396154
-0.0248869
-0.0151584
0.0044796
0.0141176
0.0238688
0.0136651
0.00352938
-0.00160636
-0.0067195
-0.00680999
-0.0169684
-0.0172172
0.00253387
0.00239812
0.00728498
0.00228499
-0.00764713
-0.0227603
-0.0129639
-0.00821276
-0.0134164
-0.00848423
0.00147051
-0.0135521
-0.0135974
-0.00368784
0.00119901
0.0110407
0.015837
0.0156561
0.0154072
0.0152488
0.00018093
-0.014819
-0.00984167
-0.0100001
0.00481895
0.014638
0.0194796
-0.00570138
-0.000859767
-0.0109729
-0.0110634
-0.00608604
0.00389132
0.0138461
0.0137782
0.0137782
-0.00126703
-0.0114028
-0.0165385
-0.00162901
0.00809951
0.00785065
0.00762439
0.012466
0.0074434
0.00751129
-0.00251135
0.0123529
0.0121945
0.0170814
0.0220588
0.0120362
0.0070814
0.012104
0.00208141
0.0119683
0.00678732
0.0165837
0.0162896
0.0210407
0.0308144
0.0256561
0.0256335
0.0155656
0.0154072
0.0101583
0.0149547
0.0197511
0.0146606
0.00459272
-0.000497773
0.00943434
0.00427599
0.0190271
0.00873299
0.00855201
0.008371
-0.00669688
0.00321263
0.00314477
-0.00199097
0.00271492
0.0224434
0.0321946
0.0370136
0.0168778
0.0268552
0.00671946
-0.00346154
-0.00364253
0.0110634
0.00581449
0.0205882
0.0104977
0.0155204
0.00558825
0.010543
0.005362
0.02
0.00968327
0.0194796
0.0194344
0.00945701
0.00950228
0.00450228
0.00441177
-0.000678718
-0.0157918
-0.000904962
0.00891402
0.00873302
0.00368778
-0.00135745
-0.00647061
-0.0215385
-0.00174208
0.00300907
0.00776017
0.00753394
-0.00766967
-0.0127828
-0.0128959
-0.0181674
-0.00848415
-0.00875565
0.000995472
-0.00416289
0.000814497
0.00581449
-0.00916289
-0.0192534
-0.024457
-0.024819
-0.0102262
-0.00558819
-0.00592755
-0.0112669
-0.00158365
-0.0120362
-0.0125113
-0.0130995
-0.0186651
-0.0192533
-0.0147285
-0.0100904
-0.0253846
-0.0157013
-0.0160407
-0.0114253
-0.0168099
-0.0020588
-0.00221717
-0.00237553
-0.00753389
-0.0177149
-0.0329185
-0.0231674
-0.00834839
-0.0183937
-0.0133258
-0.02319
-0.0279638
-0.027828
-0.0277828
-0.0227602
-0.0128054
-0.0128054
-0.00776015
-0.00257917
-0.00735293
-0.00210407
-0.0117874
-0.0215611
-0.0164028
-0.00131224
0.00880086
-0.00108601
0.00400451
-0.0158371
-0.0107692
-0.0108598
-0.0161313
-0.00649324
-0.00201359
0.00223981
-0.00407243
-0.00613128
-0.0139141
-0.0171494
-0.0248191
-0.0111539
-0.000972912
-0.00472856
-0.00805436
-0.0113575
-0.0147512
-0.0283711
-0.00721726
0.00382344
0.00484157
0.0259275
0.0219909
0.0128506
-0.00140278
-0.0207014
-0.0349095
-0.0190951
-0.00325795
0.0174887
0.0232127
0.00877827
-0.00572398
-0.0103394
-0.00515836
-0.00502262
0.00506788
0.000181019
0.000294134
0.000362024
0.00549777
0.00570139
-0.00409499
-0.0039366
0.0161539
0.00119914
0.0212218
0.0163349
0.0264706
0.0266516
0.0168326
0.00187787
0.0118553
0.0317874
0.0416969
0.0416517
0.0416064
0.031629
0.00662902
0.00167426
-0.0033031
0.0215838
0.0313801
0.051086
0.0657919
0.0555883
0.0654299
0.0752942
0.0750679
0.0797964
0.0894344
0.104005
0.0985747
0.108167
0.0926697
0.0770589
0.0614027
0.0656109
0.0547738
0.0538462
0.0480091
0.0321267
0.0213122
0.0204525
0.0195701
0.0285747
0.0275113
0.0363801
0.0103394
-0.00556558
-0.0314027
-0.0421946
-0.0580091
-0.0488688
-0.0347059
-0.025543
-0.0212217
-0.0217195
-0.0371267
-0.0574434
-0.0676471
-0.0678507
-0.0729864
-0.0580996
-0.0432805
-0.0383936
-0.0433258
-0.0482353
-0.0381448
-0.0480769
-0.0331448
-0.00821266
0.0267647
0.0567873
0.0869231
0.152081
0.267285
0.432443
0.592511
0.677511
0.562511
0.267466
-0.0724435
-0.30224
-0.377104
-0.371991
-0.346923
-0.316923
-0.257059
-0.252127
-0.257149
-0.272104
-0.251878
-0.211674
-0.171539
-0.171516
-0.186652
-0.201855
-0.202014
-0.187036
-0.166923
-0.14181
-0.116765
-0.0917647
-0.0568326
-0.0469005
-0.0419457
-0.0468552
-0.0517873
-0.0566516
-0.0565611
-0.0614932
-0.0614254
-0.0564027
-0.0463575
-0.0411991
-0.0511313
-0.0509277
-0.0507693
-0.055543
-0.0553168
-0.0401584
-0.0300679
-0.0199774
-0.0196833
-0.0193892
-0.0190724
-0.023733
-0.0234616
-0.0282806
-0.0181448
-0.00307691
0.00714934
0.0224208
0.0227828
0.0181448
0.0134615
0.00884615
0.024276
0.0447285
0.0552489
0.070905
0.0716516
0.0623529
0.0830769
0.113575
0.128869
0.144186
0.164593
0.185091
0.170634
0.176154
0.176538
0.186878
0.19224
0.212624
0.218009
0.218371
0.208756
0.194095
0.169412
0.16457
0.159593
0.164502
0.15948
0.159638
0.129864
0.100091
0.0802489
0.0653394
0.045362
0.0402715
0.0302037
0.0150905
0.0200906
0.0102037
-0.014638
-0.00950222
-0.0194117
-0.00932124
0.000701368
0.00579186
-0.0039819
-0.0186199
-0.0330996
-0.0323982
-0.0364027
-0.0299774
-0.00780544
0.0050905
0.00839369
0.0161765
0.00269231
-0.0123755
-0.0035294
-0.00504524
-0.00158371
0.00699095
0.0206561
0.0246154
0.0235747
0.00751132
-0.0137104
-0.0149548
-0.011086
-0.00205885
0.0120814
0.0111764
0.0152036
-0.000837147
-0.01181
-0.00769234
-0.00843893
-0.0140498
-0.00457016
0.000158355
-0.00497741
-0.025
-0.0250905
-0.0402036
-0.0303394
-0.0204751
-0.0206788
-0.0208371
-0.025905
-0.0308145
-0.0256335
-0.0354978
-0.030362
-0.0352489
-0.035181
-0.0301131
-0.0299774
-0.0197511
-0.044457
-0.0341629
-0.038914
-0.0437557
-0.0386425
-0.0435068
-0.0384163
-0.0282353
-0.0379185
-0.0375792
-0.0372172
-0.0218778
-0.0216289
-0.0263801
-0.0261538
-0.0308371
-0.0404299
-0.0599774
-0.0645023
-0.0591855
-0.054276
-0.0194118
0.00938913
-0.0125566
-0.0302715
-0.0633032
-0.0757693
-0.0769005
-0.0613349
-0.0595476
-0.0621041
-0.0645702
-0.0520815
-0.0447285
-0.0375792
-0.0505883
-0.0586199
-0.0466969
-0.024819
-0.0131222
-0.0165611
-0.0402037
-0.0438462
-0.0374887
-0.0211539
-0.0199096
-0.0237557
-0.00785074
-0.0120589
-0.00635752
-0.0158824
-0.0255204
-0.0303394
-0.0303847
-0.025362
-0.0153847
-0.0103621
-0.0102716
-0.0151811
-0.0101132
-0.0152037
-0.0253847
-0.0255431
-0.00579196
-0.00604081
-0.00622182
-0.0113123
-0.0113349
-0.0263802
-0.0165159
-0.00676477
-0.00194578
0.00787321
0.00773746
0.0176469
0.0125564
0.0175112
0.0173981
0.0371266
0.061742
0.0763347
0.0809275
0.0555203
0.0502035
0.0499094
0.0645701
0.0640723
0.0634614
0.0577827
0.0520587
0.0562895
0.0355203
0.0146832
-0.0062218
0.00262435
0.00140263
0.00011304
-0.00122181
0.00751121
-0.00373311
-0.0199774
-0.0462897
-0.062715
-0.0641403
-0.0656336
-0.0621042
-0.0585068
-0.0597512
-0.0608372
-0.0719005
-0.0778055
-0.0787557
-0.0696381
-0.0504299
-0.0461087
-0.0516743
-0.0471721
-0.0575793
-0.0728734
-0.0681675
-0.0583937
-0.0535973
-0.0387331
-0.0438688
-0.0439593
-0.0489819
-0.0490272
-0.049095
-0.0393439
-0.0046154
0.0751357
0.105
0.370068
0.550317
0.73552
0.825679
0.720634
0.410543
0.0404299
-0.229593
-0.364593
-0.379615
-0.349683
-0.314706
-0.269706
-0.244796
-0.254977
-0.270271
-0.265588
-0.230814
-0.196018
-0.156222
-0.156606
-0.187081
-0.212534
-0.212873
-0.208122
-0.173326
-0.153439
-0.143575
-0.10871
-0.078914
-0.049276
-0.0247285
-0.0352036
-0.0355883
-0.0357466
-0.0408598
-0.0359502
-0.0411991
-0.0214932
-0.0168326
-0.0221493
-0.0073982
-0.00248869
0.00244342
-0.00766972
-0.0228507
-0.0130543
-0.00837107
0.00138007
-0.00380091
-0.00395928
-0.00909506
-0.00918555
0.00572395
0.000610843
0.0154977
0.035362
0.040362
0.0455204
0.0507466
0.0609276
0.0558597
0.0506109
0.0650905
0.0845475
0.098009
0.115679
0.122557
0.123801
0.130091
0.147421
0.156471
0.191968
0.208462
0.210136
0.231629
0.22776
0.223688
0.22448
0.235294
0.256018
0.261516
0.266833
0.266991
0.247195
0.212489
0.182896
0.178258
0.153439
0.138575
0.133552
0.108416
0.0782353
0.0579638
0.0375791
0.0221945
0.00680992
-0.00361994
-0.0190272
-0.0243892
-0.0247286
-0.0249774
-0.0402263
-0.0554752
-0.0557693
-0.0611313
-0.0415159
-0.04181
-0.0418778
-0.0615385
-0.0711086
-0.0795249
-0.0871946
-0.0890498
-0.0704978
-0.067534
-0.0609729
-0.0660408
-0.0723756
-0.0743213
-0.0713801
-0.0733484
-0.0752263
-0.0519231
-0.0485294
-0.0352489
-0.0221041
-0.0240498
-0.0209502
-0.0278281
-0.0146154
-0.00140271
-0.00341628
-0.0155882
-0.0378054
-0.0550679
-0.0621946
-0.0642986
-0.0615159
-0.0585747
-0.0355883
-0.0224208
-0.0191177
-0.0357466
-0.0773304
-0.0838462
-0.0902942
-0.0616516
-0.0479639
-0.0440046
-0.0599096
-0.0756562
-0.0912218
-0.0967195
-0.087172
-0.0776245
-0.0730317
-0.0633259
-0.0684842
-0.0735295
-0.0735068
-0.0684616
-0.078439
-0.0684616
-0.0684163
-0.0634163
-0.058258
-0.0680091
-0.0776924
-0.077353
-0.061991
-0.0316516
0.00364248
0.0638914
0.084276
0.304774
0.480339
0.650973
0.786606
0.78224
0.532941
0.133733
-0.205407
-0.414321
-0.453122
-0.411855
-0.330498
-0.274253
-0.253032
-0.27181
-0.275498
-0.23905
-0.197557
-0.161041
-0.164525
-0.178167
-0.201968
-0.19095
-0.159977
-0.154095
-0.118235
-0.0824435
-0.0518326
-0.026448
-0.00622179
-0.00110866
-0.0110408
-0.0159955
-0.0158598
-0.0157693
-0.0156788
-0.0205883
-0.0254978
-0.0254978
-0.0205883
-0.00558833
-0.00063356
-0.0106109
-0.0255883
-0.0356336
-0.0258372
-0.0161087
-0.0013575
0.003371
0.00312214
0.0279185
0.0277601
0.017647
0.0274208
0.0271493
0.0368778
0.0466063
0.0612896
0.0659728
0.0708371
0.0857466
0.100724
0.125724
0.150656
0.180611
0.200566
0.200588
0.220679
0.230792
0.24086
0.255814
0.260656
0.275317
0.30991
0.309367
0.32862
0.317534
0.310814
0.283281
0.269932
0.250995
0.227443
0.210249
0.195045
0.15629
0.133167
0.095
0.0715158
0.0626471
0.0586199
0.0494118
0.0252715
0.0112896
-0.0126471
-0.0267873
-0.0461991
-0.0507692
-0.0502941
-0.0397737
-0.0391176
-0.0334389
-0.0528054
-0.0522624
-0.0619231
-0.0617873
-0.0618326
-0.0468778
-0.0418326
-0.0365611
-0.0509954
-0.0553167
-0.0536878
-0.0463122
-0.0332127
-0.0245249
-0.0258597
-0.0232127
-0.0273756
-0.043009
-0.0546154
-0.071448
-0.0731674
-0.0545475
-0.0556561
-0.0566516
-0.0677602
-0.0788914
-0.0848869
-0.085724
-0.0863801
-0.0721946
-0.0730769
-0.0641177
-0.0601131
-0.0659502
-0.07681
-0.0676244
-0.0533937
-0.034095
-0.0197059
-0.0152941
-0.020905
-0.0316064
-0.062353
-0.0681901
-0.0741177
-0.0752036
-0.0764027
-0.0726697
-0.0689819
-0.0903168
-0.0865611
-0.0828054
-0.0841403
-0.0704751
-0.0568552
-0.0531222
-0.0693665
-0.0753846
-0.0863122
-0.0821041
-0.0926923
-0.0981901
-0.0785973
-0.0739367
-0.074095
-0.0690724
-0.0588688
-0.0585747
-0.0731901
-0.0778281
-0.0773756
-0.06681
-0.0511086
-0.0502489
-0.0541856
-0.0529638
-0.0517647
-0.0553846
-0.0540045
-0.0476471
-0.0362218
0.000226215
0.0167873
0.0535294
0.105249
0.207104
0.363891
0.550611
0.717195
0.808756
0.720249
0.416697
0.00805429
-0.295656
-0.42957
-0.43362
-0.377941
-0.307308
-0.276742
-0.226131
-0.23052
-0.260045
-0.259661
-0.219434
-0.164299
-0.129231
-0.134231
-0.154208
-0.174095
-0.179005
-0.163891
-0.138914
-0.103937
-0.0690272
-0.0291177
-0.0142082
-0.00416292
-0.0190272
-0.0239141
-0.0288914
-0.0189367
-0.00898193
0.0010407
0.00610857
0.00626695
-0.0185973
-0.0184842
-0.0334163
-0.0284842
-0.0185521
-0.00368783
0.0011538
-0.00375569
-0.00866517
-0.00357468
-0.00357468
0.00133482
0.00619908
0.00101806
0.0309728
0.0310407
0.041086
0.0412443
0.0363801
0.0464706
0.0714706
0.0964932
0.111584
0.116719
0.131946
0.14224
0.152534
0.15776
0.177828
0.197828
0.232828
0.252828
0.262805
0.272896
0.283032
0.278032
0.282986
0.292964
0.277964
0.278054
0.263235
0.268484
0.23362
0.218688
0.18871
0.16871
0.148688
0.118688
0.113756
0.0738914
0.0440498
0.0142081
0.00934389
-0.00549772
0.0046154
-0.000316739
-0.0102941
-0.0152036
-0.0250452
-0.0398869
-0.0547511
-0.0495927
-0.069457
-0.0593665
-0.0442534
-0.0440498
-0.0438235
-0.0534163
-0.0579864
-0.0524434
-0.0617421
-0.0555882
-0.043733
-0.0360181
-0.0374887
-0.0334389
-0.0398643
-0.0326697
-0.0323982
-0.0285973
-0.0254073
-0.00723983
-0.0237557
-0.0198417
-0.0357692
-0.0465611
-0.0423529
-0.0383484
-0.0293439
-0.0251357
-0.0306561
-0.0210633
-0.026448
-0.0368778
-0.0324208
-0.0330543
-0.0236199
-0.024095
-0.0193891
-0.0194796
-0.0192986
-0.0340724
-0.0488235
-0.038733
-0.0336878
-0.0237104
-0.0236425
-0.0334615
-0.03319
-0.0478959
-0.0476018
-0.042466
-0.0373529
-0.022285
-0.0322624
-0.0321719
-0.026923
-0.0616742
-0.0614253
-0.0611991
-0.0509728
-0.0408144
-0.0356561
-0.0254298
-0.0552036
-0.064819
-0.059457
-0.0740724
-0.0637556
-0.0584615
-0.0481674
-0.0427601
-0.0421945
-0.0315158
-0.0357692
-0.0449547
-0.0491176
-0.0432579
-0.0373981
-0.0264479
-0.0303619
-0.0290723
-0.0226923
-0.0412669
-0.0448642
-0.0334615
-0.0171719
-0.0158597
-0.0194343
-0.0230316
-0.026561
-0.0352262
-0.0238687
-0.0127149
-0.0116742
-0.000723958
-0.00486423
-0.0140724
-0.00843889
-0.0178054
-0.0223981
-0.0171945
-0.00217192
-0.00717191
-0.0121493
-0.00710404
0.00296384
-0.00201352
-0.0020135
-0.00210403
-0.00228502
-0.00760178
-0.00287327
0.00176474
-0.00350675
