ekg
0
0
0
-0.00071428
-0.00833333
-0.0204545
-0.0388462
-0.0586667
-0.0961765
-0.157105
-0.194762
-0.138261
0.0264
0.240926
0.488448
0.732742
0.980455
1.21457
1.41757
1.50782
1.41732
1.05523
0.473
-0.169894
-0.69398
-0.859216
-1.32443
-1.526
-1.68088
-1.79068
-1.84967
-1.82286
-1.75508
-1.63761
-1.50043
-1.36768
-1.24952
-1.17153
-1.09377
-1.00601
-0.882901
-0.744398
-0.634941
-0.553966
-0.495674
-0.454835
-0.39672
-0.255842
-0.0720619
0.109343
0.172178
0.317136
0.328952
0.297243
0.281284
0.291081
0.316681
0.352391
0.372906
0.383193
0.413678
0.424268
0.43976
0.455158
0.460736
0.506641
0.542669
0.57337
0.60927
0.620432
0.636454
0.657203
0.683138
0.714354
0.750638
0.766656
0.82768
0.849
0.860287
0.886384
0.907547
0.928589
0.944818
0.950898
0.951894
0.942866
0.933931
0.904886
0.865706
0.826089
0.80105
0.765437
0.72427
0.672353
0.615053
0.558325
0.496684
0.440103
0.394365
0.369498
0.354975
0.295911
0.242341
0.203768
0.165
0.125948
0.101972
0.0870233
0.0631797
0.0342009
0.00113125
-0.0318099
-0.0597511
-0.0622172
-0.0735068
-0.0743439
-0.0620135
-0.0531448
-0.0633032
-0.0679864
-0.0724661
-0.0816968
-0.0705882
-0.0739366
-0.0617194
-0.0589593
-0.0556335
-0.0566742
-0.0669909
-0.0766063
-0.0710181
-0.0759276
-0.0724887
-0.0516968
-0.0537556
-0.0680769
-0.0829185
-0.0997059
-0.117262
-0.12043
-0.113959
-0.112624
-0.120995
-0.138914
-0.156109
-0.177557
-0.188258
-0.198281
-0.202783
-0.191787
-0.190249
-0.192941
-0.204774
-0.225928
-0.226516
-0.231674
-0.221516
-0.215928
-0.20957
-0.222149
-0.208688
-0.199842
-0.200272
-0.210543
-0.20595
-0.196403
-0.18181
-0.172036
-0.177081
-0.167059
-0.162036
-0.166991
-0.162036
-0.152149
-0.142308
-0.132624
-0.122873
-0.0880996
-0.0733937
-0.0487331
-0.0192534
0.0101583
0.0445022
0.0738235
0.10319
0.147647
0.192149
0.21681
0.221516
0.191222
0.166018
0.17586
0.190769
0.200792
0.180905
0.145973
0.0959955
0.060905
0.0307013
0.0202715
0.0197285
-0.00085973
-0.036629
-0.0625113
-0.0636199
-0.0700226
-0.0467647
-0.0437783
-0.0260181
-0.00846151
0.00407244
-0.00341626
-0.0112217
0.0405656
0.157036
0.388258
0.659005
0.959502
1.22986
1.46502
1.66493
1.76955
1.76876
1.66249
1.40072
1.29821
0.595
0.256312
0.0572399
-0.0322172
-0.0670814
-0.0975339
-0.128665
-0.190294
-0.237262
-0.259299
-0.280995
-0.291719
-0.305566
-0.316787
-0.312149
-0.312534
-0.310928
-0.298529
-0.296109
-0.294276
-0.308326
-0.303145
-0.298643
-0.284774
-0.281606
-0.279095
-0.287059
-0.290249
-0.303575
-0.301946
-0.305339
-0.308801
-0.31733
-0.320882
-0.324344
-0.342783
-0.366154
-0.379547
-0.3981
-0.411652
-0.420294
-0.438891
-0.452376
-0.49086
-0.529366
-0.542828
-0.551244
-0.569706
-0.568258
-0.571833
-0.570362
-0.583801
-0.587195
-0.580656
-0.569118
-0.542647
-0.511244
-0.479955
-0.453688
-0.412421
-0.381199
-0.350045
-0.303869
-0.25776
-0.206606
-0.175498
-0.139389
-0.10819
-0.0869004
-0.070543
-0.0640498
-0.0373982
-0.025724
-0.0140724
-0.00757916
0.00386879
0.0104299
0.00217196
-0.0109502
0.000791892
0.00239822
0.0188688
0.0152715
0.0266064
0.0129865
-0.000633448
0.00570139
-0.00812215
-0.00710404
0.00389145
0.024819
0.025905
0.0220136
0.0232127
0.00452493
-0.00407237
0.0072625
0.0435295
0.0749774
0.0919231
0.159955
0.194253
0.214977
0.246923
0.289864
0.343643
0.417851
0.512059
0.635815
0.803439
0.970701
1.09477
1.19231
1.26891
1.35516
1.48122
1.62217
1.74305
1.81373
1.83925
1.76477
1.55023
1.13059
0.535882
0.331131
-0.768575
-1.21824
-1.39292
-1.37758
-1.24729
-1.06204
-0.901901
-0.761742
-0.631606
-0.471357
-0.311063
-0.195882
-0.145837
-0.125928
-0.126131
-0.136493
-0.126946
-0.117534
-0.113167
-0.118914
-0.11991
-0.136154
-0.142715
-0.129412
-0.131086
-0.117647
-0.11914
-0.140679
-0.137353
-0.149231
-0.151267
-0.158167
-0.154887
-0.151471
-0.147828
-0.154118
-0.165294
-0.171493
-0.167624
-0.16371
-0.149683
-0.14552
-0.121154
-0.111674
-0.107036
-0.0922625
-0.0723982
-0.0474435
-0.0222851
-0.011991
0.023371
0.0483936
0.0576923
0.0608823
0.067828
0.0736425
0.073371
0.082285
0.0805656
0.0737104
0.0472398
0.021742
-0.0122625
-0.0394344
-0.0361086
-0.0455656
-0.0693891
-0.0928959
-0.111244
-0.134412
-0.137421
-0.150385
-0.153213
-0.146086
-0.143937
-0.136697
-0.149276
-0.151833
-0.154344
-0.1619
-0.16957
-0.162262
-0.154932
-0.142421
-0.134661
-0.14181
-0.14862
-0.160385
-0.157104
-0.138733
-0.120204
-0.106448
-0.102308
-0.10276
-0.107647
-0.12181
-0.110226
-0.0981221
-0.0805883
-0.0776244
-0.0591855
-0.0500906
-0.0502715
-0.0498643
-0.0440498
-0.0480769
-0.0374208
-0.0126471
0.000361979
0.0057466
0.0053167
-0.00997737
-0.012285
-0.0153846
-0.0134163
-0.0108145
-0.00739822
-0.0133032
-0.0086199
-0.023371
-0.0325565
-0.00615382
0.015543
0.0423078
0.0540046
0.0905657
0.106923
0.133235
0.13448
0.155543
0.206425
0.242172
0.287806
0.303394
0.279027
0.239638
0.215294
0.205905
0.221403
0.226901
0.222285
0.177692
0.128054
0.0785069
0.0290047
0.00950244
-0.0149999
-0.0246152
-0.0442985
-0.0489591
-0.0635293
-0.0680089
-0.0824434
-0.0767646
-0.0860632
-0.0754071
-0.0647058
-0.0539365
-0.0529637
-0.0368325
-0.000610799
0.105656
0.301968
0.578213
0.874434
1.14045
1.3864
1.59233
1.74326
1.7841
1.70473
1.5
1.17493
0.759683
0.634435
0.154344
0.0143214
-0.0408143
-0.0811085
-0.11147
-0.161787
-0.186968
-0.211946
-0.216719
-0.221289
-0.230792
-0.250158
-0.25448
-0.268778
-0.258122
-0.252534
-0.257036
-0.251471
-0.25586
-0.280181
-0.28457
-0.294004
-0.273575
-0.268258
-0.263122
-0.263393
-0.269525
-0.291855
-0.300498
-0.315452
-0.321516
-0.33362
-0.336357
-0.344163
-0.371561
-0.398099
-0.423167
-0.446448
-0.458122
-0.479412
-0.489434
-0.494231
-0.513869
-0.543303
-0.557534
-0.581584
-0.605588
-0.609683
-0.608778
-0.607851
-0.616832
-0.610792
-0.599706
-0.58862
-0.582511
-0.546516
-0.515634
-0.46457
-0.428348
-0.391991
-0.360543
-0.323937
-0.302376
-0.275724
-0.229118
-0.192376
-0.160339
-0.1481
-0.140588
-0.132964
-0.125475
-0.118122
-0.105928
-0.0986878
-0.0913123
-0.0738236
-0.076267
-0.0688915
-0.0816742
-0.0846606
-0.0778054
-0.0810407
-0.0643439
-0.0527149
-0.0510859
-0.064457
-0.0678507
-0.0713348
-0.0699773
-0.0636425
-0.0475113
-0.0414253
-0.0354072
-0.0544344
-0.0635747
-0.0728281
-0.0470588
-0.0309955
-0.00414026
0.00884613
0.0681222
0.0985068
0.114977
0.137285
0.170226
0.223258
0.29086
0.352557
0.367783
0.346086
0.318824
0.294253
0.293937
0.303168
0.297127
0.260588
0.223552
0.161109
0.108145
0.0646381
0.0455204
0.0156336
-0.0148869
-0.0304751
-0.0301811
-0.0278054
-0.0175792
-0.0245928
-0.0245475
-0.0233032
0.00348419
0.0107692
0.0383936
0.0562896
0.104163
0.216787
0.428846
0.710181
1.00566
1.29586
1.53489
1.74853
1.89672
1.91928
1.841
1.64683
1.33213
0.937081
0.571674
0.475566
0.188416
0.12009
0.0808824
0.0461313
0.00119901
-0.0436878
-0.0635974
-0.0635973
-0.0687557
-0.0790046
-0.0993665
-0.104842
-0.115385
-0.126063
-0.131765
-0.127602
-0.118371
-0.13905
-0.159615
-0.170113
-0.185611
-0.191131
-0.171674
-0.172263
-0.167873
-0.183326
-0.203733
-0.219208
-0.239774
-0.255475
-0.256312
-0.27224
-0.26819
-0.294118
-0.315023
-0.340837
-0.366539
-0.377285
-0.397941
-0.40862
-0.42905
-0.434208
-0.449095
-0.44862
-0.472896
-0.481946
-0.49586
-0.484525
-0.467987
-0.461154
-0.429027
-0.411607
-0.388959
-0.371131
-0.348235
-0.310362
-0.282398
-0.244186
-0.225769
-0.202127
-0.193371
-0.174389
-0.170226
-0.151086
-0.141901
-0.122534
-0.107896
-0.112964
-0.112692
-0.102398
-0.102263
-0.0723078
-0.0475115
-0.00273773
0.0170813
0.0969456
0.156674
0.221289
0.310611
0.424728
0.553597
0.712398
0.831063
0.839706
0.628348
0.177059
-0.449208
-1.06545
-1.51679
-1.78819
-1.93457
-2.05081
-2.13699
-2.17805
-2.16903
-2.10984
-1.9852
-1.82971
-1.65799
-1.59998
-1.34566
-1.2552
-1.15378
-1.00176
-0.809683
-0.628009
-0.522217
-0.462806
-0.400159
-0.254118
-0.0435522
0.205701
0.394706
0.493484
0.502104
0.475543
0.453756
0.446968
0.475204
0.493416
0.516652
0.529751
0.547737
0.585701
0.598642
0.631652
0.649683
0.657737
0.680611
0.698235
0.730701
0.763009
0.800181
0.827421
0.854706
0.861946
0.883937
0.925611
0.951946
0.983122
1.01437
1.03586
1.04235
1.04394
1.04036
1.02167
1.00801
1.00939
0.990996
0.977692
0.914593
0.856584
0.788688
0.72086
0.673077
0.620181
0.57233
0.509412
0.456584
0.388846
0.326176
0.273665
0.226199
0.188801
0.151471
0.144027
0.111425
0.0782353
0.0441629
0.0138688
-0.00760181
-0.0101131
-0.0335747
-0.0278507
-0.0323756
-0.056629
-0.0801131
-0.0922624
-0.117738
-0.116493
-0.108891
-0.100566
-0.0916969
-0.0875114
-0.0879412
-0.103032
-0.107579
-0.116765
-0.110611
-0.11405
-0.0969684
-0.0942761
-0.0857919
-0.101674
-0.107534
-0.114367
-0.113258
-0.109977
-0.10448
-0.101018
-0.11871
-0.137036
-0.160814
-0.174977
-0.194367
-0.198733
-0.202805
-0.196267
-0.199005
-0.200882
-0.212466
-0.232896
-0.242941
-0.232557
-0.231516
-0.22448
-0.226538
-0.238032
-0.244163
-0.254955
-0.244977
-0.239005
-0.246833
-0.228733
-0.220045
-0.216154
-0.202285
-0.213416
-0.20957
-0.200566
-0.206493
-0.187376
-0.158167
-0.153891
-0.149502
-0.160091
-0.150679
-0.136357
-0.107172
-0.0629638
-0.0289366
9.05022e-05
0.0341177
0.0481674
0.0471946
0.0711312
0.119932
0.178733
0.247647
0.271538
0.250611
0.204796
0.199095
0.193371
0.212624
0.226833
0.205928
0.18
0.129118
0.0981674
0.0521493
0.0208597
-0.000724003
-0.0226471
-0.0249095
-0.0173303
-0.0299774
-0.0228054
-0.0258371
-0.024095
-0.0276697
-0.0265611
-0.0157692
-0.00515835
0.000271529
0.0505204
0.125724
0.285724
0.520453
0.809842
1.09389
1.33276
1.56152
1.74502
1.81842
1.76654
1.61419
1.3312
0.952443
0.568348
0.27319
0.107647
0.0118552
-0.039276
-0.0859502
-0.148213
-0.196063
-0.224208
-0.24233
-0.249729
-0.255792
-0.264502
-0.280249
-0.297986
-0.288439
-0.277466
-0.266154
-0.260113
-0.254706
-0.250023
-0.260882
-0.262308
-0.274412
-0.27233
-0.260498
-0.254887
-0.259615
-0.269525
-0.274276
-0.293982
-0.303733
-0.308529
-0.308462
-0.308462
-0.308439
-0.343348
-0.368167
-0.393009
-0.417941
-0.432919
-0.457964
-0.467986
-0.483009
-0.498032
-0.527964
-0.562828
-0.582715
-0.602624
-0.602624
-0.607647
-0.602647
-0.587647
-0.592579
-0.587376
-0.57224
-0.562127
-0.527217
-0.487376
-0.447511
-0.427647
-0.367647
-0.332557
-0.297398
-0.26224
-0.227149
-0.17724
-0.137353
-0.112353
-0.0921493
-0.0566063
-0.0609955
-0.0505656
-0.0503846
-0.035362
-0.025362
-0.0152488
-0.005
-0.00975113
-0.0145249
-0.0145249
-0.00961539
-0.00986424
-0.000248864
0.00929864
0.0188461
0.00846152
0.00814481
0.00282806
-0.0124661
-0.0128054
-0.00819004
0.00144798
0.021086
0.0158597
0.020724
0.0256109
0.0307466
0.0461991
0.0772851
0.124412
0.177851
0.207602
0.243439
0.290317
0.338054
0.411041
0.508756
0.640724
0.811448
0.870543
1.11292
1.20896
1.27432
1.35928
1.48396
1.61344
1.72767
1.78672
1.77075
1.61473
1.31378
0.807805
0.151742
-0.509389
-1.03563
-1.36181
-1.44799
-1.3891
-1.24523
-1.07638
-0.947534
-0.833778
-0.695091
-0.531425
-0.48276
-0.22405
-0.145249
-0.101516
-0.122941
-0.129457
-0.116176
-0.113054
-0.100023
-0.0920589
-0.0841176
-0.0962896
-0.108665
-0.106244
-0.0991629
-0.097285
-0.0957918
-0.0945249
-0.0932579
-0.106946
-0.115566
-0.129276
-0.12819
-0.117285
-0.116425
-0.115452
-0.119276
-0.132873
-0.136176
-0.144299
-0.13233
-0.130249
-0.102986
-0.085543
-0.0827601
-0.0597285
-0.0516063
-0.0432126
-0.0347963
-0.00619905
0.017534
0.0513575
0.0753846
0.0946154
0.103824
0.0927828
0.096086
0.108167
0.109005
0.12862
0.11724
0.0999774
0.0721041
0.0390724
0.00633484
-0.00561087
-0.0262217
-0.0450905
-0.0523756
-0.0634842
-0.0889367
-0.109095
-0.11914
-0.134027
-0.13371
-0.128394
-0.117896
-0.127308
-0.126629
-0.145814
-0.155023
-0.154208
-0.158416
-0.152579
-0.131697
-0.125656
-0.124367
-0.12776
-0.126063
-0.124276
-0.127285
-0.105113
-0.0926245
-0.0747285
-0.0761991
-0.0869005
-0.0822851
-0.0715611
-0.075362
-0.0688461
-0.0469683
-0.0345249
-0.0263574
-0.0175792
-0.0233484
-0.0141176
-0.020543
-0.0082579
0.0117874
0.0139141
0.0181674
0.00511314
0.00567874
-0.00902713
-0.0084389
-0.00712665
-0.0100905
-0.00757913
0.000429906
-0.0109728
-0.0116516
-0.0121719
-0.0266516
-0.015905
0.00986426
0.0254525
0.0507466
0.0759729
0.0911086
0.106199
0.111154
0.135995
0.145611
0.165023
0.214412
0.23371
0.303077
0.327489
0.316946
0.29138
0.260701
0.249977
0.259208
0.278416
0.267715
0.242036
0.191448
0.145837
0.0951357
0.0494344
0.0336878
0.0230316
-0.00755659
-0.0130091
-0.0483711
-0.0636878
-0.0639141
-0.0640951
-0.0342534
-0.0394118
-0.0344344
-0.0193213
-0.0140046
-0.0185747
0.0118551
0.0872398
0.267534
0.532715
0.817828
1.08785
1.32287
1.52783
1.67262
1.71724
1.64652
1.46561
1.16941
0.788122
0.4369
0.185792
0.0497511
-0.00644804
-0.0428055
-0.0792082
-0.130543
-0.146652
-0.187511
-0.203122
-0.213643
-0.22414
-0.224638
-0.225091
-0.215498
-0.22086
-0.216131
-0.22129
-0.231403
-0.251561
-0.24681
-0.237127
-0.242466
-0.242783
-0.247941
-0.248077
-0.263303
-0.269005
-0.285634
-0.293462
-0.307602
-0.318009
-0.319525
-0.326787
-0.364525
-0.39233
-0.439683
-0.461131
-0.476222
-0.494638
-0.506584
-0.517489
-0.542941
-0.558077
-0.578213
-0.603167
-0.607986
-0.622692
-0.612172
-0.586674
-0.581131
-0.570453
-0.564796
-0.549118
-0.518439
-0.487851
-0.447217
-0.426448
-0.365588
-0.334615
-0.308462
-0.282217
-0.240995
-0.204751
-0.163416
-0.126968
-0.115362
-0.0834842
-0.0914706
-0.0940271
-0.096448
-0.0840045
-0.0666516
-0.0593439
-0.0570136
-0.0445475
-0.0468778
-0.0441855
-0.0565158
-0.0490045
-0.0366516
-0.0345022
-0.0274434
-0.030362
-0.0382805
-0.036267
-0.0341855
-0.0373755
-0.0306787
-0.0290498
-0.0224887
-0.0108371
-0.00927601
-0.0127828
-0.0213801
-0.0201357
0.000904992
0.0220136
0.0332806
0.0652941
0.0984842
0.127896
0.158484
0.175023
0.207443
0.235475
0.293688
0.316606
0.383688
0.394525
0.36862
0.341131
0.317308
0.327738
0.342715
0.342285
0.31138
0.259887
0.207919
0.160249
0.126787
0.117602
0.09319
0.0695023
0.0579412
0.0446154
0.034457
0.0366968
0.0402715
0.0595249
0.0840271
0.108688
0.123348
0.122805
0.116855
0.130226
0.172828
0.27957
0.475611
0.746154
1.04629
1.32079
1.56948
1.75244
1.86493
1.88199
1.78371
1.57016
1.27054
0.884842
0.563122
0.345634
0.242828
0.174842
0.161901
0.123846
0.0806109
0.0572173
0.00871047
0.0101811
0.00171949
-0.0218552
-0.0304525
-0.0391629
-0.0429412
-0.0416516
-0.0452715
-0.0537783
-0.0622851
-0.0656561
-0.0840497
-0.0925113
-0.0759502
-0.0793665
-0.0778054
-0.0961538
-0.114366
-0.12767
-0.140882
-0.169253
-0.177715
-0.161199
-0.169593
-0.19276
-0.210747
-0.23362
-0.261335
-0.278914
-0.301267
-0.318461
-0.330271
-0.336697
-0.362828
-0.383688
-0.394299
-0.409796
-0.430068
-0.405271
-0.395113
-0.379706
-0.364095
-0.35319
-0.337014
-0.315724
-0.279389
-0.238054
-0.196652
-0.180023
-0.138167
-0.121131
-0.113891
-0.0964932
-0.0840045
-0.0563574
-0.0436877
-0.0308597
-0.0228732
-0.0245701
-0.0161538
-0.0324208
-0.0236877
-0.0201583
0.028258
0.0615611
0.10991
0.168326
0.241787
0.325136
0.418348
0.536448
0.699344
0.852082
0.894751
0.737398
0.270023
-0.432262
-1.13459
-1.65701
-1.95446
-2.11199
-2.18441
-2.21167
-2.19887
-2.15604
-2.06324
-1.91554
-1.74281
-1.56493
-1.41152
-1.31219
-1.22163
-1.08464
-0.901448
-0.727195
-0.61224
-0.536855
-0.471335
-0.441154
-0.211855
0.026154
0.242421
0.407263
0.471109
0.489525
0.467692
0.475882
0.493937
0.52681
0.539593
0.557127
0.569683
0.602195
0.619638
0.652059
0.684412
0.701787
0.714276
0.731855
0.754435
0.786855
0.824095
0.866086
0.888032
0.925113
0.967217
0.989276
0.996041
1.02756
1.03882
1.065
1.08102
1.08213
1.07333
1.03953
1.00561
0.981742
0.958032
0.924253
0.87586
0.827647
0.749457
0.676335
0.613281
0.560136
0.5019
0.46862
0.420272
0.406923
0.323756
0.275701
0.232647
0.174661
0.126674
0.103665
0.0905205
0.0819459
0.0674888
0.0367648
0.00466079
-0.028665
-0.0481221
-0.0585746
-0.0592307
-0.075113
-0.0750225
-0.0881447
-0.103891
-0.122398
-0.12957
-0.136244
-0.128099
-0.109977
-0.111787
-0.108122
-0.104004
-0.0995248
-0.104751
-0.104661
-0.119276
-0.138507
-0.132172
-0.119977
-0.102013
-0.108801
-0.116357
-0.141108
-0.144072
-0.140203
-0.143755
-0.13362
-0.15414
-0.179932
-0.185837
-0.191787
-0.202647
-0.198077
-0.207805
-0.206719
-0.229728
-0.242013
-0.253778
-0.275136
-0.270905
-0.26086
-0.235068
-0.218688
-0.2319
-0.254774
-0.272376
-0.283959
-0.279434
-0.278982
-0.267783
-0.266154
-0.269367
-0.277624
-0.275769
-0.268801
-0.261652
-0.24448
-0.237262
-0.225
-0.222624
-0.215271
-0.197851
-0.19543
-0.208009
-0.220747
-0.21862
-0.181584
-0.134638
-0.0877149
-0.0757691
-0.0788687
-0.0769683
-0.0550679
0.00176483
0.0485974
0.100362
0.117014
0.133801
0.115702
0.122579
0.124367
0.135973
0.117398
0.0687331
0.0649775
-0.0289818
-0.0831447
-0.0975338
-0.117285
-0.132421
-0.132918
-0.128733
-0.124864
-0.121154
-0.137579
-0.148982
-0.160792
-0.142873
-0.140204
-0.127828
-0.105724
-0.0537556
0.0781448
0.315023
0.636787
0.958371
1.26971
1.53586
1.76188
1.82276
1.88357
1.69428
1.30991
0.795475
0.305837
0.00595021
-0.0992307
-0.0796379
-0.070113
-0.0854976
-0.145769
-0.215973
-0.251199
-0.26147
-0.26181
-0.247195
-0.242466
-0.252647
-0.282624
-0.302466
-0.317172
-0.306855
-0.291538
-0.286289
-0.290973
-0.280565
-0.290113
-0.304593
-0.319163
-0.323846
-0.303574
-0.283348
-0.288212
-0.298054
-0.307896
-0.332851
-0.343371
-0.364842
-0.372715
-0.376131
-0.387059
-0.394253
-0.427375
-0.461108
-0.490045
-0.538439
-0.550566
-0.570611
-0.56828
-0.574457
-0.609774
-0.629909
-0.645158
-0.665475
-0.675678
-0.685746
-0.680678
-0.675543
-0.675407
-0.670203
-0.649932
-0.634683
-0.604411
-0.589208
-0.54414
-0.49914
-0.459117
-0.408936
-0.368529
-0.332963
-0.302375
-0.266809
-0.226289
-0.190723
-0.184864
-0.138823
-0.102556
-0.106199
-0.114818
-0.108597
-0.0973749
-0.0910853
-0.0846825
-0.0883477
-0.0921713
-0.0809042
-0.0850898
-0.0845242
-0.0840039
-0.0736192
-0.0583025
-0.0429406
-0.0324655
-0.0319226
-0.0514249
-0.0710628
-0.0657914
-0.0556556
-0.0454972
-0.0404293
-0.0303614
-0.0253388
-0.0252483
-0.0297508
-0.0183933
-0.00579149
0.0230999
0.0383035
0.0596159
0.0919009
0.11939
0.142082
0.168847
0.178801
0.211403
0.246743
0.300724
0.339277
0.357942
0.351629
0.320159
0.303439
0.306335
0.314118
0.316765
0.319457
0.272263
0.225068
0.177828
0.150475
0.127919
0.105272
0.0876245
0.0700679
0.0475339
0.0300226
0.017534
0.0150227
0.0173756
0.0196381
0.0267647
0.0340046
0.0463349
0.0486199
0.0408144
0.0678732
0.169638
0.366199
0.662579
0.758869
1.31511
1.60122
1.82715
1.97271
1.99803
1.84817
1.54319
1.06326
0.533348
0.193484
0.00352919
-0.0466291
-0.0368327
-0.0419458
-0.0770589
-0.111878
-0.146606
-0.156222
-0.160747
-0.175204
-0.199638
-0.198937
-0.198168
-0.19224
-0.18629
-0.19509
-0.208642
-0.217036
-0.230271
-0.228348
-0.231289
-0.239163
-0.236991
-0.234932
-0.253326
-0.257715
-0.268258
-0.28509
-0.288212
-0.286787
-0.297104
-0.328009
-0.358937
-0.379253
-0.408439
-0.445837
-0.451063
-0.459683
-0.47224
-0.469502
-0.476629
-0.493643
-0.520452
-0.536991
-0.528281
-0.519683
-0.516176
-0.502624
-0.494027
-0.475294
-0.466471
-0.437602
-0.403801
-0.365068
-0.321403
-0.277579
-0.243756
-0.224774
-0.205746
-0.196651
-0.182489
-0.168213
-0.153846
-0.139412
-0.134864
-0.125181
-0.125271
-0.135113
-0.139773
-0.134366
-0.113982
-0.118688
-0.103461
-0.113122
-0.0926016
-0.101968
-0.111267
-0.105701
-0.105317
-0.110136
-0.0850224
-0.0799319
-0.0698415
-0.0747057
-0.07457
-0.0845021
-0.0795699
-0.0847283
-0.0699319
-0.065226
-0.0405655
-0.0459048
-0.0463347
-0.0418777
-0.0326016
-0.0135293
0.0255205
0.0599096
0.0800453
0.0964707
0.108258
0.137444
0.182783
0.244073
0.280973
0.307987
0.299299
0.289299
0.27215
0.267557
0.281335
0.289118
0.276493
0.238688
0.215611
0.137127
0.103168
0.0786201
0.0584843
0.0376472
0.0311087
0.0141177
0.00742084
-0.00291848
0.00402722
-0.00644794
-0.0147738
-0.00658372
0.0124886
0.0217646
0.0320135
0.0527601
0.0837557
0.154796
0.295543
0.525679
0.830249
1.15409
1.43722
1.52982
1.92206
2.06385
2.07495
1.94507
1.68932
1.28787
0.816018
0.453982
0.216516
0.148371
0.124231
0.109072
0.0732805
0.0172397
-0.0438462
-0.0446155
-0.0502716
-0.0609503
-0.0666516
-0.0923756
-0.113122
-0.118937
-0.104728
-0.0954299
-0.0910408
-0.121493
-0.116787
-0.131991
-0.137217
-0.142557
-0.138032
-0.148529
-0.159095
-0.159683
-0.185317
-0.191041
-0.211855
-0.217828
-0.224095
-0.225475
-0.232014
-0.248507
-0.255045
-0.281516
-0.318054
-0.344548
-0.361063
-0.382466
-0.393801
-0.399955
-0.415928
-0.436629
-0.462059
-0.492285
-0.512308
-0.522036
-0.511606
-0.505928
-0.5
-0.478756
-0.467217
-0.460407
-0.433462
-0.396403
-0.354276
-0.316878
-0.284344
-0.256493
-0.223371
-0.210068
-0.191652
-0.163167
-0.129502
-0.110679
-0.0966063
-0.0923756
-0.0830317
-0.0936878
-0.094457
-0.080362
-0.0563122
-0.0222172
0.0219683
0.0761312
0.135136
0.194095
0.267692
0.366109
0.489457
0.642692
0.78586
0.864005
0.802217
0.505475
0.00875564
-0.552919
-1.03466
-1.38152
-1.58337
-1.64018
-1.85188
-1.96346
-2.025
-2.03145
-1.96262
-1.84324
-1.71783
-1.56106
-1.40774
-1.28308
-1.18801
-1.0812
-0.943846
-0.736448
-0.549661
-0.409027
-0.345181
-0.303394
-0.213281
-0.0742307
0.149593
0.368258
0.491787
0.520136
0.513281
0.451222
0.434253
0.442262
0.460226
0.473145
0.495973
0.518688
0.541425
0.554253
0.572172
0.580136
0.587986
0.600815
0.623597
0.666335
0.703959
0.721606
0.749163
0.766584
0.788869
0.810973
0.837986
0.869819
0.921538
0.938054
0.974412
0.980679
0.9819
0.978235
0.97957
0.985769
0.976833
0.937851
0.923846
0.88
0.831425
0.792964
0.73457
0.696109
0.642557
0.574095
0.525724
0.472489
0.409367
0.351312
0.288303
0.250317
0.212262
0.184344
0.171606
0.119118
0.106787
0.0744118
0.0466064
0.0228734
0.00787337
-0.00341623
-0.0257918
-0.0291628
-0.0384615
-0.0532579
-0.0680542
-0.0921493
-0.0899547
-0.0872398
-0.0860407
-0.0832579
-0.0945022
-0.100271
-0.100747
-0.11086
-0.105543
-0.0946606
-0.0982126
-0.0861312
-0.0833258
-0.0747963
-0.0958823
-0.102285
-0.110023
-0.110023
-0.107534
-0.0971945
-0.0983258
-0.100407
-0.127715
-0.155928
-0.159638
-0.163643
-0.167692
-0.16638
-0.174547
-0.182127
-0.213959
-0.235045
-0.240588
-0.240724
-0.225362
-0.229389
-0.227443
-0.229593
-0.236063
-0.252195
-0.243032
-0.243439
-0.258145
-0.241787
-0.219367
-0.206199
-0.20776
-0.214186
-0.225815
-0.217466
-0.209027
-0.19552
-0.191923
-0.178235
-0.179457
-0.175543
-0.176606
-0.172692
-0.168891
-0.150272
-0.146765
-0.133326
-0.104864
-0.0964254
-0.0780769
-0.0498416
-0.0117194
0.0113122
0.0343213
0.0623982
0.0904752
0.138733
0.182081
0.205588
0.209072
0.187557
0.170973
0.174367
0.18776
0.191177
0.184502
0.14776
0.0907692
0.058552
0.0311539
0.0284616
0.0256109
-0.00742082
-0.0307014
-0.0442082
-0.0578959
-0.0619231
-0.0462443
-0.0358145
-0.0105656
-0.0104977
-0.0104977
-0.020543
-0.0159276
0.0285068
0.15267
0.391674
0.685407
0.988982
1.25751
1.51091
1.73419
1.85726
1.86007
1.71262
1.41511
1.29783
0.540701
0.213688
0.0316742
-0.0304751
-0.0426244
-0.0646833
-0.101652
-0.153394
-0.17991
-0.196267
-0.202511
-0.218575
-0.22457
-0.215656
-0.216765
-0.212896
-0.21905
-0.225136
-0.246131
-0.237195
-0.243258
-0.254457
-0.255792
-0.252195
-0.24871
-0.260453
-0.257738
-0.266018
-0.280588
-0.301538
-0.308665
-0.316719
-0.335679
-0.350045
-0.374548
-0.403643
-0.426855
-0.448597
-0.478484
-0.487738
-0.504661
-0.515973
-0.532014
-0.572873
-0.603688
-0.639434
-0.655158
-0.66595
-0.676652
-0.672353
-0.678009
-0.673597
-0.669073
-0.674593
-0.665091
-0.640679
-0.60629
-0.556901
-0.517398
-0.477851
-0.438235
-0.393507
-0.35371
-0.298959
-0.254118
-0.209095
-0.178937
-0.163597
-0.1281
-0.112398
-0.111539
-0.105498
-0.089344
-0.0831675
-0.0670589
-0.0559277
-0.0446833
-0.0532806
-0.06681
-0.0603621
-0.0440951
-0.0380996
-0.0322172
-0.0213349
-0.0204073
-0.0294345
-0.0386426
-0.0330091
-0.0425566
-0.0272399
-0.0170589
-0.0219005
-0.0167874
-0.0116969
-0.0217874
-0.0220815
0.00242077
0.031742
0.0610859
0.0708823
0.111719
0.138846
0.14724
0.166765
0.202376
0.253982
0.316109
0.373213
0.379683
0.344887
0.324661
0.305973
0.310769
0.329706
0.323348
0.301901
0.270385
0.22371
0.181878
0.139977
0.122986
0.0809729
0.0688236
0.0616064
0.054457
0.0473303
0.0502941
0.0382579
0.0311765
0.0489593
0.0516969
0.0593892
0.066991
0.0844797
0.111946
0.164367
0.291584
0.508733
0.790724
1.06762
1.30914
1.51048
1.71161
1.81767
1.84376
1.75486
1.556
1.22199
0.792896
0.658665
0.13957
-0.0143439
-0.0630317
-0.0866516
-0.0903393
-0.11405
-0.132896
-0.136697
-0.155407
-0.154072
-0.157647
-0.176267
-0.195
-0.19371
-0.202444
-0.191244
-0.189932
-0.193416
-0.206606
-0.219706
-0.228077
-0.231991
-0.246855
-0.227828
-0.229729
-0.242466
-0.26095
-0.29
-0.309276
-0.338303
-0.336652
-0.343733
-0.35405
-0.362534
-0.374706
-0.401064
-0.427082
-0.453032
-0.468982
-0.474977
-0.475611
-0.476018
-0.48629
-0.516516
-0.531674
-0.546855
-0.542104
-0.532421
-0.507738
-0.493054
-0.468258
-0.448326
-0.428439
-0.398552
-0.358688
-0.313892
-0.279095
-0.234186
-0.194072
-0.168824
-0.158462
-0.147919
-0.122195
-0.101493
-0.0857693
-0.0798643
-0.068733
-0.0572398
-0.0604525
-0.0735973
-0.0918326
-0.0800905
-0.0684163
-0.0566742
-0.0497285
-0.0377149
-0.0406787
-0.0386878
-0.05181
-0.0600679
-0.053552
-0.0521493
-0.0358824
-0.0246154
-0.0283711
-0.0321946
-0.0461313
-0.0502037
-0.0445023
-0.0338914
-0.0134389
-0.00809956
0.0021719
0.0273529
0.0374887
0.0525792
0.0877602
0.108416
0.139977
0.152828
0.226901
0.272081
0.323235
0.335272
0.332715
0.320204
0.302285
0.323484
0.333258
0.341109
0.308416
0.253371
0.192624
0.161697
0.135634
0.109615
0.103462
0.0772398
0.046086
0.0249548
0.00880092
0.0126018
0.041267
0.0398417
0.0384163
0.0620136
0.0607466
0.0494797
0.0332127
0.0518326
0.150339
0.308643
0.561855
0.844932
1.10305
1.33115
1.53914
1.6919
1.75432
1.73161
1.59351
1.31048
0.922602
0.529909
0.242262
0.0745249
0.00665155
-0.00133488
-0.014344
-0.0222173
-0.099887
-0.137308
-0.164548
-0.171697
-0.179005
-0.17629
-0.173597
-0.170837
-0.167964
-0.179932
-0.191787
-0.213575
-0.210317
-0.207014
-0.198575
-0.195023
-0.196267
-0.197353
-0.213394
-0.214706
-0.231787
-0.23491
-0.254231
-0.249547
-0.245769
-0.262783
-0.275317
-0.308009
-0.33052
-0.352602
-0.378778
-0.403529
-0.411538
-0.423167
-0.448801
-0.469027
-0.49405
-0.514095
-0.534004
-0.543891
-0.533484
-0.522964
-0.532375
-0.541674
-0.540882
-0.530181
-0.509525
-0.473891
-0.433258
-0.417579
-0.361787
-0.330792
-0.304819
-0.273801
-0.242715
-0.201629
-0.165497
-0.139185
-0.117715
-0.116018
-0.104253
-0.102149
-0.109864
-0.0973753
-0.074864
-0.0523753
-0.0449092
-0.0424205
-0.0547734
-0.0520812
-0.0592984
-0.0516061
-0.0441627
-0.0469454
-0.0347283
-0.0425338
-0.0303166
-0.0280541
-0.0408821
-0.058846
-0.0469455
-0.0351808
-0.0183935
-0.0115157
-0.00466043
-0.0128053
-0.0259727
-0.0193437
-0.0179184
-0.00162882
0.0145024
0.0559956
0.0780997
0.10129
0.120656
0.136086
0.162398
0.209548
0.272353
0.300407
0.373371
0.375747
0.346855
0.306199
0.293756
0.304977
0.310407
0.310588
0.290724
0.245882
0.196063
0.140928
0.100566
0.0700451
0.0745021
0.0538913
0.0433031
0.032828
0.0173981
0.00699085
-0.00343898
0.00606322
0.0154524
0.0248641
0.0243211
0.0388234
0.0383935
0.0380089
0.0726017
0.172081
0.36638
0.605498
0.879502
1.12333
1.34215
1.53095
1.64968
1.69324
1.66147
1.55957
1.34222
1.00471
0.627262
0.329955
0.117737
0.0303845
-0.00714943
-0.00979647
-0.0424435
-0.0650001
-0.14233
-0.164435
-0.18129
-0.1931
-0.20491
-0.191652
-0.188281
-0.199729
-0.205905
-0.21181
-0.227692
-0.253349
-0.243937
-0.244435
-0.234819
-0.225023
-0.22
-0.224842
-0.239683
-0.259864
-0.265882
-0.272987
-0.27629
-0.280724
-0.286109
-0.297285
-0.319072
-0.356199
-0.383235
-0.394887
-0.415679
-0.435068
-0.437738
-0.448891
-0.479027
-0.498552
-0.527964
-0.542285
-0.546493
-0.545724
-0.534638
-0.518348
-0.516968
-0.505498
-0.499005
-0.497443
-0.465973
-0.419525
-0.383032
-0.366538
-0.309932
-0.288235
-0.261312
-0.244276
-0.217172
-0.189977
-0.15276
-0.125453
-0.112919
-0.100136
-0.0971946
-0.098914
-0.0956109
-0.0874887
-0.0795701
-0.0666742
-0.0537104
-0.0606335
-0.0524435
-0.0642534
-0.0712444
-0.0733484
-0.0557013
-0.04319
-0.0407239
-0.0281447
-0.0255882
-0.0429637
-0.0453393
-0.0427602
-0.0451584
-0.0376697
-0.0300905
-0.0274661
-0.0297964
-0.0271267
-0.0344797
-0.041991
-0.034638
-0.0221946
0.0204751
0.0489367
0.0783484
0.108869
0.125407
0.147783
0.160882
0.204412
0.258054
0.281493
0.37448
0.396538
0.367104
0.336018
0.308529
0.315068
0.336177
0.337217
0.318235
0.279163
0.22
0.180498
0.135905
0.116199
0.106448
0.0916516
0.0769231
0.0573304
0.0326924
0.0130996
0.0234163
0.0286426
0.0437557
0.048914
0.054095
0.0443665
0.0347511
0.0401358
0.0654751
0.160656
0.345634
0.59552
0.860249
1.09995
1.31957
1.51416
1.66867
1.74796
1.72688
1.62561
1.43403
1.1124
0.735882
0.40457
0.173258
0.04681
0.0102262
-0.00151584
-0.0282127
-0.0397285
-0.130928
-0.166878
-0.177579
-0.183167
-0.183643
-0.19405
-0.184412
-0.194593
-0.19948
-0.19914
-0.20871
-0.212964
-0.222172
-0.22629
-0.220362
-0.224389
-0.218258
-0.216968
-0.225792
-0.225091
-0.240294
-0.251719
-0.26448
-0.263394
-0.268326
-0.284027
-0.295158
-0.321154
-0.351652
-0.376041
-0.383846
-0.40991
-0.409525
-0.41819
-0.43638
-0.454502
-0.467557
-0.49043
-0.498235
-0.500996
-0.513575
-0.496176
-0.503733
-0.501199
-0.498597
-0.495973
-0.473326
-0.435747
-0.403213
-0.385611
-0.332896
-0.309977
-0.276946
-0.243756
-0.220475
-0.182172
-0.148778
-0.120362
-0.0967421
-0.0778281
-0.0737783
-0.0793213
-0.0797512
-0.085362
-0.0661086
-0.0569005
-0.0426245
-0.0581675
-0.0485747
-0.0540272
-0.0495928
-0.045362
-0.0413122
-0.0274435
-0.0235973
-0.0196833
-0.0157466
-0.0368326
-0.0329412
-0.0441855
-0.0255204
-0.0168552
-0.0131901
-0.00950226
-0.0107919
-0.0171494
-0.0286878
-0.0204299
-0.0122851
0.0109275
0.0393438
0.0584841
0.0936199
0.104864
0.132172
0.145339
0.169276
0.208846
0.27371
0.303439
0.37776
0.381222
0.348258
0.308552
0.302308
0.304955
0.317036
0.323869
0.300588
0.257036
0.188303
0.143914
0.10405
0.078733
0.0632353
0.0519683
0.0401131
0.0276923
0.00472852
-0.0131674
-0.0199321
-0.034457
-0.0210407
-0.00988687
0.00309956
0.0272625
0.0272172
0.0377828
0.0986652
0.224525
0.445204
0.725453
1.02511
1.28912
1.52742
1.71009
1.82219
1.80873
1.69471
1.46036
1.09993
0.708869
0.387217
0.195226
0.102896
0.0901584
0.08681
0.0475792
0.0123077
-0.00382355
-0.045543
-0.0475339
-0.0543892
-0.0712217
-0.0880543
-0.0999774
-0.106991
-0.104027
-0.105995
-0.117873
-0.134751
-0.141493
-0.143281
-0.155068
-0.151765
-0.148575
-0.155317
-0.157014
-0.168643
-0.190294
-0.207014
-0.213914
-0.225995
-0.223281
-0.230769
-0.253258
-0.265814
-0.288394
-0.321086
-0.333869
-0.351742
-0.369706
-0.372624
-0.380385
-0.397986
-0.425385
-0.447602
-0.459615
-0.476606
-0.473529
-0.475158
-0.466403
-0.462353
-0.453054
-0.453507
-0.433733
-0.403824
-0.368801
-0.338688
-0.328326
-0.277692
-0.251765
-0.220633
-0.199231
-0.192738
-0.161041
-0.134299
-0.117466
-0.100407
-0.0880316
-0.0954751
-0.0926244
-0.0947964
-0.0821493
-0.0696606
-0.0523077
-0.0499321
-0.027466
-0.0099321
0.0275113
0.0597285
0.116606
0.188235
0.279683
0.315973
0.48724
0.60862
0.744887
0.856154
0.837353
0.588416
0.0845249
-0.569412
-1.18324
-1.59201
-1.84575
-2.02437
-2.15301
-2.22163
-2.22505
-2.18299
-2.1
-1.97579
-1.83523
-1.66848
-1.52072
-1.39715
-1.26814
-1.15425
-1.10081
-0.873416
-0.732738
-0.623801
-0.546312
-0.479728
-0.408575
-0.292534
-0.111471
0.0944118
0.275204
0.400928
0.446493
0.432036
0.417579
0.418009
0.438349
0.458665
0.484027
0.504434
0.514842
0.530158
0.550317
0.580362
0.610339
0.620113
0.664842
0.68448
0.704027
0.713552
0.737896
0.767014
0.80586
0.834525
0.873054
0.906629
0.920317
0.93905
0.95276
0.95629
0.979615
0.987941
1.0064
0.995023
0.958891
0.932896
0.886968
0.846109
0.800158
0.769208
0.753281
0.672466
0.601742
0.541086
0.48543
0.429796
0.374072
0.333484
0.293009
0.27767
0.227421
0.187104
0.146584
0.115339
0.0830316
0.0654072
0.0356334
0.0248868
0.0133484
-0.0138236
-0.0361313
-0.063077
-0.0692534
-0.0739594
-0.0769005
-0.0880996
-0.0681675
-0.072534
-0.0815838
-0.0904752
-0.0941177
-0.0873756
-0.0803847
-0.0680318
-0.0652716
-0.0520589
-0.0586426
-0.0893666
-0.069525
-0.0740951
-0.0731901
-0.0523756
-0.0626245
-0.0651132
-0.0804978
-0.0887105
-0.0987331
-0.114977
-0.127014
-0.13957
-0.142489
-0.14043
-0.143145
-0.150452
-0.167104
-0.178167
-0.178484
-0.188235
-0.182376
-0.18086
-0.203733
-0.216312
-0.20276
-0.213529
-0.21871
-0.213507
-0.212873
-0.20181
-0.210113
-0.207466
-0.218846
-0.214299
-0.214208
-0.203891
-0.203665
-0.188484
-0.178258
-0.177919
-0.187557
-0.187217
-0.181991
-0.166878
-0.141923
-0.117081
-0.0972851
-0.0574887
-0.0377828
-0.00809951
0.0115611
0.0210181
0.0554299
0.0897059
0.139072
0.178597
0.203213
0.203009
0.177896
0.152783
0.152738
0.177715
0.19767
0.192783
0.153009
0.108326
0.0585973
0.02862
0.00346154
-0.0319004
-0.0274887
-0.0333031
-0.0492307
-0.0653393
-0.0818777
-0.0838234
-0.0761538
-0.0687329
-0.0466967
-0.0550904
-0.0488008
-0.0430316
-0.0327374
-0.0083257
0.0850228
0.267398
0.528914
0.61457
1.08948
1.32867
1.52226
1.67027
1.70776
1.63025
1.44367
1.11421
0.718054
0.345181
0.109774
-0.0241855
-0.0879638
-0.0972624
-0.131833
-0.177557
-0.198756
-0.220407
-0.237534
-0.245271
-0.253575
-0.272308
-0.276267
-0.270136
-0.263982
-0.262873
-0.276719
-0.285701
-0.299751
-0.288846
-0.297986
-0.282172
-0.286448
-0.300701
-0.289955
-0.289185
-0.298394
-0.307602
-0.331787
-0.325995
-0.330249
-0.314502
-0.333756
-0.357918
-0.387104
-0.406403
-0.435792
-0.450158
-0.47457
-0.483982
-0.513348
-0.537692
-0.561991
-0.591425
-0.60095
-0.625679
-0.62052
-0.625452
-0.620407
-0.62543
-0.635498
-0.640633
-0.625995
-0.596584
-0.552285
-0.518122
-0.468959
-0.424706
-0.385339
-0.35586
-0.326199
-0.276471
-0.251651
-0.186742
-0.166742
-0.111561
-0.101086
-0.0952714
-0.0842307
-0.0830542
-0.0668551
-0.0507918
-0.0448416
-0.0338914
-0.0228054
-0.0315837
-0.0454298
-0.0445475
-0.0438914
-0.0235068
-0.0082579
-0.00814477
0.00183257
0.00683257
0.00185513
0.026742
0.0415384
0.0611991
0.0858145
0.085362
0.114909
0.154502
0.184095
0.258733
0.348371
0.493054
0.687783
0.862964
1.02394
1.18611
1.33876
1.47864
1.60964
1.74154
1.84416
1.83686
1.61923
1.15579
0.430973
-0.290566
-0.843824
-1.14326
-1.18837
-1.08385
-1.03437
-0.785045
-0.675882
-0.571833
-0.457896
-0.324095
-0.190362
-0.106697
-0.0931674
-0.0996154
-0.115995
-0.112285
-0.108597
-0.0950001
-0.0865611
-0.0932353
-0.0898869
-0.0866516
-0.0783936
-0.0902037
-0.0971946
-0.0992308
-0.0963575
-0.0936199
-0.100996
-0.10862
-0.106448
-0.104457
-0.112602
-0.125905
-0.119186
-0.117534
-0.111018
-0.104683
-0.108439
-0.117195
-0.125792
-0.134231
-0.137534
-0.120769
-0.104095
-0.0773983
-0.0557014
-0.0438462
-0.0369231
-0.0299096
-0.0129865
0.00382343
0.0455428
0.077285
0.0941629
0.121267
0.128575
0.126154
0.118824
0.106312
0.0982353
0.0940724
0.0938236
0.0823531
0.0600453
0.0418552
-0.00192302
-0.0411312
-0.0652488
-0.0842081
-0.101244
-0.106199
-0.114072
-0.12052
-0.13129
-0.14681
-0.142376
-0.127919
-0.128213
-0.123281
-0.128032
-0.127602
-0.137194
-0.141765
-0.15629
-0.145747
-0.14509
-0.134389
-0.128575
-0.107579
-0.101606
-0.0905429
-0.0993438
-0.103032
-0.0963574
-0.0942081
-0.0763348
-0.0775112
-0.0628505
-0.0574433
-0.0663348
-0.0745927
-0.0672171
-0.0593212
-0.0558371
-0.0168099
-0.00771487
0.000543088
-0.0132125
-0.0252713
-0.0206107
-0.00350663
0.00239831
0.00816754
-0.00040713
-0.00864249
-0.0256108
-0.0270587
-0.0279411
-0.0182805
-0.0130316
-0.00710398
0.00429872
-0.00423068
-0.0127375
-0.02638
-0.0200904
-0.0138687
0.012353
0.0234616
0.029457
0.0453168
0.056086
0.0666969
0.0920363
0.112104
0.131991
0.151787
0.166448
0.195996
0.24543
0.279751
0.324005
0.338167
0.307262
0.291357
0.300498
0.309683
0.313937
0.288213
0.242489
0.176697
0.12095
0.080181
0.0694797
0.0538688
0.0283485
-0.00205877
-0.0224434
-0.0377828
-0.0230995
-0.00839362
0.00649327
0.0165838
0.0169005
0.012353
0.0029186
-0.00644791
0.0191403
0.0996833
0.255113
0.525475
0.815905
1.11134
1.3617
1.5769
1.7619
1.86663
1.85113
1.82554
1.39984
0.954072
0.508122
0.1969
0.0554298
0.00875565
0.00701356
-0.0145475
-0.0709502
-0.122285
-0.173597
-0.199932
-0.196222
-0.192466
-0.198688
-0.219683
-0.220475
-0.216063
-0.221425
-0.236697
-0.23181
-0.221855
-0.211742
-0.206697
-0.211719
-0.226674
-0.241584
-0.256425
-0.266312
-0.271222
-0.266199
-0.256357
-0.261674
-0.252398
-0.258914
-0.286719
-0.320814
-0.36629
-0.397896
-0.404955
-0.413281
-0.411719
-0.454525
-0.475928
-0.520249
-0.547398
-0.578077
-0.583145
-0.6031
-0.6081
-0.603009
-0.617647
-0.636968
-0.636109
-0.645272
-0.629548
-0.608869
-0.588167
-0.572398
-0.536493
-0.515543
-0.47957
-0.453529
-0.407466
-0.356357
-0.300113
-0.258756
-0.232217
-0.195543
-0.173778
-0.151878
-0.119774
-0.0975565
-0.0801583
-0.072647
-0.0602036
-0.0627828
-0.0602715
-0.0626923
-0.0650452
-0.0674887
-0.0550905
-0.0678733
-0.0608145
-0.0537783
-0.0516742
-0.0395927
-0.0375791
-0.0256787
-0.0238461
-0.0170814
-0.000226229
-0.0182353
-0.0161538
-0.0292081
-0.0374887
-0.0311086
-0.0351131
-0.0244118
-0.0188235
-0.00307691
0.00809956
-0.00463802
0.00373304
0.0183032
0.043914
0.0854525
0.118009
0.146222
0.15957
0.182896
0.194389
0.238937
0.296516
0.347738
0.383394
0.383937
0.349548
0.330045
0.315294
0.315317
0.315091
0.304729
0.284412
0.274072
0.20871
0.173258
0.127828
0.0874209
0.071991
0.0564027
0.0456335
0.0195701
0.0228281
0.0300679
0.0160408
0.000882417
-0.00520357
-0.00712666
0.000656158
0.00751135
0.0241177
0.0359503
0.118733
0.288575
0.565679
0.879457
1.18378
1.43299
1.51183
1.77559
1.80443
1.68364
1.3829
0.932127
0.446154
0.115023
-0.036267
-0.0625565
-0.0538914
-0.0652036
-0.121516
-0.187896
-0.219321
-0.225769
-0.212285
-0.21871
-0.219955
-0.231086
-0.237059
-0.237919
-0.238665
-0.239299
-0.234796
-0.235068
-0.240113
-0.244819
-0.264186
-0.273439
-0.277511
-0.276471
-0.270385
-0.259118
-0.252624
-0.260996
-0.274231
-0.28233
-0.290385
-0.293394
-0.301448
-0.304525
-0.312602
-0.335611
-0.353643
-0.386629
-0.409638
-0.41776
-0.425973
-0.429299
-0.432738
-0.43129
-0.434932
-0.44862
-0.452557
-0.411606
-0.360928
-0.29043
-0.215
-0.159683
-0.109367
-0.0640498
-0.00366515
0.0267648
0.0720362
0.102308
0.122624
0.133032
0.0936426
0.0544344
0.0103846
-0.00871035
-0.0278054
-0.0419004
-0.0508823
-0.0595248
-0.0729411
-0.0911764
-0.104389
-0.0977375
-0.0961537
-0.0946832
-0.0882805
-0.0819004
-0.085543
-0.074276
-0.0730316
-0.0720588
-0.0762443
-0.0756335
-0.0752262
-0.0549321
-0.00968322
0.0654978
0.225611
0.455701
0.730792
0.965724
1.15552
1.32523
1.37971
1.57898
1.63808
1.59686
1.38029
0.933552
0.426946
0.030905
-0.119185
-0.13276
-0.0742081
-0.0482579
-0.0583257
-0.11543
-0.146086
-0.142557
-0.12405
-0.101833
-0.0857014
-0.0801358
-0.0799095
-0.0801584
-0.0661765
-0.0582579
-0.0615837
-0.0508597
-0.0407014
-0.0407919
-0.05638
-0.0576017
-0.0744796
-0.0618327
-0.0645249
-0.052466
-0.0558144
-0.0597285
-0.0594344
-0.0801358
-0.116652
-0.118846
-0.126222
-0.133711
-0.126199
-0.138597
-0.170996
-0.188462
-0.216086
-0.238891
-0.256901
-0.270068
-0.268349
-0.271742
-0.280204
-0.288756
-0.302534
-0.311493
-0.305815
-0.28543
-0.260204
-0.240136
-0.210249
-0.190498
-0.170928
-0.151539
-0.122466
-0.103462
-0.0646155
-0.0406562
-0.0264707
-0.0119684
-0.00723988
-0.00728512
-0.012172
-0.01681
-0.00126702
-0.000362039
-0.00416297
-0.00769237
-0.0209503
-0.039163
-0.0573757
-0.0455883
-0.0337557
-0.0317196
-0.0195024
-0.0420589
-0.0444571
-0.0517195
-0.0588915
-0.0659503
-0.0729186
-0.064638
-0.0511991
-0.0475792
-0.0537784
-0.0548869
-0.0608597
-0.0668326
-0.0677828
-0.0687331
-0.0646833
-0.0555204
-0.0612896
-0.05681
-0.0669457
-0.0564027
-0.0448416
-0.0170588
0.00678733
0.0315158
0.0920362
0.157828
0.21957
0.321606
0.423416
0.559253
0.708032
0.864525
0.969299
0.938462
0.717579
0.266968
-0.348552
-0.974208
-1.4152
-1.53636
-1.98249
-2.18355
-2.27455
-2.30048
-2.25143
-2.13742
-1.97851
-1.79957
-1.59061
-1.41165
-1.29265
-1.22362
-1.11955
-0.980633
-0.846719
-0.747941
-0.674163
-0.620407
-0.531516
-0.402647
-0.228778
-0.014932
0.158801
0.287376
0.31595
0.33448
0.333009
0.316674
0.325226
0.343733
0.367059
0.390226
0.423349
0.446403
0.464434
0.477511
0.485543
0.493575
0.516493
0.534344
0.577036
0.614706
0.637376
0.660113
0.692919
0.715769
0.753643
0.786538
0.839366
0.847195
0.919955
0.94276
0.960724
0.963869
0.967285
0.965792
0.974231
0.977647
0.966041
0.929683
0.893597
0.852738
0.802036
0.75138
0.710701
0.665045
0.634547
0.569253
0.514118
0.454095
0.409027
0.363914
0.323688
0.283416
0.268077
0.212715
0.177421
0.142104
0.10638
0.0797511
0.0568552
0.0525565
0.0419682
0.0302488
0.0226244
-0.0105657
-0.0138688
-0.0317647
-0.0485068
-0.0448191
-0.0426697
-0.0389593
-0.0392761
-0.0442308
-0.0489819
-0.0533937
-0.0623077
-0.0658145
-0.0537331
-0.0511539
-0.0379865
-0.0341403
-0.044525
-0.0543892
-0.0543892
-0.0553621
-0.0534164
-0.0442308
-0.0428281
-0.0584163
-0.079457
-0.0974435
-0.11138
-0.130769
-0.140294
-0.149615
-0.148348
-0.156312
-0.168394
-0.184502
-0.194819
-0.199548
-0.218891
-0.207738
-0.215905
-0.208303
-0.200113
-0.201448
-0.222443
-0.222964
-0.227805
-0.22181
-0.214661
-0.211629
-0.207941
-0.199005
-0.199842
-0.215588
-0.196448
-0.212285
-0.183122
-0.168801
-0.174434
-0.169932
-0.17043
-0.170973
-0.156652
-0.157534
-0.133575
-0.124751
-0.0910633
-0.0723529
-0.0435973
-0.0249095
-0.0112896
0.0173077
0.0408371
0.0644796
0.10819
0.147104
0.191086
0.230453
0.229932
0.214434
0.178914
0.173348
0.197828
0.207353
0.216855
0.18638
0.135701
0.0898868
0.0588009
0.042466
0.0358823
0.0191628
0.00226241
-0.0247285
-0.0519231
-0.0594344
-0.0672625
-0.0553394
-0.0336199
-0.0271041
-0.0158597
-0.0147285
-0.0189593
0.00153843
0.0967194
0.291697
0.571425
0.876063
1.15557
1.40491
1.60407
1.7331
1.76692
1.67088
1.41989
1.31387
0.557941
0.222014
0.0311312
-0.0295928
-0.0552036
-0.0756788
-0.126018
-0.161267
-0.196403
-0.211358
-0.211199
-0.215882
-0.23052
-0.240181
-0.239932
-0.244774
-0.234661
-0.23957
-0.249412
-0.249186
-0.269027
-0.283982
-0.274208
-0.264909
-0.261471
-0.259163
-0.278077
-0.293054
-0.31405
-0.325995
-0.328756
-0.346765
-0.369547
-0.381674
-0.397398
-0.43629
-0.468371
-0.499186
-0.519389
-0.534548
-0.554706
-0.564774
-0.604548
-0.624095
-0.638439
-0.662805
-0.692217
-0.711674
-0.701244
-0.695701
-0.675181
-0.684525
-0.668756
-0.663054
-0.637376
-0.606742
-0.561109
-0.50543
-0.459774
-0.403914
-0.353009
-0.311946
-0.280815
-0.239638
-0.198371
-0.157081
-0.115656
-0.0990497
-0.0772851
-0.0652941
-0.0680543
-0.0756335
-0.0730317
-0.0554072
-0.0427375
-0.0251583
-0.0325566
-0.0297964
-0.0169004
-0.0289819
-0.0162217
-0.0187557
0.0035294
0.0106787
0.0177602
0.00977376
0.00660634
-0.00169685
-0.0202715
-0.00402716
0.00690049
0.0176018
0.0182579
0.0239593
0.0445475
0.0550679
0.0804299
0.105611
0.140747
0.151267
0.182647
0.185271
0.219344
0.254615
0.295973
0.33319
0.360905
0.343824
0.331312
0.332715
0.328688
0.336244
0.332308
0.297466
0.267353
0.232104
0.196742
0.166177
0.135521
0.104751
0.078869
0.052964
0.0420364
0.0310183
0.0350001
0.0489368
0.0528734
0.0569232
0.0509729
0.0399322
0.0438236
0.052534
0.101109
0.199593
0.378032
0.626403
0.894706
1.13787
1.36086
1.56373
1.73124
1.77857
1.72575
1.56285
1.26505
0.852308
0.45948
0.186448
0.0482578
0.0150451
0.0119003
-0.0161086
-0.0789367
-0.126787
-0.174615
-0.172466
-0.160362
-0.158258
-0.156109
-0.168891
-0.186584
-0.194186
-0.211878
-0.20957
-0.207285
-0.204887
-0.212398
-0.214683
-0.216742
-0.243778
-0.251041
-0.258937
-0.262851
-0.252941
-0.264005
-0.265905
-0.278462
-0.30638
-0.329412
-0.347059
-0.373914
-0.379412
-0.388167
-0.400294
-0.431222
-0.451493
-0.466471
-0.481448
-0.506357
-0.506176
-0.505701
-0.495045
-0.504344
-0.508484
-0.512579
-0.506719
-0.485882
-0.475068
-0.444276
-0.433552
-0.372715
-0.331833
-0.310882
-0.29991
-0.268914
-0.242851
-0.206787
-0.170611
-0.139253
-0.127647
-0.12095
-0.11414
-0.127353
-0.11043
-0.0984163
-0.0861991
-0.0637556
-0.0711764
-0.0685746
-0.0759954
-0.0833936
-0.0807918
-0.0831221
-0.0704298
-0.0677828
-0.0601358
-0.0525565
-0.0550905
-0.0676923
-0.0754298
-0.0632579
-0.0562217
-0.054276
-0.0474434
-0.0556561
-0.0438461
-0.0470362
-0.0603393
-0.0638009
-0.0523303
-0.0361539
-0.0150905
0.000837088
0.0319005
0.0533258
0.0753846
0.0983937
0.117466
0.152534
0.168575
0.250475
0.303167
0.336063
0.34371
0.325634
0.306177
0.294819
0.311674
0.31733
0.302444
0.272444
0.222466
0.17233
0.136901
0.111244
0.100317
0.0844344
0.0536652
0.022896
0.0171946
0.00142542
0.000565648
0.00966069
0.0236652
0.032715
0.0317874
0.040905
0.0350679
0.0392986
0.0784389
0.182353
0.371154
0.63491
0.923529
1.17713
1.40063
1.58405
1.70235
1.74048
1.67351
1.50613
1.19842
0.800611
0.437919
0.185339
0.0477375
-0.00500005
-0.0178734
-0.0358598
-0.0488236
-0.131629
-0.164208
-0.181539
-0.198756
-0.205905
-0.193032
-0.200045
-0.201833
-0.208507
-0.214955
-0.226312
-0.227398
-0.233348
-0.239231
-0.240091
-0.235882
-0.226561
-0.227014
-0.242398
-0.262873
-0.273891
-0.27086
-0.269072
-0.27362
-0.26914
-0.285588
-0.312828
-0.330453
-0.368235
-0.390656
-0.40733
-0.422579
-0.436041
-0.447919
-0.473665
-0.503869
-0.523914
-0.533869
-0.548801
-0.548756
-0.558371
-0.552851
-0.557195
-0.541471
-0.540747
-0.540091
-0.524412
-0.493801
-0.453258
-0.442692
-0.387081
-0.356335
-0.31552
-0.294593
-0.273575
-0.232466
-0.191267
-0.155
-0.12862
-0.117036
-0.100339
-0.103213
-0.0958822
-0.0884388
-0.086018
-0.0736877
-0.0614026
-0.0541402
-0.056742
-0.0692307
-0.0716967
-0.0743212
-0.0621266
-0.0551356
-0.04819
-0.0312669
-0.0343212
-0.0423076
-0.0353845
-0.0436198
-0.0369003
-0.0302714
-0.0237329
-0.0171719
-0.0206108
-0.0191175
-0.0227601
-0.0365157
-0.050475
-0.0294795
-0.00359714
0.0175793
0.0245024
0.0575341
0.0818101
0.102127
0.133371
0.160385
0.187896
0.20052
0.287851
0.34948
0.374751
0.348281
0.315181
0.29086
0.300905
0.315679
0.325475
0.295181
0.259864
0.209186
0.163371
0.127489
0.106539
0.0955431
0.0746155
0.0436879
0.0278056
0.00692323
-0.00398177
-0.00495461
0.00404984
0.00800914
0.0119232
0.025792
0.0246381
0.00852951
0.0273304
0.0759729
0.204344
0.417557
0.695679
0.973801
1.20183
1.41477
1.59751
1.69995
1.72224
1.63934
1.46154
1.1338
0.736086
0.378303
0.13552
0.0126018
-0.0202942
-0.0380091
-0.0506109
-0.0631448
-0.150543
-0.172873
-0.200045
-0.217149
-0.214163
-0.211131
-0.208145
-0.200091
-0.2019
-0.213462
-0.214955
-0.231222
-0.227421
-0.238507
-0.229525
-0.230656
-0.232036
-0.228982
-0.241833
-0.260814
-0.280792
-0.306697
-0.313529
-0.321086
-0.323982
-0.336787
-0.358937
-0.374887
-0.39414
-0.416674
-0.437941
-0.433462
-0.443665
-0.44871
-0.47362
-0.493281
-0.507624
-0.5369
-0.546154
-0.540407
-0.534774
-0.529072
-0.508303
-0.502421
-0.486448
-0.460475
-0.429547
-0.393642
-0.352851
-0.337127
-0.271335
-0.230362
-0.204231
-0.183032
-0.166719
-0.140271
-0.118778
-0.102217
-0.0905429
-0.0736877
-0.0717646
-0.0794117
-0.0818099
-0.0890949
-0.0864705
-0.0639366
-0.0564705
-0.0438235
-0.056018
-0.0480769
-0.0502036
-0.0474434
-0.0448416
-0.0423981
-0.0400452
-0.0327149
-0.0303846
-0.0330995
-0.0409276
-0.0438914
-0.0420362
-0.035362
-0.0288009
-0.0223529
-0.0159728
-0.00468324
0.0065385
0.00757921
0.0283937
0.0492308
0.09
0.116199
0.143303
0.151584
0.176154
0.211719
0.253213
0.305475
0.33819
0.356041
0.328597
0.310317
0.300543
0.308982
0.300815
0.306516
0.271652
0.211606
0.176516
0.146403
0.116244
0.0907241
0.0601132
0.0393892
0.03362
0.0228282
0.0320589
0.0312897
0.0306109
0.0149775
0.00932133
0.0136426
0.0277603
0.0418552
0.0458145
0.0897512
0.183575
0.347263
0.580882
0.854367
1.08265
1.3007
1.49846
1.66104
1.73853
1.71611
1.57885
1.32163
0.949321
0.561946
0.264389
0.0918779
0.0145701
-0.0125113
-0.0394118
-0.0912896
-0.148213
-0.170068
-0.187036
-0.183914
-0.170633
-0.182285
-0.193914
-0.215498
-0.232081
-0.238665
-0.23009
-0.231425
-0.222647
-0.223688
-0.219706
-0.235679
-0.252014
-0.264253
-0.261765
-0.276335
-0.276878
-0.273326
-0.285475
-0.313054
-0.330453
-0.35233
-0.358213
-0.367534
-0.380158
-0.39638
-0.406606
-0.43638
-0.455995
-0.475679
-0.490226
-0.499638
-0.513891
-0.523032
-0.537127
-0.551176
-0.560204
-0.569208
-0.573213
-0.557285
-0.536357
-0.505407
-0.479434
-0.443371
-0.422308
-0.396176
-0.365023
-0.323846
-0.287715
-0.271493
-0.205136
-0.168552
-0.151787
-0.12991
-0.132919
-0.120905
-0.108733
-0.0913349
-0.0836878
-0.0858145
-0.0977602
-0.084819
-0.0769457
-0.0740951
-0.0711991
-0.0583258
-0.0503168
-0.0373756
-0.039638
-0.0419683
-0.0394344
-0.0420136
-0.0397511
-0.0376923
-0.0407918
-0.0289592
-0.0272172
-0.020543
-0.0290045
-0.0376697
-0.0416289
-0.035724
-0.00497735
0.00567877
0.0263122
0.0418779
0.067534
0.0985521
0.120249
0.142964
0.17681
0.216674
0.267557
0.314389
0.341968
0.334887
0.30276
0.285
0.301018
0.305294
0.327851
0.299118
0.259661
0.199842
0.154909
0.124842
0.114457
0.0838687
0.0781674
0.0474434
0.0167421
0.00617647
0.00556561
0.0149095
0.0191629
0.0332806
0.0223756
0.0314932
0.0406108
0.0397511
0.0487556
0.102647
0.22129
0.444683
0.523032
0.99129
1.22941
1.44744
1.61532
1.71799
1.69045
1.57292
1.34043
0.988054
0.600701
0.288303
0.0858372
-0.0116062
-0.0390044
-0.0414253
-0.0686425
-0.105769
-0.142805
-0.169774
-0.181674
-0.193552
-0.195452
-0.202376
-0.209366
-0.206357
-0.213303
-0.220136
-0.22181
-0.238394
-0.234864
-0.246312
-0.242783
-0.239525
-0.231878
-0.235158
-0.249593
-0.264864
-0.286041
-0.293122
-0.320407
-0.313529
-0.326471
-0.348688
-0.364638
-0.393801
-0.426222
-0.437353
-0.447715
-0.457738
-0.462692
-0.467489
-0.492036
-0.51129
-0.52543
-0.544525
-0.543665
-0.547851
-0.537104
-0.52129
-0.505407
-0.49448
-0.483439
-0.457421
-0.426403
-0.380475
-0.329593
-0.303688
-0.262738
-0.226606
-0.20543
-0.184118
-0.157783
-0.141312
-0.124728
-0.113009
-0.0861765
-0.0791402
-0.0818552
-0.0893212
-0.0865384
-0.0786425
-0.0857692
-0.0780316
-0.0602488
-0.042285
-0.0442534
-0.0509954
-0.0578733
-0.0498869
-0.0471946
-0.0397284
-0.0173529
-0.0250452
-0.0178507
-0.0256787
-0.023733
-0.0371041
-0.0357014
-0.0344118
-0.0333258
-0.0173077
-0.0163575
-0.0105656
-0.0098643
-0.00425345
0.026199
0.0565158
0.0969909
0.137851
0.139683
0.16681
0.191018
0.221222
0.272308
0.319118
0.351222
0.34819
0.329593
0.309887
0.303552
0.305498
0.306086
0.290837
0.250136
0.234389
0.16862
0.132715
0.101719
0.070724
0.0447285
0.0237556
0.0127828
0.00687787
0.0109729
0.00515842
0.00945705
0.00375569
-0.00196829
0.00223982
0.0113349
0.0253394
0.0543439
0.143394
0.317466
0.556561
0.825588
1.07428
1.30738
1.51955
1.58063
1.75545
1.71921
1.56181
1.28828
0.888846
0.488982
0.179389
0.0106561
-0.0663123
-0.0862896
-0.124615
-0.171855
-0.233778
-0.250747
-0.267738
-0.264683
-0.25638
-0.247896
-0.264299
-0.280543
-0.296765
-0.312919
-0.309027
-0.305
-0.295815
-0.29638
-0.306674
-0.311855
-0.321833
-0.321742
-0.331539
-0.321267
-0.325882
-0.320385
-0.329729
-0.333937
-0.348032
-0.367104
-0.376222
-0.390407
-0.394502
-0.403484
-0.412398
-0.446177
-0.474774
-0.488281
-0.516855
-0.51543
-0.52405
-0.517511
-0.510815
-0.51905
-0.512127
-0.515158
-0.513122
-0.491131
-0.44914
-0.40724
-0.380362
-0.323507
-0.301765
-0.270068
-0.243462
-0.212014
-0.180656
-0.144525
-0.103371
-0.0822172
-0.0460408
-0.0347512
-0.0185747
-0.0073982
0.0136425
0.0396832
0.0508597
0.0922398
0.098733
0.110226
0.126652
0.138009
0.134299
0.125543
0.111765
0.117896
0.103891
0.109864
0.115498
0.100973
0.0663348
0.0415611
0.0266064
0.0165611
0.00144798
-0.00361988
-0.0286877
-0.0487556
-0.0538687
-0.0539819
-0.0391855
-0.0293665
-0.00445697
-0.0143438
-0.019095
-0.0183936
-0.0119683
0.0055204
0.0741403
0.198891
0.394683
0.641403
0.908439
1.16633
1.42412
1.66618
1.86199
1.93595
1.84814
1.64894
1.24903
0.798892
0.428643
0.183213
0.0874435
0.0762217
0.0648642
0.0333258
-0.0232579
-0.0698417
-0.0864707
-0.108258
-0.100272
-0.107511
-0.109977
-0.117466
-0.124887
-0.137127
-0.149231
-0.151312
-0.158484
-0.140724
-0.148054
-0.145317
-0.147353
-0.159185
-0.180792
-0.20233
-0.203801
-0.205385
-0.202036
-0.19862
-0.220158
-0.241652
-0.268145
-0.294728
-0.321538
-0.328597
-0.320747
-0.333054
-0.335407
-0.367919
-0.40586
-0.419796
-0.439977
-0.466516
-0.483507
-0.492444
-0.50224
-0.507444
-0.512489
-0.516855
-0.499796
-0.480882
-0.464887
-0.42733
-0.408824
-0.354842
-0.330634
-0.301109
-0.266312
-0.251086
-0.225588
-0.199955
-0.149276
-0.123484
-0.107534
-0.111493
-0.110204
-0.118891
-0.127557
-0.136176
-0.129751
-0.118303
-0.111855
-0.10543
-0.113937
-0.122511
-0.111109
-0.109706
-0.113394
-0.11224
-0.0961765
-0.0950905
-0.0890272
-0.102919
-0.09681
-0.100837
-0.0849548
-0.0890724
-0.0730996
-0.071991
-0.0807466
-0.109253
-0.107715
-0.116154
-0.0995702
-0.0928733
-0.0710633
-0.0688235
-0.0609729
-0.0472172
-0.0473303
-0.0512443
-0.0490271
-0.0307014
-0.0113575
0.0188235
0.0292987
0.0493439
0.053371
0.0404751
0.0553393
0.0633484
0.095
0.136131
0.152104
0.177851
0.193416
0.20362
0.223439
0.2431
0.277376
0.311629
0.345837
0.355045
0.344299
0.313507
0.282602
0.266629
0.280634
0.284638
0.303756
0.277896
0.237036
0.186244
0.140271
0.114163
0.0928959
0.101606
0.0953167
0.0691177
0.0430317
0.0269004
0.0156787
0.0243212
0.0378507
0.0612217
0.0645023
0.0678507
0.0761539
0.0994344
0.197534
0.420339
0.683009
0.985453
1.07772
1.50486
1.71201
1.83912
1.84118
1.7131
1.44984
1.05654
0.623213
0.300023
0.117195
0.0395475
0.0221267
-0.0102715
-0.0526244
-0.114842
-0.166719
-0.183258
-0.184434
-0.190158
-0.200566
-0.210837
-0.226109
-0.226335
-0.221606
-0.216855
-0.217104
-0.227285
-0.237376
-0.247466
-0.257647
-0.257919
-0.248258
-0.243529
-0.238824
-0.239434
-0.245747
-0.268145
-0.276968
-0.307149
-0.317828
-0.320362
-0.328688
-0.342308
-0.370724
-0.393326
-0.419367
-0.453348
-0.47552
-0.48638
-0.491787
-0.511968
-0.522104
-0.551968
-0.56672
-0.576222
-0.58552
-0.589887
-0.589276
-0.583688
-0.572964
-0.567172
-0.561222
-0.555294
-0.529389
-0.503529
-0.457805
-0.416968
-0.360973
-0.339774
-0.313394
-0.271968
-0.26052
-0.234072
-0.192602
-0.170996
-0.104163
-0.0871493
-0.0798643
-0.0773982
-0.0898643
-0.0823304
-0.0649322
-0.0576018
-0.0502489
-0.0526923
-0.0549774
-0.0621493
-0.0543891
-0.0667421
-0.0342987
-0.0220588
-0.00486425
0.00233036
0.0046607
-0.00798637
-0.0257239
-0.0335972
-0.0316063
-0.0247511
-0.0228959
-0.0110859
0.00567877
0.00237562
0.00393669
0.0104073
0.02181
0.0535521
0.0761539
0.114864
0.139842
0.160181
0.16733
0.185339
0.208824
0.252263
0.305068
0.346674
0.381539
0.374457
0.335973
0.316606
0.32181
0.341878
0.361697
0.366199
0.305249
0.253778
0.196923
0.144638
0.0968778
0.0785521
0.0695476
0.0547738
0.0494571
0.0290498
0.0144571
0.00160637
-0.0086877
-0.00133479
0.0267874
0.0428281
0.0549774
0.058077
0.0717648
0.145769
0.309751
0.573371
0.896425
1.20878
1.31023
1.73091
1.906
1.99063
1.94482
1.78328
1.44086
0.977557
0.54862
0.259344
0.149842
0.114977
0.109389
0.0679186
0.0404073
-0.0124434
-0.0512217
-0.0452262
-0.0542308
-0.0581901
-0.0821041
-0.0910634
-0.110068
-0.109186
-0.0984389
-0.0976923
-0.0919231
-0.11095
-0.144819
-0.163416
-0.167127
-0.165905
-0.149638
-0.138484
-0.137353
-0.151086
-0.184774
-0.193281
-0.221855
-0.230566
-0.239367
-0.253529
-0.257806
-0.277104
-0.301471
-0.335928
-0.370475
-0.380136
-0.394887
-0.414661
-0.42448
-0.429072
-0.448462
-0.472602
-0.496539
-0.510294
-0.518914
-0.517443
-0.505814
-0.488937
-0.48181
-0.459434
-0.426787
-0.408869
-0.375769
-0.347624
-0.30914
-0.28543
-0.251425
-0.232081
-0.207489
-0.192692
-0.162715
-0.14267
-0.117557
-0.102308
-0.08681
-0.0810181
-0.0850452
-0.083914
-0.0928281
-0.0769005
-0.056086
-0.0402263
-0.014276
0.0167421
0.0578054
0.12362
0.194231
0.28957
0.389706
0.504593
0.644457
0.799276
0.919118
0.944005
0.768869
0.38362
-0.191674
-0.787059
-0.967421
-1.62262
-1.86776
-2.06787
-2.19292
-2.25799
-2.25276
-2.17681
-2.06971
-1.91618
-1.73622
-1.56579
-1.42348
-1.31541
-1.21201
-1.06385
-0.876516
-0.695701
-0.581923
-0.525045
-0.48448
-0.409389
-0.269548
-0.0847512
0.114842
0.174321
0.368597
0.407737
0.401968
0.391176
0.385362
0.404457
0.418529
0.447489
0.481471
0.505566
0.524683
0.523846
0.527941
0.521833
0.565633
0.604253
0.632851
0.666448
0.694977
0.703484
0.711833
0.734977
0.762986
0.795656
0.8131
0.875385
0.902534
0.919842
0.937217
0.959548
0.97172
0.988665
0.995588
1.0026
0.994774
0.972172
0.934774
0.892443
0.850091
0.80767
0.760317
0.718009
0.67086
0.613824
0.5619
0.505
0.453122
0.406335
0.359615
0.348054
0.276584
0.235113
0.19819
0.140452
0.116448
0.0861991
0.0548416
0.0325113
0.0193439
-0.00432129
-0.033077
-0.0614254
-0.0738462
-0.0846154
-0.0897964
-0.0968778
-0.0927602
-0.0980317
-0.0980317
-0.0928054
-0.0973077
-0.10138
-0.104977
-0.0981674
-0.100905
-0.08819
-0.0949321
-0.0859729
-0.0962896
-0.101018
-0.105656
-0.086086
-0.0832353
-0.0730091
-0.0754299
-0.0885973
-0.0997285
-0.106968
-0.135136
-0.133869
-0.142941
-0.156991
-0.165656
-0.173756
-0.191131
-0.207715
-0.213484
-0.218575
-0.213235
-0.217398
-0.200905
-0.213462
-0.230158
-0.241244
-0.242081
-0.247624
-0.227783
-0.222217
-0.215679
-0.213167
-0.215226
-0.216312
-0.222172
-0.218009
-0.208869
-0.204751
-0.20052
-0.186222
-0.18181
-0.187285
-0.18276
-0.178281
-0.174005
-0.154932
-0.146109
-0.10224
-0.0883937
-0.0645701
-0.0307692
-0.0170814
0.0114253
0.0298416
0.0582353
0.111674
0.160271
0.193891
0.217783
0.186787
0.160792
0.154864
0.163982
0.18819
0.192534
0.1669
0.121335
0.0707466
0.0300678
0.00414023
-0.00699095
-0.00830317
-0.029819
-0.0415159
-0.0683258
-0.075362
-0.0776471
-0.0702263
-0.0480769
-0.0311765
-0.0245023
-0.023077
-0.0117195
0.0292534
0.154909
0.370226
0.670249
0.970023
1.22959
1.47405
1.67833
1.81242
1.8462
1.76973
1.56826
1.19688
1.06557
0.369253
0.117896
0.0015837
-0.0446154
-0.0705882
-0.10138
-0.157036
-0.197489
-0.217896
-0.223122
-0.223258
-0.228258
-0.243258
-0.248281
-0.258394
-0.253643
-0.253914
-0.259072
-0.254253
-0.264389
-0.279548
-0.279774
-0.280385
-0.276606
-0.278891
-0.272376
-0.277059
-0.292873
-0.319751
-0.337534
-0.34595
-0.369548
-0.392783
-0.395113
-0.415837
-0.424638
-0.456674
-0.472579
-0.498054
-0.498484
-0.523959
-0.534389
-0.55448
-0.584299
-0.598959
-0.633575
-0.653235
-0.662987
-0.672805
-0.677579
-0.677308
-0.682014
-0.681674
-0.676244
-0.665815
-0.64043
-0.610113
-0.564819
-0.514502
-0.464072
-0.428575
-0.382851
-0.347036
-0.306244
-0.250294
-0.199321
-0.16819
-0.136946
-0.11552
-0.113756
-0.0967647
-0.0895928
-0.0823077
-0.0601584
-0.0530995
-0.0360407
-0.0387783
-0.0463348
-0.0388914
-0.0414932
-0.0393213
-0.0374208
-0.015724
-0.00914027
-0.00760181
-0.00106335
-0.00472853
-0.0185973
-0.012715
-0.0119457
0.0035294
0.0088235
0.014095
0.0192987
0.0294796
0.0345249
0.0494796
0.0794796
0.119977
0.13138
0.169072
0.1931
0.198348
0.229661
0.2719
0.334751
0.377715
0.365271
0.3469
0.3319
0.336357
0.342692
0.337919
0.307557
0.256968
0.221222
0.185339
0.134208
0.117919
0.0816063
0.0552715
0.0339819
0.0226244
0.0311538
0.0346833
0.0531674
0.0467195
0.0352489
0.0386652
0.0370588
0.0402262
0.0432127
0.121086
0.253869
0.466674
0.739389
1.00206
1.24455
1.47676
1.67382
1.80061
1.82753
1.74452
1.54156
1.19367
0.765611
0.392466
0.129299
0.0162217
-0.0067421
0.000497699
-0.017172
-0.0747738
-0.132398
-0.165091
-0.177783
-0.175611
-0.163484
-0.161357
-0.174299
-0.182217
-0.190136
-0.203145
-0.216176
-0.219231
-0.222285
-0.210272
-0.208326
-0.216652
-0.230566
-0.245453
-0.261471
-0.278394
-0.261177
-0.274706
-0.278688
-0.297624
-0.316109
-0.338778
-0.370045
-0.379615
-0.392511
-0.399118
-0.405023
-0.41552
-0.425837
-0.46595
-0.485905
-0.485701
-0.505407
-0.505
-0.499638
-0.499253
-0.503756
-0.508122
-0.512443
-0.491765
-0.461086
-0.435498
-0.41991
-0.359276
-0.313575
-0.287805
-0.256968
-0.246131
-0.215204
-0.184253
-0.153303
-0.137262
-0.120973
-0.10457
-0.0979412
-0.106176
-0.0943892
-0.0925113
-0.0904525
-0.0780996
-0.0604751
-0.0528281
-0.0602263
-0.0676697
-0.0700453
-0.072353
-0.0546607
-0.046991
-0.0344796
-0.0320815
-0.0297738
-0.0326471
-0.0455656
-0.0436652
-0.0519231
-0.0403394
-0.0289367
-0.0325792
-0.031267
-0.04
-0.0339367
-0.0130769
-0.00226244
0.0382353
0.0636199
0.0889367
0.10948
0.110588
0.132557
0.155701
0.199955
0.255226
0.276584
0.333891
0.311697
0.289661
0.272285
0.269027
0.294163
0.312308
0.288733
0.253982
0.203778
0.158394
0.112986
0.0873303
0.0712896
0.0549095
0.0378507
0.030362
0.0175565
0.00438912
0.0057466
-0.00859729
-0.0135747
-0.00375569
-0.00319007
0.00434386
0.0148642
0.0284163
0.0792308
0.19138
0.379231
0.652557
0.946041
1.19955
1.43285
1.64591
1.80835
1.85509
1.791
1.64618
1.36113
0.990475
0.63957
0.36319
0.216176
0.148416
0.114887
0.0858823
0.0464479
0.00176467
-0.0133032
-0.0440272
-0.035543
-0.0428507
-0.0508145
-0.0791403
-0.0926923
-0.0912444
-0.099819
-0.0983032
-0.0967874
-0.110294
-0.113575
-0.126697
-0.13991
-0.138009
-0.15129
-0.15448
-0.142602
-0.135656
-0.153688
-0.171787
-0.189977
-0.203303
-0.21181
-0.210385
-0.219072
-0.232873
-0.261742
-0.290656
-0.309729
-0.32405
-0.343462
-0.357986
-0.367715
-0.397398
-0.417059
-0.431652
-0.451267
-0.46586
-0.475453
-0.474977
-0.469321
-0.458552
-0.432534
-0.41629
-0.404819
-0.378122
-0.34129
-0.309253
-0.296878
-0.229231
-0.201199
-0.182805
-0.154027
-0.145
-0.12086
-0.106516
-0.0869457
-0.0670136
-0.0717647
-0.081267
-0.0604073
-0.0645702
-0.0688462
-0.0732353
-0.0626471
-0.0469231
-0.0360407
-0.0351584
-0.0444118
-0.0238462
-0.00855203
0.0314932
0.0613801
0.0811991
0.201041
0.285837
0.360656
0.455385
0.565091
0.709751
0.844321
0.883846
0.708484
0.26319
-0.396968
-1.06708
-1.5521
-1.84195
-2.00133
-2.11495
-2.15731
-2.16833
-2.12819
-2.04197
-1.90482
-1.73695
-1.55396
-1.39631
-1.35437
-1.23869
-1.18464
-1.08719
-0.950973
-0.79043
-0.630226
-0.535272
-0.480385
-0.445724
-0.361267
-0.23681
-0.0624887
0.116878
0.261222
0.335498
0.379661
0.373756
0.397896
0.407081
0.431312
0.45052
0.459683
0.468846
0.512896
0.516878
0.565769
0.57457
0.588303
0.601991
0.610611
0.63905
0.67233
0.70552
0.733507
0.756335
0.779027
0.801561
0.82405
0.846516
0.883937
0.926425
0.933914
0.951222
0.988552
0.991018
0.988529
0.981154
0.983846
0.976606
0.969412
0.937353
0.895475
0.858778
0.812262
0.770837
0.714412
0.663032
0.621742
0.580634
0.524683
0.473824
0.428281
0.372602
0.311471
0.275249
0.246991
0.217534
0.181946
0.135362
0.108009
0.060181
0.0223982
-0.00970588
-0.0206335
-0.0247285
-0.0319231
-0.0427149
-0.0626697
-0.0872398
-0.0917194
-0.101176
-0.085362
-0.074276
-0.0628281
-0.0611765
-0.0793665
-0.0820136
-0.0891855
-0.0760407
-0.0774434
-0.0584163
-0.0436878
-0.0283258
-0.0327602
-0.0379638
-0.055181
-0.0553168
-0.0685294
-0.0689593
-0.0706787
-0.0681222
-0.0910633
-0.109163
-0.127285
-0.150226
-0.157851
-0.169819
-0.161109
-0.161516
-0.161131
-0.175475
-0.194231
-0.19767
-0.210566
-0.212828
-0.209231
-0.189796
-0.204796
-0.194434
-0.193801
-0.207647
-0.20586
-0.203348
-0.2
-0.185928
-0.181538
-0.171946
-0.17233
-0.182624
-0.183009
-0.168462
-0.164027
-0.159729
-0.140566
-0.131358
-0.102285
-0.0881448
-0.069095
-0.0401584
-0.0112444
0.0173982
0.0410181
0.0497285
0.088552
0.122466
0.161425
0.19543
0.19957
0.183733
0.173009
0.147443
0.142127
0.171878
0.161765
0.131855
0.1019
0.0668778
0.0467874
0.0217195
0.00658373
-0.0235068
-0.0537104
-0.0790498
-0.0995249
-0.0852263
-0.0611991
-0.0523756
-0.0388235
-0.0354525
-0.0322851
-0.0344118
-0.0320136
0.0300452
0.151697
0.202986
0.664027
0.954932
1.22077
1.4614
1.65172
1.75176
1.73149
1.60111
1.33577
0.925566
0.500453
0.200294
0.0300452
-0.0453167
-0.0657918
-0.0810407
-0.121176
-0.166109
-0.205837
-0.22043
-0.234932
-0.234434
-0.253891
-0.248348
-0.252715
-0.237081
-0.246357
-0.250634
-0.25491
-0.259253
-0.258688
-0.27319
-0.262783
-0.257715
-0.263145
-0.264457
-0.272081
-0.286222
-0.301674
-0.312557
-0.310158
-0.33319
-0.331086
-0.358032
-0.388394
-0.416584
-0.437919
-0.458213
-0.483054
-0.487873
-0.517715
-0.542466
-0.571878
-0.596086
-0.620113
-0.64914
-0.663281
-0.647443
-0.651606
-0.665679
-0.659638
-0.658529
-0.667353
-0.661222
-0.630136
-0.589163
-0.543145
-0.502104
-0.461063
-0.424955
-0.388824
-0.352602
-0.321335
-0.28
-0.258529
-0.1869
-0.150068
-0.133077
-0.120973
-0.108643
-0.0911312
-0.0734842
-0.0757014
-0.0527828
-0.0498869
-0.0419231
-0.0490272
-0.0510634
-0.0579864
-0.06
-0.0421267
-0.0244118
-0.0117873
-0.00920816
0.00325793
-0.00941177
-0.0123303
-0.0205204
-0.0239593
-0.0176244
0.00364254
-0.00506788
0.00608596
0.00721718
0.0131674
0.023914
0.0794796
0.109887
0.145475
0.166538
0.187828
0.196199
0.190837
0.211652
0.248529
0.296199
0.334344
0.337443
0.310023
0.281448
0.265995
0.273575
0.284706
0.290023
0.290023
0.234977
0.199887
0.169661
0.134276
0.113688
0.0929864
0.0721719
0.0562896
0.0453394
0.0343665
0.0284389
0.0226471
0.0318326
0.040905
0.0448642
0.0535746
0.0471267
0.0654977
0.128824
0.242127
0.440362
0.738552
1.05658
1.33439
1.41699
1.77952
1.87231
1.83518
1.63821
1.29113
0.813891
0.391538
0.144208
0.0418778
0.0246153
0.0275113
0.0103846
-0.0467647
-0.109027
-0.14138
-0.143733
-0.136154
-0.133665
-0.136176
-0.158688
-0.176244
-0.193801
-0.206425
-0.20414
-0.211991
-0.19509
-0.198756
-0.208348
-0.214072
-0.220882
-0.228665
-0.23233
-0.241742
-0.251471
-0.266041
-0.284909
-0.312059
-0.332036
-0.354842
-0.372036
-0.382534
-0.377715
-0.377941
-0.408077
-0.422873
-0.452398
-0.466742
-0.491086
-0.490475
-0.484932
-0.494434
-0.49371
-0.512873
-0.526946
-0.531041
-0.520113
-0.499321
-0.473529
-0.447783
-0.422014
-0.396222
-0.380271
-0.344344
-0.328371
-0.287398
-0.241448
-0.20543
-0.16914
-0.147647
-0.130928
-0.12905
-0.127059
-0.115
-0.108032
-0.100995
-0.083733
-0.0861991
-0.0934389
-0.105633
-0.112873
-0.105181
-0.0925565
-0.0697511
-0.0568326
-0.0588687
-0.0658371
-0.0680316
-0.0752941
-0.0827828
-0.0754524
-0.0633936
-0.0515384
-0.0348869
-0.0383031
-0.0269683
-0.0407918
-0.0547737
-0.0590497
-0.0384841
-0.0179637
0.0324209
0.0677376
0.0929412
0.113235
0.123688
0.134548
0.14629
0.179344
0.223801
0.264548
0.280724
0.243597
0.216878
0.199977
0.212172
0.227738
0.231131
0.207647
0.188077
0.148054
0.107986
0.0828733
0.0626923
0.0572851
0.0515385
0.0256788
0.00990953
0.0142308
0.0286426
0.0229864
0.0171267
0.0211086
0.0349322
0.0436426
0.077353
0.160928
0.324502
0.572919
0.861244
1.1395
1.38767
1.61577
1.8138
1.9117
1.91446
1.77726
1.4652
1.01814
0.551018
0.423711
0.0563802
-0.000859603
0.0221041
-0.00477368
-0.0616968
-0.123575
-0.160543
-0.172489
-0.169457
-0.166312
-0.163032
-0.199774
-0.211538
-0.223462
-0.220452
-0.217579
-0.204683
-0.211719
-0.213597
-0.22543
-0.227443
-0.244977
-0.253552
-0.258326
-0.264344
-0.261335
-0.274163
-0.287783
-0.311719
-0.335543
-0.358801
-0.370724
-0.385588
-0.378371
-0.379638
-0.400068
-0.420226
-0.440362
-0.45552
-0.480724
-0.500656
-0.505453
-0.540136
-0.554683
-0.559186
-0.573688
-0.578167
-0.597738
-0.577308
-0.571968
-0.531561
-0.506086
-0.480566
-0.479955
-0.434344
-0.408643
-0.3781
-0.317647
-0.272217
-0.251674
-0.216041
-0.19009
-0.168937
-0.167647
-0.136267
-0.109887
-0.103439
-0.0918552
-0.0800679
-0.0829411
-0.0905882
-0.0981448
-0.0908823
-0.0837104
-0.0765385
-0.059276
-0.0518325
-0.0543439
-0.0569683
-0.0546832
-0.0575792
-0.0407013
-0.0389366
-0.0423077
-0.0257692
-0.0292986
-0.0480317
-0.0569457
-0.0710407
-0.0551584
-0.0295249
-0.00904978
0.0112896
0.0266063
0.0318552
0.0571493
0.0776923
0.113891
0.131154
0.149638
0.174344
0.195249
0.222195
0.260023
0.298303
0.291584
0.259231
0.245453
0.249706
0.271833
0.263462
0.233462
0.193258
0.1581
0.137783
0.112104
0.101177
0.0800679
0.0589593
0.0329638
0.00696838
0.000950277
0.00472856
0.0184164
0.0170815
0.0407919
0.0445476
0.0483032
0.0368779
0.0500905
0.11276
0.249887
0.491448
0.787489
1.0729
1.32253
1.54638
1.74921
1.84591
1.83217
1.7121
1.40663
0.940973
0.480045
0.138846
-0.0524661
-0.108914
-0.130407
-0.14681
-0.162919
-0.24362
-0.278507
-0.302489
-0.320747
-0.328326
-0.340068
-0.36095
-0.350792
-0.364751
-0.357715
-0.369842
-0.376063
-0.376606
-0.381787
-0.386923
-0.396719
-0.37629
-0.370543
-0.369344
-0.372738
-0.370882
-0.388733
-0.396425
-0.39905
-0.396516
-0.38371
-0.385679
-0.402466
-0.414005
-0.44543
-0.456855
-0.463281
-0.464706
-0.476041
-0.497172
-0.508122
-0.533891
-0.53957
-0.535136
-0.530679
-0.526199
-0.511674
-0.507014
-0.49233
-0.472579
-0.457783
-0.433077
-0.403529
-0.35414
-0.329955
-0.27586
-0.241742
-0.202738
-0.178824
-0.150068
-0.121493
-0.0881222
-0.0649548
-0.0468779
-0.0239593
-0.0111991
-0.0235068
-0.0209955
-0.0136425
-0.0112444
-0.00402717
0.00298642
0.00975112
0.00135747
0.0078733
-0.00561088
-0.00920815
-0.0180769
-0.00219458
0.00846153
0.0340045
0.0294344
0.0348642
0.0252036
0.00545248
0.0105656
0.0205203
0.0304072
0.0403846
0.0354299
0.030543
0.0257466
0.0410181
0.076267
0.156448
0.266584
0.387014
0.498054
0.610272
0.753891
0.928824
1.11986
1.34692
1.59989
1.6883
1.9767
2.05964
2.10127
2.15586
2.22839
2.25439
2.26455
2.25446
2.2143
2.13414
2.01896
1.81851
1.61294
1.41724
1.25147
1.06063
0.854706
0.618688
0.40267
0.201516
0.0202714
-0.141177
-0.267783
-0.324502
-0.336312
-0.36819
-0.395226
-0.437263
-0.479389
-0.526561
-0.563756
-0.59586
-0.607964
-0.60509
-0.642262
-0.674389
-0.701357
-0.738235
-0.785091
-0.801991
-0.808982
-0.821018
-0.833145
-0.850294
-0.892602
-0.930158
-0.9581
-0.976606
-1.01063
-1.02523
-1.03541
-1.05624
-1.0774
-1.08828
-1.11292
-1.11041
-1.09516
-1.07751
-1.04828
-1.0131
-0.972172
-0.945158
-0.892195
-0.843733
-0.785136
-0.732014
-0.654502
-0.582941
-0.52267
-0.46871
-0.415973
-0.379299
-0.323439
-0.268009
-0.247692
-0.177466
-0.14724
-0.132081
-0.117036
-0.0971719
-0.0773982
-0.0628054
-0.0333258
-0.0189367
-0.00452493
-2.26796e-05
-0.000452533
-0.0109503
-0.0115159
-0.012172
-0.00798647
0.00117645
0.0103167
-0.00556563
-0.0063801
-0.0222172
-0.0181901
-0.0292534
-0.020362
-0.0163801
0.00794116
0.00771491
0.013009
-0.0012444
-0.0100905
-0.00843893
0.00384614
0.0118325
0.0256787
0.0355203
0.0406335
0.0369004
0.0383936
0.0398643
0.0515158
0.0682805
0.0801131
0.096923
0.108733
0.110385
0.116674
0.112466
0.117466
0.136606
0.144977
0.16276
0.179864
0.186244
0.201765
0.221516
0.25052
0.283846
0.311516
0.333756
0.345837
0.352919
0.374819
0.391539
0.412896
0.418982
0.414344
0.38914
0.363416
0.352489
0.351742
0.336606
0.307647
0.28052
0.25543
0.25224
0.240724
0.240634
0.256719
0.26362
0.290747
0.327398
0.403213
0.50319
0.612376
0.740633
0.873009
1.01962
1.10052
1.04081
0.775905
0.315226
-0.280905
-0.792511
-1.11962
-1.28756
-1.43647
-1.63127
-1.8167
-1.89728
-1.91285
-1.78819
-1.63335
-1.39824
-1.09778
-0.797127
-0.511357
-0.270498
-0.109638
-0.0185746
0.00771499
0.0240951
0.0257919
0.0425566
0.0692761
0.0960181
0.117692
0.139389
0.156131
0.162964
0.169819
0.156629
0.163394
0.17
0.186471
0.192805
0.20405
0.210294
0.221584
0.232805
0.223801
0.219729
0.24052
0.251244
0.271946
0.282692
0.283529
0.28957
0.290701
0.296968
0.31319
0.33957
0.366109
0.392896
0.419932
0.442262
0.459864
0.482647
0.505566
0.543665
0.551991
0.59552
0.604231
0.6181
0.607172
0.601403
0.600724
0.595068
0.569389
0.553824
0.528416
0.4931
0.452919
0.407805
0.362692
0.317647
0.28267
0.252828
0.238145
0.20862
0.189276
0.180023
0.190814
0.206629
0.247557
0.268552
0.384661
0.475792
0.561923
0.598009
0.564118
0.395226
0.106267
-0.322805
-0.806946
-1.27113
-1.65527
-1.97446
-2.24362
-2.43278
-2.49695
-2.431
-2.27989
-2.11846
-1.95656
-1.77919
-1.59122
-1.42269
-1.27851
-1.15394
-1.10964
-0.956516
-0.85043
-0.731946
-0.610792
-0.406086
-0.167172
0.056086
0.208462
0.280023
0.306267
0.297511
0.294389
0.296991
0.280679
0.285769
0.307172
0.334932
0.368756
0.378394
0.383507
0.383778
0.384118
0.399389
0.424774
0.435272
0.470882
0.486697
0.492602
0.503643
0.514729
0.54086
0.5569
0.592941
0.61405
0.645272
0.666584
0.672941
0.674276
0.700588
0.736946
0.753054
0.769072
0.790091
0.786131
0.787262
0.773394
0.754367
0.735136
0.710724
0.706267
0.661968
0.627986
0.584253
0.535679
0.482217
0.428801
0.390566
0.352579
0.30991
0.257647
0.220588
0.193869
0.167353
0.13595
0.109525
0.08819
0.0869231
0.0856787
0.0643213
0.0478959
0.0363801
0.0246832
0.0277149
0.0355204
0.0379638
0.044819
0.0458145
0.0454525
0.0386199
0.0203167
0.0106108
0.00468325
0.018009
0.00626693
0.0100905
-0.00981905
-0.0174208
-0.037534
-0.0455656
-0.053009
-0.0445701
-0.0367873
-0.0352262
-0.0453846
-0.062534
-0.0816064
-0.0923077
-0.109525
-0.107986
-0.117285
-0.131787
-0.145882
-0.154253
-0.171855
-0.178778
-0.189909
-0.190272
-0.194887
-0.203846
-0.207217
-0.215272
-0.22767
-0.24957
-0.245882
-0.251606
-0.24138
-0.240023
-0.232602
-0.229367
-0.230724
-0.2369
-0.243032
-0.239095
-0.235045
-0.23595
-0.216719
-0.222262
-0.207557
-0.217534
-0.22233
-0.222014
-0.211652
-0.186244
-0.185656
-0.17491
-0.164005
-0.177896
-0.166765
-0.170656
-0.164525
-0.158462
-0.142443
-0.126448
-0.125453
-0.12448
-0.128665
-0.117941
-0.0973982
-0.0720815
-0.0618326
-0.00660634
0.0185747
0.048733
0.0638688
0.0738462
0.0937557
0.138529
0.198167
0.24767
0.272081
0.261493
0.225769
0.204887
0.203733
0.21233
0.230498
0.213348
0.186063
0.143643
0.0961086
0.0633936
0.0354977
0.0023303
-0.0059955
-0.0094344
-0.0330543
-0.0467647
-0.055543
-0.0544118
-0.053552
-0.0579638
-0.0526244
-0.0325339
-0.0276018
0.00723982
0.0919683
0.246516
0.515814
0.824751
1.11848
1.40604
1.66283
1.83398
1.85977
1.77014
1.50493
1.10403
0.637466
0.255294
0.152873
-0.0845928
-0.116358
-0.141584
-0.194231
-0.238665
-0.275158
-0.29457
-0.272919
-0.261131
-0.259706
-0.273959
-0.293937
-0.299548
-0.305724
-0.292149
-0.289661
-0.272828
-0.271493
-0.275362
-0.284276
-0.313145
-0.307014
-0.310905
-0.319955
-0.324005
-0.323077
-0.327127
-0.331131
-0.350113
-0.359095
-0.363122
-0.37224
-0.381425
-0.395611
-0.414774
-0.433914
-0.457986
-0.482127
-0.516176
-0.545317
-0.564548
-0.573778
-0.583009
-0.607127
-0.616267
-0.640407
-0.649615
-0.639004
-0.628439
-0.623054
-0.597647
-0.562262
-0.541878
-0.506538
-0.481312
-0.41629
-0.376448
-0.331787
-0.282127
-0.242421
-0.202715
-0.177805
-0.157738
-0.132579
-0.102398
-0.087285
-0.0720588
-0.0616515
-0.0508823
-0.0547737
-0.0585067
-0.0722172
-0.071018
-0.0548868
-0.0487103
-0.00746599
0.00893672
0.000316828
-0.00841622
-0.0273981
-0.0416289
-0.0410407
-0.0105429
-0.00524881
-0.0150226
-0.00477371
-0.0095927
0.000565648
0.0155883
0.0505883
0.0904978
0.130339
0.170204
0.205181
0.230294
0.255566
0.301267
0.357557
0.439955
0.48371
0.733778
0.905249
1.05301
1.16158
1.26029
1.4036
1.55061
1.69575
1.81376
1.86011
1.86113
1.7112
1.37613
0.805995
0.0856561
-0.579977
-1.05586
-1.29681
-1.33774
-1.24857
-1.09943
-0.94543
-0.811629
-0.688032
-0.644615
-0.406267
-0.268009
-0.154751
-0.111493
-0.108326
-0.120362
-0.127692
-0.135181
-0.122805
-0.12043
-0.122873
-0.120204
-0.132534
-0.134909
-0.137398
-0.134955
-0.127376
-0.124661
-0.12681
-0.133846
-0.145882
-0.147941
-0.145023
-0.157195
-0.154412
-0.146719
-0.15405
-0.151425
-0.158846
-0.161403
-0.15905
-0.141855
-0.124729
-0.112647
-0.0857693
-0.094457
-0.0941403
-0.0901358
-0.0775792
-0.0653168
-0.0350226
-0.0154072
0.0189367
0.0236878
0.0245701
0.0224208
0.0227602
0.0052036
0.00893665
0.0131901
0.0326471
0.0221946
0.0220136
-0.00282802
-0.0324208
-0.0468778
-0.0664253
-0.086086
-0.0957692
-0.110339
-0.119774
-0.139005
-0.15319
-0.157421
-0.146674
-0.141063
-0.135566
-0.145068
-0.134367
-0.128597
-0.137828
-0.146991
-0.156244
-0.135407
-0.12948
-0.108326
-0.0969909
-0.0954072
-0.0985973
-0.121584
-0.11948
-0.127262
-0.0997964
-0.0720362
-0.0588009
-0.0502262
-0.0654298
-0.0848642
-0.0836199
-0.0769231
-0.0647058
-0.0317421
-0.00309955
0.0163122
0.016267
0.00653847
-0.00323528
0.0113575
0.0143666
0.0147285
0.0367195
0.0506562
0.0373304
0.0427602
0.0228055
0.0180543
0.0238462
0.0401358
0.0719005
0.0990724
0.121335
0.139548
0.153213
0.15233
0.166606
0.200792
0.234887
0.273937
0.297987
0.287149
0.241312
0.215453
0.209638
0.213688
0.217715
0.221787
0.185928
0.145068
0.104208
0.0633485
0.0424208
0.026448
0.00540729
-0.000633433
-0.0266968
-0.0376696
-0.0535746
-0.0545248
-0.0554751
-0.0514932
-0.0426244
-0.0337783
-0.0298642
-0.0109728
0.0429186
0.171833
0.415588
0.739276
1.07796
1.17665
1.63541
1.84923
1.94805
1.90201
1.70111
1.30532
0.794615
0.353982
0.0882126
-0.00251132
-0.0181448
-0.0235294
-0.0688235
-0.133959
-0.179163
-0.214412
-0.199661
-0.18991
-0.185136
-0.195339
-0.220543
-0.225837
-0.22129
-0.221855
-0.227489
-0.218054
-0.208643
-0.209186
-0.224729
-0.23543
-0.246606
-0.25371
-0.242036
-0.256697
-0.267466
-0.289299
-0.296968
-0.320453
-0.339321
-0.358303
-0.361946
-0.36957
-0.385385
-0.398937
-0.425701
-0.461448
-0.486787
-0.492195
-0.502738
-0.503213
-0.528462
-0.558484
-0.568258
-0.597851
-0.602444
-0.627149
-0.616991
-0.626946
-0.611833
-0.596697
-0.571561
-0.561244
-0.535882
-0.500566
-0.455181
-0.409909
-0.379683
-0.334412
-0.303959
-0.268326
-0.242534
-0.211674
-0.170656
-0.154593
-0.143552
-0.117421
-0.106086
-0.0995023
-0.102647
-0.110701
-0.103778
-0.0970136
-0.100339
-0.0785973
-0.0717647
-0.0797964
-0.0877376
-0.0757466
-0.0689367
-0.0672851
-0.055905
-0.0545701
-0.0382805
-0.0320362
-0.0358145
-0.0497511
-0.0538462
-0.0481448
-0.0425339
-0.0320814
-0.00671946
0.00357465
0.00877827
0.033914
0.0489819
0.0741403
0.104796
0.126425
0.139457
0.163982
0.173891
0.20586
0.243778
0.267081
0.260158
0.252262
0.242579
0.235543
0.251493
0.246199
0.230362
0.194344
0.163032
0.126222
0.113846
0.090905
0.0724434
0.0485972
0.0193212
-0.000610903
-0.021267
-0.0173303
-0.00791857
-0.00167425
0.00730765
0.0042986
0.0186425
0.0194796
0.016199
0.0680769
0.18552
0.388077
0.655633
0.948009
1.21993
1.46631
1.67695
1.87176
1.96075
1.98414
1.88713
1.66468
1.25672
0.783122
0.41414
0.199661
0.114683
0.10914
0.112919
0.0908824
0.0381448
-0.0104525
-0.0447511
-0.0693439
-0.0641629
-0.054095
-0.049095
-0.049095
-0.0642307
-0.0794117
-0.089638
-0.114864
-0.115181
-0.12052
-0.130769
-0.125905
-0.120928
-0.125882
-0.150724
-0.16052
-0.170294
-0.165068
-0.184887
-0.184593
-0.184344
-0.194163
-0.209005
-0.233937
-0.258959
-0.259072
-0.269457
-0.284955
-0.29552
-0.321109
-0.341561
-0.372014
-0.392534
-0.4181
-0.423575
-0.433982
-0.419231
-0.434253
-0.444118
-0.45871
-0.463054
-0.457308
-0.436448
-0.410385
-0.39405
-0.362466
-0.340588
-0.318303
-0.290882
-0.273235
-0.240385
-0.207285
-0.188982
-0.160362
-0.146471
-0.137376
-0.123122
-0.11871
-0.114163
-0.099457
-0.0946154
-0.0797964
-0.0799548
-0.0701584
-0.0653394
-0.0554299
-0.0255882
-0.00083711
0.0587104
0.123167
0.182466
0.261719
0.340995
0.440158
0.544208
0.693122
0.841946
0.905701
0.79448
0.393439
-0.212511
-0.883348
-1.3943
-1.7152
-1.91115
-1.96213
-2.09792
-2.13308
-2.13731
-2.08032
-1.98708
-1.86767
-1.71219
-1.52579
-1.34853
-1.22084
-1.13308
-1.02566
-0.904299
-0.769728
-0.692262
-0.606652
-0.531991
-0.432624
-0.288235
-0.118801
0.0355883
0.199683
0.323575
0.377285
0.395905
0.414615
0.403439
0.412262
0.431109
0.454932
0.47871
0.502376
0.530928
0.559502
0.5731
0.591697
0.610272
0.623846
0.642353
0.660747
0.688846
0.711787
0.749661
0.762376
0.785091
0.80776
0.835272
0.862511
0.884434
0.896244
0.943145
0.970181
0.987308
0.98448
0.971493
0.973439
0.975317
0.972285
0.959434
0.946719
0.909095
0.866719
0.829389
0.782127
0.729887
0.702647
0.66052
0.608484
0.551606
0.499842
0.44319
0.376606
0.355068
0.308597
0.287104
0.245498
0.223348
0.180226
0.13595
0.0954525
0.0737783
0.0361086
0.0225566
0.0086652
-0.0149321
-0.0326923
-0.0588235
-0.0680316
-0.0854525
-0.0923755
-0.0829185
-0.0780543
-0.0679412
-0.0773755
-0.0762895
-0.074819
-0.0978732
-0.0855429
-0.0777601
-0.0695475
-0.0606561
-0.0560181
-0.0460407
-0.0665385
-0.0738009
-0.0888462
-0.0719683
-0.0773755
-0.0792081
-0.0918778
-0.0947511
-0.133167
-0.151697
-0.170249
-0.168575
-0.171561
-0.173959
-0.180588
-0.186335
-0.201199
-0.200452
-0.229344
-0.222783
-0.240679
-0.252896
-0.214683
-0.220905
-0.241629
-0.25181
-0.256199
-0.264728
-0.247556
-0.244615
-0.231018
-0.227036
-0.232851
-0.238507
-0.224185
-0.219728
-0.220204
-0.215701
-0.191176
-0.181606
-0.176968
-0.177285
-0.177647
-0.158145
-0.143733
-0.12448
-0.115317
-0.0512216
-0.0171266
0.0120136
0.0361991
0.0452489
0.0642761
0.0982806
0.152285
0.206403
0.215588
0.204864
0.174321
0.148891
0.138529
0.158145
0.162715
0.157285
0.126923
0.0715159
0.0461313
0.0257014
-0.00484158
-0.0206108
-0.0365384
-0.0478054
-0.0442534
-0.0558371
-0.0475339
-0.0494344
-0.0515837
-0.0390272
-0.02681
-0.0100226
0.00656107
0.0327602
0.0937104
0.249344
0.484774
0.76991
1.05482
1.32439
1.55876
1.75771
1.83636
1.78462
1.60251
1.25493
0.826765
0.438054
0.328733
0.0288914
-0.036448
-0.0721719
-0.118235
-0.174751
-0.206584
-0.238507
-0.250068
-0.255294
-0.24819
-0.2481
-0.260023
-0.264615
-0.263009
-0.266244
-0.249774
-0.234072
-0.233959
-0.234344
-0.240113
-0.241403
-0.253348
-0.261222
-0.259819
-0.253869
-0.238009
-0.252127
-0.271199
-0.285204
-0.309276
-0.323484
-0.322715
-0.322104
-0.32638
-0.345724
-0.365068
-0.404208
-0.438439
-0.45776
-0.487172
-0.506629
-0.506131
-0.510543
-0.529955
-0.559253
-0.583575
-0.597941
-0.602398
-0.621855
-0.61638
-0.585905
-0.565453
-0.54991
-0.534344
-0.513914
-0.488597
-0.438394
-0.398213
-0.348054
-0.307964
-0.272919
-0.242647
-0.227443
-0.197195
-0.151878
-0.121719
-0.0915611
-0.0612896
-0.0557692
-0.0449321
-0.0490724
-0.0382353
-0.0325566
-0.0270136
-0.0214027
-0.0205882
-0.0146833
-0.0236652
-0.0127602
-0.0270136
-0.0263801
-0.0358371
-0.0254299
-0.0250905
0.00520362
-0.00452489
0.000769228
-0.0139819
-0.0187104
-0.0184389
-0.00321268
0.0170588
0.0473529
0.0727602
0.113303
0.148891
0.179683
0.206109
0.233597
0.247353
0.292443
0.328778
0.396244
0.469661
0.558439
0.631991
0.734683
0.850769
0.969887
1.09226
1.20423
1.32491
1.41536
1.50066
1.59075
1.66054
1.6802
1.57475
1.2893
0.778869
0.123484
-0.531946
-1.04749
-1.30814
-1.36891
-1.31484
-1.16084
-1.01186
-0.902919
-0.814118
-0.705475
-0.5569
-0.383462
-0.235181
-0.147014
-0.118914
-0.120724
-0.127466
-0.14414
-0.130837
-0.112715
-0.104683
-0.0965837
-0.113371
-0.115
-0.126584
-0.133145
-0.119887
-0.121719
-0.113529
-0.110339
-0.112149
-0.118778
-0.120294
-0.136946
-0.133846
-0.13586
-0.128032
-0.120272
-0.107647
-0.115
-0.11224
-0.114412
-0.116833
-0.0893213
-0.0734842
-0.0588688
-0.0453394
-0.0377376
-0.015905
-0.00977376
-0.00902715
0.0268099
0.0331674
0.030905
0.065724
0.0778507
0.0817873
0.0766516
0.0568778
0.0570814
0.0473077
0.0476923
0.0484163
0.0193891
-0.00954753
-0.0283937
-0.0622398
-0.0711312
-0.095
-0.0989367
-0.102851
-0.106787
-0.110588
-0.119299
-0.127873
-0.131448
-0.135023
-0.13371
-0.137466
-0.131176
-0.129796
-0.123258
-0.131516
-0.144729
-0.127738
-0.110566
-0.0932579
-0.0907692
-0.0831222
-0.0902941
-0.0921946
-0.103846
-0.110136
-0.106109
-0.101652
-0.0867647
-0.0713801
-0.055362
-0.0486652
-0.0562896
-0.0583484
-0.059819
-0.0458597
-0.0315611
-0.00685522
0.00812219
0.0182127
0.0227602
0.0258597
0.0315158
0.0440724
0.0534163
0.0652489
0.0806335
0.100611
0.120701
0.13138
0.132624
0.154321
0.176244
0.183529
0.196471
0.220181
0.244593
0.264389
0.259367
0.229299
0.19414
0.183846
0.198597
0.203462
0.188394
0.163416
0.123326
0.0932127
0.0680317
0.0678281
0.0527375
0.0276018
-0.00251133
-0.0225792
-0.0626923
-0.0927828
-0.0828959
-0.0580996
-0.0582579
-0.0383937
-0.0285294
-0.0186426
-0.0188235
-0.0141177
-0.00959277
0.0597964
0.089095
0.478484
0.772919
1.06247
1.3071
1.52674
1.72136
1.84088
1.85045
1.75036
1.47552
1.06077
0.581222
0.211719
0.0372172
-0.0373077
-0.0217195
-0.0309955
-0.0552263
-0.124367
-0.173416
-0.187489
-0.206538
-0.200679
-0.2
-0.194367
-0.193869
-0.198439
-0.202986
-0.222557
-0.242195
-0.2419
-0.251787
-0.247127
-0.238326
-0.230792
-0.244683
-0.25491
-0.27638
-0.298891
-0.291742
-0.305249
-0.318258
-0.325045
-0.344796
-0.35733
-0.3881
-0.408032
-0.432738
-0.452489
-0.457353
-0.472104
-0.501629
-0.515882
-0.54491
-0.578846
-0.607783
-0.6219
-0.631018
-0.635113
-0.624163
-0.623167
-0.612014
-0.615905
-0.599819
-0.563801
-0.532851
-0.501878
-0.445837
-0.404683
-0.343348
-0.311878
-0.280294
-0.253575
-0.226787
-0.215
-0.173054
-0.140995
-0.133801
-0.126471
-0.128982
-0.12129
-0.128552
-0.115769
-0.0980317
-0.0804073
-0.072715
-0.0748869
-0.0769683
-0.0840498
-0.0712217
-0.063552
-0.0559729
-0.0534842
-0.0609276
-0.0483711
-0.040905
-0.0435747
-0.0314027
-0.0396154
-0.0330091
-0.026448
-0.0299321
-0.0335294
-0.0221267
-0.0158371
0.0153167
0.0362896
0.0821719
0.112964
0.133982
0.145113
0.157964
0.157127
0.162489
0.183914
0.226335
0.269615
0.278462
0.257398
0.225882
0.218077
0.218326
0.226267
0.232421
0.232602
0.187263
0.156742
0.135837
0.114434
0.0922851
0.0644344
0.0257919
0.0212444
0.0211313
0.015905
0.0165159
0.0241856
0.0148417
0.0183937
0.0326697
0.0444797
0.082172
0.185362
0.378846
0.667398
0.985792
1.29369
1.57588
1.81719
1.88762
2.02247
1.93188
1.68088
1.24934
0.762082
0.379367
0.186244
0.132715
0.12862
0.143846
0.118371
0.0670362
0.014819
-0.0280995
-0.0413122
-0.0450452
-0.023914
-0.0378733
-0.0568325
-0.0658597
-0.0749773
-0.0992533
-0.0886199
-0.0880995
-0.0826244
-0.0770814
-0.0864705
-0.0958144
-0.114955
-0.144027
-0.157941
-0.161946
-0.170973
-0.175
-0.173982
-0.188032
-0.192014
-0.216041
-0.235181
-0.249344
-0.273846
-0.268439
-0.288122
-0.312783
-0.327376
-0.356855
-0.376244
-0.395656
-0.415023
-0.424208
-0.433213
-0.4469
-0.455317
-0.473439
-0.491357
-0.499095
-0.501652
-0.489072
-0.446199
-0.438167
-0.419909
-0.386357
-0.362579
-0.34371
-0.309728
-0.270588
-0.231222
-0.206629
-0.181674
-0.161448
-0.155973
-0.145407
-0.139796
-0.114231
-0.103778
-0.103235
-0.0975113
-0.101538
-0.110385
-0.109299
-0.0984389
-0.0827828
-0.0523076
-0.0268325
0.0137331
0.0544118
0.11
0.185453
0.270815
0.366109
0.471267
0.631244
0.811063
0.940815
0.965724
0.785747
0.330815
-0.334118
-0.97914
-1.15916
-1.7391
-1.93403
-2.0538
-2.11308
-2.11649
-2.0686
-1.96434
-1.80873
-1.62195
-1.4341
-1.28095
-1.18226
-1.08896
-0.961742
-0.811471
-0.718371
-0.657127
-0.586833
-0.486878
-0.356991
-0.206991
-0.031923
0.1331
0.272964
0.307534
0.386855
0.386063
0.390453
0.379842
0.389186
0.418552
0.452896
0.482127
0.501403
0.525634
0.544842
0.558959
0.577941
0.586878
0.610747
0.634321
0.682625
0.715724
0.73862
0.751312
0.773982
0.796765
0.834706
0.862625
0.870543
0.938394
0.961018
0.968597
0.971086
0.968597
0.956312
0.939163
0.937082
0.920113
0.868122
0.836199
0.769457
0.712828
0.646244
0.589548
0.557692
0.520882
0.484027
0.427104
0.380294
0.333643
0.272285
0.216176
0.190068
0.173462
0.141131
0.117896
0.0835747
0.0430769
0.0066742
-0.0355882
-0.0535973
-0.0619457
-0.0650905
-0.0473529
-0.058009
-0.0665837
-0.0883032
-0.128982
-0.144457
-0.134299
-0.104027
-0.068552
-0.0627149
-0.0766063
-0.1
-0.122851
-0.120271
-0.117398
-0.119321
-0.105882
-0.0870136
-0.0823756
-0.0619683
-0.0860407
-0.104909
-0.10448
-0.0910407
-0.0806561
-0.0832805
-0.0966742
-0.0974887
-0.10905
-0.131041
-0.143303
-0.160566
-0.157692
-0.164367
-0.155362
-0.160407
-0.164502
-0.157851
-0.170633
-0.187964
-0.194774
-0.205973
-0.181765
-0.166991
-0.146561
-0.135566
-0.144118
-0.182059
-0.219004
-0.229864
-0.199774
-0.149412
-0.118959
-0.129004
-0.134163
-0.134321
-0.138937
-0.133258
-0.122534
-0.111991
-0.0915158
-0.0710633
-0.0355882
-0.00506784
0.00547513
0.0107919
0.0557692
0.110475
0.160226
0.205136
0.255136
0.270204
0.24043
0.21043
0.200272
0.190226
0.200385
0.236018
0.261855
0.27276
0.253643
0.204186
0.154615
0.13
0.095543
0.0910634
0.0764932
0.0369457
0.00680996
-0.00391403
0.00995475
0.033733
0.0224661
0.0361086
0.0696607
0.0929412
0.0709729
0.0287557
0.0111313
0.0380317
0.169593
0.366109
0.607579
0.888869
1.1748
1.40045
1.6105
1.78034
1.86514
1.82482
1.65439
1.30903
0.848507
0.442783
0.206561
0.149615
0.00710408
-0.0107466
-0.043733
-0.0969231
-0.135724
-0.210294
-0.295634
-0.341561
-0.337805
-0.304186
-0.295226
-0.290226
-0.303439
-0.294276
-0.279276
-0.295498
-0.315226
-0.323937
-0.307127
-0.280249
-0.283914
-0.323303
-0.348439
-0.369389
-0.365905
-0.367896
-0.350407
-0.348077
-0.345769
-0.373552
-0.401787
-0.420498
-0.454344
-0.468235
-0.46233
-0.451561
-0.450769
-0.514796
-0.588733
-0.612602
-0.58138
-0.565045
-0.608756
-0.682828
-0.752398
-0.777353
-0.717376
-0.606901
-0.575724
-0.58414
-0.692625
-0.72638
-0.70043
-0.629751
-0.594253
-0.563733
-0.548213
-0.542489
-0.52629
-0.464729
-0.363167
-0.276652
-0.235226
-0.233733
-0.227104
-0.225272
-0.233529
-0.157104
-0.0809729
-0.0750226
-0.10914
-0.143394
-0.162692
-0.166968
-0.156222
-0.0805431
-0.0651585
-0.0700906
-0.105204
-0.115543
-0.145882
-0.181222
-0.116742
-0.0423078
-0.0178508
-0.0532128
-0.0733032
-0.0885069
-0.103846
-0.0990951
-0.0889141
-0.078439
-0.0480318
0.00208133
0.0521945
0.0478732
0.0294795
0.0521719
0.106131
0.136222
0.247262
0.264253
0.272059
0.305249
0.343213
0.360362
0.395815
0.43914
0.530701
0.65129
0.761606
0.846199
0.905656
0.984932
1.12396
1.27783
1.42138
1.5245
1.59235
1.62023
1.53819
1.31629
0.934502
0.407715
0.235837
-0.631018
-0.987896
-1.21982
-1.32683
-1.33396
-1.21609
-1.06835
-0.900905
-0.728733
-0.621923
-0.525204
-0.423552
-0.381878
-0.380294
-0.348756
-0.25267
-0.151787
-0.115996
-0.120204
-0.0945023
-0.073801
-0.0930543
-0.112263
-0.121697
-0.121312
-0.135747
-0.174819
-0.208643
-0.172557
-0.0817874
0.023733
0.0791855
-0.0100905
-0.183869
-0.287489
-0.281176
-0.235362
-0.174683
-0.113801
-0.0725792
-0.0665158
-0.0558145
-0.0757466
-0.161697
-0.243869
-0.252036
-0.210995
-0.150679
-0.130995
-0.131629
-0.142014
-0.121606
-0.0946833
-0.0704299
-0.0489366
-0.0511765
-0.0180996
0.0199095
0.0328733
0.0309729
0.0195023
0.0288688
0.0436425
0.0534842
0.0631448
0.052353
0.031267
0.0249321
-0.000927579
-0.0211765
-0.0510407
-0.0909276
-0.0809502
-0.0411991
-0.0316968
-0.107217
-0.197624
-0.227919
-0.182986
-0.157805
-0.152421
-0.162059
-0.161855
-0.161652
-0.126312
-0.110882
-0.109842
-0.118529
-0.116991
-0.105271
-0.0934615
-0.0615837
-0.0495475
-0.0622624
-0.079457
-0.0709502
-0.0468099
-0.0271267
-0.0122624
-0.00219456
0.00346155
0.00993214
0.0322398
0.060181
0.0733484
0.101697
0.0945475
0.0861539
0.0808371
0.112941
0.124095
0.106109
0.0864706
0.0857692
0.114525
0.128009
0.14181
0.155996
0.180792
0.231335
0.247421
0.253982
0.260928
0.277941
0.284864
0.351991
0.364683
0.362964
0.326312
0.329525
0.332805
0.331199
0.319525
0.302783
0.266086
0.199593
0.148054
0.106222
0.0791629
0.0722398
0.0556787
0.0446606
0.0438914
0.0426697
0.0356561
0.0382805
0.0359729
0.0288914
0.00699096
0.000203621
0.0684389
0.176584
0.329706
0.557624
0.840272
1.11767
1.38998
1.63215
1.80925
1.87629
1.82351
1.64602
1.29889
0.85681
0.434796
0.157828
0.0509729
0.0295475
0.0185294
-0.0172851
-0.103054
-0.213937
-0.289683
-0.310113
-0.305362
-0.215498
-0.180724
-0.161154
-0.201606
-0.262059
-0.322466
-0.353077
-0.344005
-0.31
-0.270792
-0.261652
-0.278371
-0.296584
-0.321403
-0.331516
-0.333665
-0.341923
-0.335995
-0.325385
-0.314638
-0.318122
-0.355339
-0.410724
-0.464299
-0.481539
-0.472738
-0.478416
-0.483846
-0.499321
-0.524932
-0.560543
-0.590973
-0.626199
-0.60629
-0.57138
-0.561448
-0.586425
-0.626335
-0.661199
-0.641018
-0.650995
-0.62086
-0.565588
-0.520272
-0.474955
-0.43448
-0.383846
-0.373235
-0.367805
-0.352443
-0.296968
-0.24638
-0.180679
-0.14491
-0.134005
-0.142783
-0.146471
-0.125023
-0.0935068
-0.0669005
-0.0751131
-0.0977602
-0.120272
-0.0928281
-0.0605656
-0.0432353
-0.0407466
-0.0380769
-0.0352715
-0.0474661
-0.0849321
-0.0828507
-0.0512896
-0.0299548
-0.0186878
-0.00235295
-0.0111539
-0.0050905
0.0107692
0.0164027
-0.0032353
-0.00805431
-0.00807693
0.0167647
0.0564253
0.0959955
0.12586
0.146154
0.177081
0.158982
0.142127
0.166629
0.252466
0.344412
0.397149
0.375204
0.317896
0.274638
0.304729
0.322964
0.339502
0.314909
0.254819
0.204548
0.174095
0.163326
0.177081
0.15543
0.0985973
0.06681
0.0501584
0.0588462
0.0825339
0.0809728
0.0541403
0.0217873
0.0341855
0.0614706
0.083733
0.0759955
0.0982353
0.210271
0.447059
0.768643
0.875136
1.3467
1.59353
1.76054
1.82762
1.79464
1.65681
1.38916
0.981561
0.568846
0.270995
0.0482579
-0.0591855
-0.086448
-0.0686199
-0.0558371
-0.0783032
-0.115996
-0.143801
-0.161787
-0.154729
-0.157511
-0.180204
-0.197964
-0.196018
-0.189389
-0.153054
-0.162557
-0.213032
-0.24448
-0.261923
-0.275272
-0.30948
-0.329389
-0.314638
-0.304864
-0.304367
-0.317104
-0.327557
-0.325747
-0.328281
-0.344321
-0.345294
-0.36629
-0.372217
-0.37276
-0.402941
-0.458009
-0.473167
-0.463439
-0.458665
-0.468824
-0.498891
-0.538982
-0.579027
-0.59405
-0.56905
-0.534208
-0.469457
-0.459683
-0.469864
-0.489955
-0.474887
-0.454683
-0.409434
-0.359163
-0.303959
-0.258869
-0.21371
-0.188462
-0.167986
-0.152285
-0.146357
-0.130362
-0.114253
-0.0980091
-0.0867647
-0.105452
-0.123937
-0.1219
-0.114367
-0.111584
-0.0789593
-0.0416968
-0.0196607
-0.0475566
-0.0904299
-0.11319
-0.106018
-0.0841403
-0.0525113
-0.0163575
0.00454751
-0.014638
-0.0490272
-0.0787783
-0.103778
-0.0889593
-0.0542308
0.0204977
0.0401131
0.0945249
0.0887557
0.0829638
0.0972851
0.131652
0.175928
0.230362
0.270407
0.301606
0.304231
0.287308
0.237398
0.203507
0.210317
0.252466
0.244593
0.216222
0.181674
0.160136
0.141674
0.101923
0.0462896
0.000226259
-0.0260181
-0.0323529
-0.0037104
0.00986426
0.00332579
0.00658372
0.014457
0.0121946
-0.000203609
-0.0128959
0.00900453
0.0406109
0.121991
0.293145
0.53371
0.798235
1.05738
1.29534
1.51778
1.71468
1.79115
1.78231
1.62812
1.28353
0.818575
0.373665
0.254683
-0.0726471
-0.102421
-0.104163
-0.0980543
-0.14991
-0.200588
-0.231177
-0.232398
-0.229344
-0.211742
-0.194457
-0.197557
-0.191403
-0.201199
-0.206425
-0.227647
-0.234163
-0.215905
-0.192602
-0.184253
-0.195588
-0.216674
-0.257579
-0.263507
-0.254366
-0.235023
-0.230475
-0.250814
-0.271018
-0.296063
-0.30586
-0.315452
-0.299977
-0.304276
-0.303484
-0.322738
-0.356968
-0.381244
-0.415475
-0.439661
-0.448914
-0.443326
-0.427647
-0.426719
-0.415656
-0.404729
-0.414118
-0.423756
-0.418665
-0.413575
-0.338235
-0.292715
-0.257081
-0.231652
-0.206584
-0.18181
-0.15733
-0.127986
-0.103597
-0.0790045
-0.0593439
-0.049457
-0.0295249
-0.024638
-0.0097059
0.00513574
-0.00490952
-0.0247059
-0.0391855
-0.0282805
-0.0171719
0.0139367
0.0397738
0.0553394
0.0508824
0.0266969
0.00264707
-0.00140268
0.0343892
0.0500227
0.040543
0.0158145
0.00585976
0.020724
0.0605204
0.0803394
0.0751811
0.0649774
0.0848191
0.154706
0.194729
0.224774
0.269796
0.344774
0.414887
0.475158
0.565769
0.692059
0.879389
0.942873
1.19756
1.31342
1.41541
1.50846
1.61186
1.7152
1.82278
1.9038
1.89278
1.69471
1.33109
0.751177
0.0812896
-0.568507
-1.0233
-1.2836
-1.33419
-1.24989
-1.10552
-0.996086
-0.921674
-0.84724
-0.712941
-0.543733
-0.489615
-0.285543
-0.196516
-0.112647
-0.0587557
-0.0598643
-0.140973
-0.217262
-0.243778
-0.220656
-0.192738
-0.189955
-0.182195
-0.164434
-0.151561
-0.163665
-0.200679
-0.232873
-0.245181
-0.282421
-0.289548
-0.266335
-0.262873
-0.274366
-0.305995
-0.317919
-0.299887
-0.266652
-0.258145
-0.279412
-0.290679
-0.292059
-0.268462
-0.240045
-0.176629
-0.15819
-0.184683
-0.190814
-0.196719
-0.172624
-0.128507
-0.0954525
-0.0585068
-0.0178054
0.00178736
0.0254752
0.0233258
0.0204525
-0.00285065
-0.00606334
-0.00866514
0.0402036
0.0563574
0.054638
0.0242986
-0.0306334
-0.0754977
-0.0954072
-0.0901809
-0.0694796
-0.063371
-0.0869683
-0.130543
-0.164299
-0.16819
-0.156946
-0.150588
-0.134253
-0.137964
-0.141606
-0.150113
-0.158461
-0.131787
-0.105158
-0.118597
-0.1219
-0.139842
-0.142466
-0.144955
-0.142172
-0.14405
-0.140634
-0.126968
-0.0979639
-0.0783937
-0.0578507
-0.0517648
-0.0594118
-0.0715385
-0.0932127
-0.0745249
-0.0552942
-0.0205657
-0.000226274
0.00552031
0.0362896
0.0562443
0.0296606
0.00554299
-0.0116063
-0.00669685
0.0462217
0.053009
0.0396154
0.0165837
-0.000814468
0.0172851
0.0256787
0.0493212
0.0733484
0.0829638
0.0876696
0.0781448
0.108869
0.124706
0.150701
0.161267
0.191222
0.220747
0.260136
0.299638
0.339208
0.363688
0.368281
0.323077
0.297896
0.252692
0.28233
0.296878
0.296403
0.265814
0.19009
0.11448
0.0688009
0.0730995
0.102353
0.0866289
0.0310859
-0.0243213
-0.0596833
-0.060181
-0.0257919
-0.0114933
0.0179638
0.00762439
0.00757915
-0.00239824
-0.00760183
-0.0130996
0.0212896
0.0406561
0.300158
0.569683
0.869367
1.14414
1.3688
1.57842
1.75796
1.86251
1.86213
1.73183
1.42156
0.931538
0.451561
0.126674
0.0217194
0.0167421
0.0367195
0.0367647
-0.0430316
-0.117624
-0.187104
-0.216606
-0.201312
-0.176176
-0.171109
-0.180995
-0.185815
-0.200566
-0.225249
-0.240023
-0.234887
-0.219955
-0.215294
-0.211312
-0.22362
-0.237263
-0.27224
-0.278326
-0.30052
-0.308032
-0.311199
-0.313982
-0.30552
-0.310045
-0.342376
-0.402986
-0.432715
-0.437308
-0.442036
-0.436968
-0.46172
-0.476154
-0.510226
-0.524186
-0.5431
-0.562014
-0.585905
-0.604932
-0.604072
-0.603281
-0.617421
-0.626244
-0.635045
-0.628914
-0.622851
-0.621855
-0.610792
-0.589661
-0.538416
-0.496968
-0.460452
-0.423846
-0.387308
-0.325679
-0.303959
-0.207081
-0.150113
-0.127896
-0.120407
-0.11767
-0.0996832
-0.0714253
-0.0830317
-0.104593
-0.0912217
-0.092828
-0.0895927
-0.0961539
-0.0976018
-0.10405
-0.0756561
-0.072534
-0.0496833
-0.0519683
-0.0692308
-0.0813801
-0.0987104
-0.0914028
-0.0894797
-0.077896
-0.0614932
-0.0400453
-0.0485973
-0.0620362
-0.0606561
-0.054457
-0.0284616
0.0323303
0.0529864
0.0837104
0.0995475
0.131561
0.13991
0.169548
0.225407
0.27224
0.299977
0.313507
0.292557
0.286606
0.295
0.301878
0.316471
0.298733
0.284299
0.234095
0.198507
0.162647
0.131335
0.104118
0.0807919
0.0564253
0.0514706
0.0471946
0.054819
0.055362
0.0490498
0.055181
0.0427149
0.0654978
0.0843665
0.128597
0.223054
0.407489
0.686629
0.985091
1.26765
1.51398
1.75948
1.83446
1.97928
1.89882
1.63781
1.22118
0.754005
0.391403
0.198348
0.154887
0.165973
0.181448
0.151176
0.09
0.03319
0.0159276
-0.00147058
0.0160181
0.0183937
0.010543
0.00251134
-0.00563346
-0.0188914
-0.0373755
-0.0359502
-0.034638
-0.0434615
-0.0473982
-0.0464253
-0.0554751
-0.0595249
-0.0834615
-0.0923756
-0.11129
-0.110204
-0.104118
-0.112851
-0.126561
-0.139955
-0.168213
-0.201471
-0.219796
-0.238326
-0.261787
-0.270136
-0.278507
-0.311923
-0.345181
-0.358371
-0.376471
-0.38948
-0.39233
-0.39
-0.407217
-0.42414
-0.440679
-0.441968
-0.438167
-0.414299
-0.390362
-0.361199
-0.32181
-0.282149
-0.25724
-0.242014
-0.236742
-0.206471
-0.166109
-0.130679
-0.0900679
-0.0640498
-0.0428733
-0.0464706
-0.0449547
-0.0682805
-0.0515611
-0.0447737
-0.0327828
-0.0206109
-0.0133032
-0.0209276
-0.0186425
-0.00144796
0.0257014
0.042828
0.08
0.132014
0.199005
0.280769
0.362489
0.464095
0.585588
0.756946
0.918167
1.01932
0.885566
0.491833
-0.146833
-0.85043
-1.3941
-1.71774
-1.79647
-2.05014
-2.12376
-2.15717
-2.14523
-2.07244
-1.92844
-1.7331
-1.48649
-1.29385
-1.18509
-1.14104
-1.06629
-0.926878
-0.768643
-0.64233
-0.573235
-0.530769
-0.469163
-0.372738
-0.24129
-0.0697285
0.106652
0.232738
0.298552
0.314253
0.319842
0.325385
0.35086
0.371267
0.396516
0.421606
0.456584
0.466425
0.481222
0.51595
0.545543
0.564955
0.579344
0.598688
0.623032
0.657466
0.6919
0.726244
0.760611
0.780136
0.794842
0.819706
0.844683
0.864683
0.884615
0.929638
0.929774
0.929932
0.920113
0.905362
0.880475
0.860407
0.840249
0.81
0.769706
0.719457
0.644299
0.578959
0.513281
0.452353
0.409842
0.376018
0.336041
0.284977
0.228009
0.170362
0.122398
0.0646154
0.0375792
0.0170136
-0.00640268
-0.017647
-0.0324434
-0.0612896
-0.0747511
-0.0930769
-0.101335
-0.104412
-0.107376
-0.0951584
-0.087828
-0.0854072
-0.0929185
-0.100385
-0.107873
-0.100362
-0.0878054
-0.0800679
-0.0772851
-0.0592986
-0.0660407
-0.0624434
-0.0834615
-0.0891403
-0.0893665
-0.0790724
-0.0629864
-0.0611538
-0.0737557
-0.0719457
-0.0718552
-0.0846833
-0.080724
-0.0891629
-0.0940271
-0.0991855
-0.105362
-0.121765
-0.123213
-0.13957
-0.145452
-0.155633
-0.164819
-0.157783
-0.164774
-0.161222
-0.177398
-0.188258
-0.193484
-0.188009
-0.1669
-0.170452
-0.173733
-0.176787
-0.169457
-0.176697
-0.163348
-0.154412
-0.145045
-0.130566
-0.116109
-0.0818099
-0.057647
-0.0436199
-0.00957014
0.0242308
0.0429186
0.0616742
0.0804073
0.104186
0.1331
0.177172
0.191267
0.200339
0.204457
0.168688
0.168054
0.177624
0.182398
0.162353
0.122353
0.0824208
0.0525339
0.0276923
0.0179186
-0.0116968
-0.0460181
-0.0652941
-0.0696154
-0.0839593
-0.0785068
-0.0632579
-0.0480995
-0.0380996
-0.0333258
-0.0387783
-0.0496154
-0.020905
0.0423982
0.0852715
0.437715
0.734819
1.01663
1.28317
1.51443
1.70552
1.81643
1.80213
1.65256
1.33276
0.887873
0.447941
0.162986
-0.00705883
-0.0672625
-0.0781901
-0.0997286
-0.141765
-0.194231
-0.222059
-0.245249
-0.258937
-0.268167
-0.278009
-0.288258
-0.293688
-0.293846
-0.313009
-0.310339
-0.319977
-0.326742
-0.331312
-0.329321
-0.316629
-0.308824
-0.296312
-0.294344
-0.292986
-0.312195
-0.311674
-0.322036
-0.313167
-0.305045
-0.317534
-0.325498
-0.338597
-0.366674
-0.389819
-0.412986
-0.421177
-0.45448
-0.467851
-0.496199
-0.524525
-0.552783
-0.571041
-0.594344
-0.597692
-0.606177
-0.609683
-0.628122
-0.636425
-0.654729
-0.643077
-0.631471
-0.59491
-0.553484
-0.507014
-0.475566
-0.434027
-0.412421
-0.370769
-0.333937
-0.277059
-0.260204
-0.178281
-0.12629
-0.104276
-0.0872399
-0.0802715
-0.0733032
-0.0763122
-0.0592308
-0.0372172
-0.0252715
-0.0233711
-0.0167421
-0.0251811
-0.0337331
-0.0373304
-0.0261992
-0.0253394
-0.00970599
0.00588223
0.01138
-0.00303179
-0.0225114
-0.0321494
-0.0218779
-0.0266516
0.0035972
0.0238687
0.0243438
0.0399773
0.0607691
0.0715837
0.107398
0.133122
0.158959
0.190068
0.226357
0.264253
0.303484
0.334072
0.355837
0.353665
0.352285
0.366425
0.38552
0.423914
0.435882
0.430814
0.428755
0.435362
0.441199
0.58681
0.702307
0.802783
0.893031
0.968054
1.05799
1.17281
1.29253
1.41719
1.49686
1.52638
1.47084
1.2602
0.859434
0.263642
-0.357444
-0.85362
-1.19986
-1.38124
-1.41778
-1.35948
-1.23629
-1.09305
-0.974774
-0.936584
-0.748394
-0.585362
-0.437285
-0.298982
-0.200521
-0.171855
-0.178077
-0.164321
-0.170588
-0.161855
-0.148077
-0.134367
-0.145611
-0.157014
-0.163575
-0.170339
-0.15724
-0.164253
-0.146267
-0.148303
-0.160453
-0.172941
-0.181199
-0.180634
-0.181471
-0.17371
-0.162036
-0.17129
-0.171244
-0.196538
-0.211674
-0.220973
-0.238733
-0.234185
-0.22224
-0.208778
-0.194366
-0.184502
-0.174525
-0.14448
-0.124118
-0.103439
-0.0826469
-0.0566967
-0.0356334
-0.0245248
-0.00341624
0.0076924
0.0387783
0.049819
0.0858597
0.101991
0.10819
0.0844796
0.0758597
0.0422624
0.0235747
0.0197964
0.0159729
0.0172624
-0.00644794
-0.00997743
-0.0434163
-0.0667874
-0.0950905
-0.0982353
-0.106357
-0.0992534
-0.0969004
-0.0942987
-0.0914932
-0.0934842
-0.0902715
-0.106855
-0.0982353
-0.0994571
-0.0806109
-0.0817421
-0.0826923
-0.073552
-0.0742761
-0.0649774
-0.0607467
-0.0465838
-0.0423983
-0.048258
-0.0285295
-0.038439
-0.0230997
-0.0174436
-0.0167648
-0.00585988
0.0104523
0.0271718
0.0293211
0.0616966
0.0840496
0.116018
0.136923
0.150927
0.207217
0.215611
0.216832
0.23647
0.270294
0.298936
0.322805
0.302127
0.282104
0.272624
0.263348
0.279955
0.272285
0.225271
0.173914
0.117964
0.0771718
0.0513347
0.0305881
0.00475103
-0.0160409
-0.0367423
-0.0623984
-0.0581223
-0.0539141
-0.0397739
-0.0307468
-0.0317196
-0.0376925
-0.0436427
-0.0247287
0.0290722
0.187692
0.426244
0.744774
1.06321
1.33661
1.57993
1.7781
1.88122
1.88421
1.71729
1.41548
0.938597
0.461697
0.139955
0.00839362
-0.042896
-0.0489367
-0.0497512
-0.115249
-0.180566
-0.210724
-0.230724
-0.235475
-0.235158
-0.234729
-0.229253
-0.233778
-0.233235
-0.23767
-0.246923
-0.261063
-0.265226
-0.269548
-0.269751
-0.266109
-0.268801
-0.272964
-0.293371
-0.304819
-0.322353
-0.330588
-0.354208
-0.36267
-0.385226
-0.385995
-0.404615
-0.436312
-0.467014
-0.482353
-0.492647
-0.503032
-0.513281
-0.533416
-0.553235
-0.577941
-0.592556
-0.627217
-0.636946
-0.636629
-0.636335
-0.630928
-0.620452
-0.619887
-0.604321
-0.588823
-0.553326
-0.507918
-0.487466
-0.417059
-0.376629
-0.351131
-0.320452
-0.289774
-0.259072
-0.223371
-0.192602
-0.166765
-0.145746
-0.139638
-0.118167
-0.131606
-0.124977
-0.123235
-0.116222
-0.103982
-0.0764931
-0.0739818
-0.0714026
-0.0737782
-0.0761085
-0.0683483
-0.0606334
-0.0631447
-0.0509048
-0.0539139
-0.0470813
-0.0504524
-0.034027
-0.0328506
-0.0369682
-0.0314026
-0.0260859
-0.020837
-0.0106559
0.0094572
0.0244572
0.0192762
0.0340273
0.0635748
0.0781676
0.107919
0.118394
0.129932
0.157919
0.187398
0.228054
0.269819
0.297466
0.320588
0.303756
0.286177
0.297263
0.316199
0.298009
0.273349
0.228032
0.182421
0.141787
0.101177
0.0803621
0.0642762
0.0480544
0.0167422
0.0202715
0.00373313
0.0121947
0.0206788
0.0340952
0.0374436
0.0306562
0.0186879
0.0265386
0.0342535
0.216878
0.434457
0.706946
1.0243
1.29145
1.51835
1.7302
1.8771
1.92414
1.86115
1.62817
1.22507
0.737036
0.31405
0.0909956
0.00805435
-0.00486419
0.0073756
-0.0252714
-0.0728506
-0.140385
-0.172873
-0.18043
-0.178054
-0.170882
-0.178778
-0.181674
-0.204615
-0.222511
-0.235339
-0.238168
-0.236018
-0.224027
-0.222308
-0.226177
-0.221131
-0.236991
-0.253846
-0.291629
-0.289593
-0.309095
-0.293982
-0.303643
-0.302602
-0.335181
-0.35086
-0.379525
-0.391652
-0.403009
-0.404027
-0.42491
-0.440701
-0.46629
-0.486471
-0.51638
-0.531222
-0.546041
-0.54595
-0.540882
-0.535769
-0.530566
-0.530339
-0.534932
-0.514548
-0.489163
-0.458846
-0.413529
-0.36319
-0.332783
-0.312195
-0.291561
-0.260928
-0.225249
-0.184547
-0.173914
-0.13319
-0.122285
-0.101267
-0.100068
-0.0937556
-0.0923529
-0.10086
-0.0842081
-0.082285
-0.0751131
-0.0727827
-0.0752714
-0.0727375
-0.075294
-0.0728053
-0.0751809
-0.0676243
-0.0501357
-0.0327827
-0.0305882
-0.0334841
-0.0516289
-0.054932
-0.053371
-0.0519456
-0.0207918
-0.00477371
-0.00393659
-0.00316736
0.00748873
0.0230543
0.0484842
0.0786878
0.103711
0.128643
0.143575
0.154299
0.180973
0.213824
0.2631
0.308507
0.31991
0.307285
0.285339
0.283552
0.291561
0.308529
0.303733
0.281697
0.26767
0.212647
0.192263
0.146901
0.111629
0.0862445
0.0556562
0.024706
0.0135296
0.0122852
0.0210635
0.0249096
0.0237784
0.0326924
0.0263576
0.0199096
0.018077
0.0359503
0.0836653
0.17629
0.348959
0.606561
0.87405
1.13113
1.35774
1.42385
1.78977
1.90038
1.88068
1.75043
1.46464
1.05828
0.61138
0.283914
0.0909277
0.0124888
-0.0262669
-0.0502715
-0.0941855
-0.167489
-0.235543
-0.255249
-0.267172
-0.251403
-0.238552
-0.239457
-0.260045
-0.250995
-0.292715
-0.280181
-0.283009
-0.251154
-0.249751
-0.25871
-0.268099
-0.302964
-0.3081
-0.298213
-0.28819
-0.278032
-0.267715
-0.27233
-0.281833
-0.291335
-0.300724
-0.315068
-0.324457
-0.318846
-0.328303
-0.352715
-0.372081
-0.386425
-0.410837
-0.440226
-0.44457
-0.448982
-0.463371
-0.467805
-0.477149
-0.491425
-0.500633
-0.51991
-0.504253
-0.488756
-0.473371
-0.458032
-0.427783
-0.392376
-0.366991
-0.341697
-0.306448
-0.271425
-0.236493
-0.191538
-0.161538
-0.131493
-0.121358
-0.111244
-0.101199
-0.086086
-0.0809276
-0.0605204
-0.0498869
-0.0492534
-0.0485973
-0.0330091
-0.0474208
-0.0469231
-0.056448
-0.046086
-0.0259276
-0.0259276
-0.0263801
-0.0422172
-0.0485973
-0.0552715
-0.0578959
-0.046086
-0.0296154
-0.0230996
-0.0258145
-0.0319684
-0.0410633
-0.0480996
-0.00823532
0.00809956
0.0907466
0.16457
0.214502
0.260249
0.266539
0.293439
0.341018
0.434208
0.543054
0.637172
0.700905
0.775633
0.885452
1.01982
1.16351
1.2752
1.39466
1.50176
1.61206
1.70615
1.77941
1.81676
1.78317
1.62342
1.54751
0.775724
0.143507
-0.468937
-0.931539
-1.20425
-1.27217
-1.19041
-1.02385
-0.867579
-0.771358
-0.680158
-0.553891
-0.432715
-0.291742
-0.160905
-0.0854753
-0.0752263
-0.0799322
-0.0796833
-0.0794796
-0.0892987
-0.0793213
-0.0745248
-0.0849547
-0.100588
-0.0914479
-0.0974887
-0.0986199
-0.0998868
-0.116357
-0.123032
-0.114774
-0.131652
-0.148643
-0.145588
-0.157421
-0.159208
-0.180837
-0.187285
-0.193733
-0.184864
-0.180882
-0.171606
-0.157036
-0.152217
-0.136991
-0.146335
-0.130226
-0.113846
-0.107149
-0.0501357
-0.0177149
8.9407e-08
0.0181449
0.0315838
0.0352489
0.0540272
0.0778507
0.0867647
0.105769
0.0948643
0.0840951
0.0883485
0.0626245
0.0468779
0.0361765
0.0554299
0.0697059
0.0839593
0.103281
0.122783
0.167262
0.231742
0.306176
0.335566
0.519909
0.614186
0.658665
0.638281
0.468009
0.132783
-0.317489
-0.772828
-1.18324
-1.51342
-1.80848
-2.06819
-2.29258
-2.42179
-2.44581
-2.4048
-2.29378
-2.15758
-2.04097
-1.86889
-1.71149
-1.55889
-1.461
-1.37262
-1.34369
-1.17912
-1.0791
-0.993529
-0.907511
-0.820973
-0.699118
-0.5219
-0.319525
-0.0923077
0.104231
0.24543
0.328145
0.367986
0.415023
0.444955
0.47862
0.516923
0.560543
0.574955
0.590204
0.585928
0.597217
0.614118
0.646538
0.664457
0.717873
0.751629
0.75052
0.769525
0.788642
0.802783
0.841855
0.870905
0.909887
0.943801
0.977783
1.00704
1.03136
1.05061
1.0698
1.09362
1.09238
1.09624
1.09009
1.07405
1.04321
1.01742
0.976538
0.925362
0.909118
0.827805
0.781516
0.730181
0.678869
0.637421
0.560747
0.493846
0.426538
0.389185
0.342149
0.305701
0.249977
0.219502
0.168756
0.132941
0.111719
0.0957013
0.095294
0.0855656
0.08138
0.067466
0.0584841
0.0643212
0.0600678
0.0656787
0.0712895
0.0668325
0.0626017
0.0585293
0.0546832
0.0359275
0.0420361
0.0429411
0.0385067
0.0435519
0.047647
0.0613574
0.0291402
0.0156107
-0.00346167
-0.0198644
-0.0226472
-0.0263802
-0.0302716
-0.0536879
-0.0764707
-0.0893666
-0.102919
-0.112398
-0.127511
-0.15267
-0.147511
-0.161719
-0.180249
-0.198281
-0.195475
-0.196855
-0.207398
-0.222489
-0.232172
-0.246629
-0.250272
-0.263552
-0.266606
-0.279344
-0.261697
-0.273529
-0.274661
-0.274796
-0.283575
-0.281199
-0.2781
-0.270045
-0.257172
-0.249276
-0.236018
-0.217308
-0.198054
-0.198462
-0.218665
-0.218756
-0.243891
-0.244118
-0.229367
-0.189367
-0.159118
-0.148416
-0.157443
-0.176335
-0.190091
-0.183688
-0.167172
-0.140407
-0.108394
-0.0910634
-0.108552
-0.14595
-0.153303
-0.125611
-0.0978733
-0.0200226
0.00296378
0.000927597
0.00368774
-0.0238462
-0.0517421
-0.0598643
-0.0281901
0.0280543
0.048733
0.0690498
0.0837331
0.108054
0.122104
0.17595
0.239548
0.312534
0.400091
0.432217
0.383982
0.265566
0.167104
0.148439
0.229412
0.264819
0.369977
0.32991
0.214796
0.0896833
-0.0206335
-0.0613801
-0.0577375
-0.0296153
-0.00708139
-0.00536194
-0.0244569
-0.0243438
-0.060181
-0.0868778
-0.128869
-0.136946
-0.0956334
-0.0146606
0.116267
0.297828
0.531086
0.796833
1.09543
1.43124
1.53355
1.88154
1.85462
1.61747
1.19998
0.687059
0.218484
-0.0509502
-0.165995
-0.18629
-0.176471
-0.191493
-0.22138
-0.251063
-0.265837
-0.260679
-0.275543
-0.300204
-0.334661
-0.339027
-0.343394
-0.367738
-0.387081
-0.371561
-0.341131
-0.330679
-0.335294
-0.334955
-0.319683
-0.344299
-0.423643
-0.487828
-0.512104
-0.421584
-0.341312
-0.296063
-0.340611
-0.399932
-0.47414
-0.498258
-0.522353
-0.52672
-0.516312
-0.481176
-0.456018
-0.475792
-0.510317
-0.554774
-0.579389
-0.609367
-0.619819
-0.635611
-0.646403
-0.662059
-0.687647
-0.718281
-0.72405
-0.710023
-0.691131
-0.67724
-0.668213
-0.674163
-0.679819
-0.675453
-0.626086
-0.566697
-0.502398
-0.483326
-0.464367
-0.410249
-0.335905
-0.271629
-0.212353
-0.177715
-0.167624
-0.172466
-0.157285
-0.0970362
-0.066448
-0.0353846
0.0108371
0.00680996
-0.0178733
-0.028009
0.0217195
0.09681
0.117059
0.147851
0.143529
0.14362
0.1781
0.266923
0.385679
0.489525
0.623439
0.797398
0.981312
1.16011
1.364
1.5479
1.60676
1.84052
1.95423
2.0331
2.0424
1.89726
1.52787
0.98448
0.372262
-0.143575
-0.477851
-0.636425
-0.658326
-0.595362
-0.508688
-0.404005
-0.271878
-0.0966743
0.0324434
0.0810407
0.0545022
0.013009
-0.0335295
-0.0652263
-0.052172
-0.0492987
-0.056448
-0.0936652
-0.135882
-0.163077
-0.175272
-0.187602
-0.200204
-0.172941
-0.165656
-0.173281
-0.170928
-0.143688
-0.141584
-0.169548
-0.232647
-0.281493
-0.265701
-0.224774
-0.168394
-0.156878
-0.200453
-0.244434
-0.258711
-0.268213
-0.282692
-0.252217
-0.211742
-0.18629
-0.200701
-0.21
-0.234118
-0.228258
-0.192511
-0.131787
-0.0560633
-0.0053167
-0.00959273
-0.033914
-0.0333031
-0.00276017
0.0330091
0.0488236
0.0295701
0.0102715
-0.0039819
0.00685521
0.00762444
0.0132579
-0.0014706
-0.0166742
-0.0375792
-0.0293212
-0.0271719
-0.0462217
-0.0562443
-0.0371267
-0.033371
-0.114502
-0.205
-0.219095
-0.181018
-0.140656
-0.148348
-0.170294
-0.177014
-0.173303
-0.149321
-0.150136
-0.140882
-0.141403
-0.141516
-0.156425
-0.171109
-0.155814
-0.14552
-0.110271
-0.134706
-0.148416
-0.131471
-0.113801
-0.0954751
-0.0813348
-0.0911991
-0.115
-0.123032
-0.125973
-0.107986
-0.084457
-0.0804299
-0.0562896
-0.0226018
0.00445703
0.018914
0.0155204
0.00481902
-0.0523077
-0.0800679
-0.0828054
-0.0401131
-0.0220136
0.0264932
-0.0194118
-0.049276
-0.0482127
-0.0367421
-0.0354525
-0.0393891
-0.0335294
-0.00760183
0.018552
0.0297964
0.030905
0.00680996
-0.0326018
-0.0371719
-0.0119909
0.0230996
0.0331448
0.0431448
0.0529864
0.0676697
0.0872625
0.116765
0.145995
0.149887
0.233371
0.246471
0.189548
0.17776
0.226131
0.289548
0.332692
0.33552
0.308235
0.275882
0.258507
0.251244
0.264095
0.267081
0.265
0.202896
0.170633
0.148439
0.126471
0.094819
0.0785746
0.0675339
0.0664027
0.0652036
0.0540498
-0.0269005
-0.0426697
-0.0134163
0.0157013
0.0197964
0.00880089
0.0177375
0.0414706
0.125045
0.278348
0.491652
0.740181
1.00389
1.28733
1.55559
1.81842
1.96133
1.99453
1.88767
1.5855
1.09824
0.606131
0.234344
0.0976244
0.075905
0.0242986
-0.0420136
-0.112964
-0.138801
-0.139638
-0.155453
-0.181131
-0.201765
-0.202466
-0.203213
-0.159005
-0.139661
-0.180339
-0.221063
-0.246697
-0.217511
-0.213801
-0.256018
-0.289615
-0.279593
-0.245769
-0.2231
-0.236425
-0.275498
-0.299887
-0.354072
-0.372308
-0.348824
-0.3381
-0.350385
-0.376448
-0.402398
-0.438416
-0.479231
-0.489502
-0.479548
-0.479412
-0.53457
-0.609774
-0.649932
-0.635045
-0.625181
-0.625181
-0.670045
-0.704842
-0.719706
-0.694593
-0.684321
-0.653959
-0.64362
-0.598258
-0.587941
-0.587602
-0.547308
-0.50181
-0.471131
-0.445362
-0.394525
-0.32862
-0.277624
-0.246561
-0.205068
-0.178507
-0.162149
-0.135815
-0.129005
-0.106878
-0.0745022
-0.0570136
-0.0445475
-0.0471946
-0.0347737
-0.0122172
-0.00952487
-0.00180993
0.000995509
0.0185973
0.0161765
0.00871043
0.00608601
-0.00180993
0.01
0.0315837
0.0279864
0.0242082
0.0152941
0.0159955
0.0315837
0.0472398
0.0379638
0.0482127
0.0782127
0.128235
0.173371
0.223846
0.214955
0.152127
0.130317
0.20457
0.240045
0.341674
0.359548
0.32319
0.272059
0.27043
0.292353
0.307127
0.284774
0.265769
0.246109
0.21629
0.156199
0.100882
0.0753168
0.0846833
0.0790046
0.0482353
0.0223077
0.021267
0.0452263
0.0641403
0.0680996
0.0470136
0.0406787
0.0340045
0.0871267
0.205272
0.418416
0.706357
0.979095
1.2267
1.4693
1.69695
1.87464
1.9374
1.90514
1.71772
1.35507
0.867534
0.420113
0.138122
0.0561312
0.0439819
-0.00328054
-0.080362
-0.11224
-0.104072
-0.0860407
-0.108258
-0.120701
-0.123235
-0.120679
-0.158167
-0.185724
-0.178371
-0.141086
-0.128846
-0.166652
-0.214819
-0.253484
-0.268167
-0.238982
-0.216063
-0.204344
-0.247828
-0.28776
-0.303032
-0.3081
-0.301968
-0.298688
-0.312805
-0.324887
-0.325747
-0.336131
-0.34138
-0.396493
-0.401335
-0.410814
-0.429932
-0.448891
-0.452919
-0.481991
-0.516131
-0.530181
-0.529095
-0.547919
-0.561742
-0.585588
-0.594525
-0.578484
-0.547489
-0.496357
-0.45509
-0.413688
-0.372376
-0.351041
-0.344728
-0.333439
-0.317127
-0.300792
-0.189344
-0.142692
-0.135905
-0.133982
-0.121833
-0.104253
-0.121606
-0.0941176
-0.061629
-0.0438009
-0.0257919
-0.0323529
-0.0538462
-0.0653394
-0.0570588
-0.0336878
-0.0402941
-0.0569909
-0.0588688
-0.0458145
-0.0279638
-0.0154072
-0.0282353
-0.0414253
-0.0498869
-0.0383937
-0.0321719
-0.0213122
-0.0157466
-0.0153167
-0.00484162
0.0306787
0.0611765
0.076448
0.111606
0.131674
0.156991
0.163054
0.170136
0.188507
0.237805
0.28319
0.309706
0.302398
0.26595
0.264864
0.263643
0.311516
0.32267
0.316674
0.213688
0.189457
0.199774
0.190045
0.110068
0.0547285
0.0541855
0.0837557
0.0835294
0.0582805
0.0378507
0.0322851
0.0516516
0.0657919
0.0397737
0.0186651
0.0125113
0.046267
0.134729
0.272873
0.505814
0.79862
1.08667
1.35002
1.43344
1.79665
1.89964
1.87762
1.66088
1.24937
0.723054
0.301787
0.0707013
-0.0101584
-0.0259276
-0.0316516
-0.0875566
-0.148416
-0.199344
-0.220362
-0.196493
-0.192624
-0.168959
-0.17052
-0.202172
-0.218756
-0.220407
-0.202398
-0.190226
-0.199186
-0.199321
-0.245588
-0.272783
-0.290928
-0.284819
-0.304163
-0.318575
-0.322466
-0.320045
-0.315407
-0.353529
-0.389548
-0.389661
-0.369548
-0.374412
-0.419321
-0.444027
-0.473439
-0.497489
-0.501267
-0.509955
-0.508529
-0.512172
-0.55595
-0.564864
-0.593778
-0.582602
-0.551425
-0.535294
-0.539253
-0.51319
-0.476946
-0.450543
-0.424186
-0.387941
-0.366787
-0.310611
-0.259434
-0.218145
-0.18681
-0.170339
-0.15871
-0.14681
-0.114774
-0.0926697
-0.0753168
-0.0726697
-0.114751
-0.121765
-0.113846
-0.040905
-0.0276697
-0.0290498
-0.0552036
-0.0614254
-0.0728281
-0.0693213
-0.0508824
-0.0273077
-0.0336652
-0.0350453
-0.0369457
-0.0141177
-0.0114706
0.00104069
0.00787327
0.0241629
0.0102715
-0.0135973
-0.0273982
0.00361988
0.0343891
0.0549773
0.0705203
0.0810181
0.111357
0.161652
0.196991
0.227466
0.253281
0.264615
0.287036
0.270882
0.241131
0.252489
0.269118
0.297398
0.301244
0.255113
0.228032
0.199095
0.182692
0.134367
0.0848643
0.0550226
0.040181
0.0253846
0.0103394
0.0149095
0.0139593
0.0177828
0.0117421
0.0257919
0.0399548
0.0440724
0.0278959
0.0215837
0.0800679
0.238484
0.476765
0.74991
1.02805
1.28111
1.52914
1.73215
1.87005
1.90283
1.79068
1.5088
1.0321
0.550611
0.194186
0.0377376
-0.00861992
-0.0149095
0.00382352
-0.0275792
-0.114005
-0.170453
-0.2019
-0.208303
-0.219796
-0.216448
-0.213303
-0.20043
-0.197557
-0.199661
-0.211833
-0.224344
-0.212014
-0.211629
-0.242398
-0.274072
-0.286606
-0.284909
-0.283778
-0.287964
-0.291833
-0.315091
-0.327195
-0.362534
-0.390882
-0.417579
-0.418371
-0.418756
-0.439005
-0.484118
-0.519118
-0.52914
-0.508891
-0.498439
-0.517534
-0.561629
-0.59086
-0.590271
-0.594774
-0.584276
-0.57871
-0.568032
-0.577195
-0.581425
-0.570656
-0.534932
-0.484163
-0.463416
-0.392602
-0.326674
-0.28552
-0.259299
-0.273213
-0.257353
-0.221425
-0.185339
-0.154095
-0.127715
-0.116131
-0.124253
-0.137059
-0.129706
-0.11224
-0.084638
-0.0869231
-0.103982
-0.121041
-0.0981448
-0.0700452
-0.0668099
-0.0835068
-0.105249
-0.107217
-0.104231
-0.0814027
-0.0736878
-0.0412217
-0.044095
-0.057172
-0.070362
-0.0688009
-0.0425566
0.0234615
0.0542308
0.0498642
0.0353846
0.0359276
0.0465158
0.0820588
0.0974208
0.14267
0.1781
0.224276
0.251561
0.260045
0.244751
0.235498
0.237262
0.284887
0.307964
0.296041
0.248416
0.224208
0.192489
0.143235
0.111878
0.0890724
0.0903846
0.076448
0.0583032
0.0366063
0.0119683
-0.0121267
-0.0224208
-0.00604073
0.0364932
0.0848643
0.108846
0.108235
0.0827602
0.117104
0.231018
0.289321
0.722081
1.00903
1.25002
1.4702
1.66977
1.83382
1.92738
1.91538
1.8326
1.61905
1.25989
0.835158
0.479774
0.28862
0.227217
0.214615
0.196516
0.168122
0.124661
0.0512896
0.00809956
-0.025181
-0.0186878
0.00244345
0.0083258
0.0141403
-0.00515835
-0.0244117
-0.0388009
-0.0582805
-0.0579864
-0.0677828
-0.067647
-0.0624434
-0.0621041
-0.0717421
-0.0961538
-0.135339
-0.169548
-0.168665
-0.13819
-0.127783
-0.137262
-0.156629
-0.175814
-0.214887
-0.253982
-0.278235
-0.282557
-0.281855
-0.290905
-0.309661
-0.343235
-0.366719
-0.395068
-0.43819
-0.460973
-0.458575
-0.456086
-0.463507
-0.490769
-0.492805
-0.489548
-0.48595
-0.462127
-0.448213
-0.439253
-0.400136
-0.345928
-0.291448
-0.236516
-0.201357
-0.181176
-0.171041
-0.165814
-0.150475
-0.124977
-0.104367
-0.0835068
-0.0874434
-0.0911765
-0.0797511
-0.0683484
-0.0420362
-0.0157918
0.000497777
0.0419457
0.0785068
0.125
0.196222
0.27733
0.358235
0.468982
0.634706
0.785362
0.836086
0.681765
0.332376
-0.207127
-0.381765
-1.25154
-1.62631
-1.89093
-2.07034
-2.19952
-2.27362
-2.29778
-2.25715
-2.1714
-2.04523
-1.9088
-1.72043
-1.53075
-1.36998
-1.23319
-1.10048
-0.972059
-0.838303
-0.64957
-0.486199
-0.348733
-0.247828
-0.123801
0.0236879
0.0802489
0.346471
0.437625
0.458688
0.439661
0.410498
0.391041
0.42138
0.451493
0.486652
0.511946
0.527308
0.54767
0.547896
0.582873
0.612738
0.65233
0.666855
0.691358
0.710815
0.730249
0.74457
0.76371
0.777624
0.82138
0.825136
0.899072
0.928281
0.937489
0.946674
0.935973
0.93543
0.949796
0.974118
0.973484
0.973009
0.932715
0.892579
0.847489
0.807285
0.756968
0.726561
0.675973
0.635272
0.594593
0.548869
0.508077
0.457217
0.41138
0.340249
0.318326
0.290385
0.261222
0.20586
0.179615
0.137624
0.0951584
0.0677376
0.0507919
0.0399095
0.0156787
-0.00156108
-0.00214932
-0.0116063
-0.020543
-0.0292986
-0.0280317
-0.0366742
-0.0249774
-0.0229412
-0.0206561
-0.0332353
-0.0257919
-0.0331674
-0.0354299
-0.0275113
-0.0293439
-0.0157692
-0.0267421
-0.0470814
-0.0465385
-0.0502941
-0.0438461
-0.0382127
-0.0292081
-0.0226244
-0.0167647
-0.0348416
-0.0645023
-0.080362
-0.0970362
-0.109299
-0.1119
-0.109593
-0.117059
-0.114027
-0.125317
-0.13595
-0.150588
-0.159253
-0.172172
-0.184412
-0.181018
-0.166923
-0.177127
-0.181403
-0.194864
-0.20767
-0.214977
-0.226697
-0.207715
-0.188416
-0.177873
-0.1669
-0.16586
-0.169932
-0.169163
-0.15871
-0.13319
-0.127715
-0.127217
-0.126765
-0.111448
-0.0911764
-0.0461085
-0.0260859
0.0238688
0.048801
0.0537557
0.0737331
0.0937331
0.128846
0.168937
0.204027
0.209118
0.184367
0.154638
0.135272
0.156109
0.162014
0.127941
0.083733
0.0744796
0.0552714
0.0312217
0.00223978
-0.0266743
-0.060724
-0.0799774
-0.0794796
-0.0692308
-0.069276
-0.0645023
-0.0549774
-0.0506788
-0.0315385
-0.0176245
-0.0239367
-0.0256109
0.0474208
0.230068
0.482557
0.769932
1.04719
1.28403
1.5057
1.66676
1.71258
1.64339
1.42939
1.07548
0.641516
0.292398
0.0681901
-0.0260407
-0.0451357
-0.0539593
-0.0775113
