ekg
0
0.0899999
0.314
-0.0207143
-0.801111
-1.18727
-1.09577
-0.805
-0.635294
-0.567895
-0.472619
-0.381087
-0.3412
-0.306852
-0.250862
-0.227097
-0.238182
-0.259857
-0.254865
-0.238333
-0.205732
-0.188721
-0.210778
-0.248298
-0.264694
-0.272549
-0.262642
-0.227182
-0.220614
-0.237712
-0.252705
-0.280635
-0.302
-0.320896
-0.313116
-0.303873
-0.262603
-0.2352
-0.227273
-0.172975
-0.138827
-0.133855
-0.143647
-0.0993678
0.0155056
0.0796703
0.117849
0.186263
0.244588
0.277424
0.284752
0.343447
0.401571
0.395748
0.395
0.414234
0.388496
0.394304
0.404444
0.384874
0.354752
0.33939
0.32928
0.334095
0.282752
0.251985
0.241579
0.220444
0.189927
0.165252
0.170993
0.137413
0.0793793
0.0716327
0.084698
0.0872516
0.0503921
0.0234516
0.0264968
0.0423271
0.023323
-0.0100307
-0.0613333
-0.0827246
-0.0804438
-0.0479825
0.000433527
-0.0127714
-0.0568362
-0.026676
0.0430663
0.0728962
0.0573243
0.0566577
0.0758201
0.0847906
0.0785751
0.0869744
0.145076
0.158141
0.145697
0.0924384
0.0887317
0.139251
0.108804
0.0678436
0.070446
0.0624186
0.0584562
0.0592694
0.050181
0.0754977
0.0593439
0.00524884
-0.0233258
0.00321265
0.0425113
0.0116742
-0.0232353
0.00244341
0.033552
0.0401131
0.0118778
-0.00115388
0.0110407
0.00357465
0.00626695
0.0539819
0.0966516
0.0593665
0.0121041
9.04948e-05
0.0182805
0.0564932
0.0547285
0.0180317
0.00640272
-0.0250905
-0.0713575
-0.0925339
-0.0687331
-0.0997964
-0.166109
-0.182602
-0.174095
-0.185498
-0.226991
-0.268371
-0.279502
-0.245566
-0.241584
-0.297579
-0.29362
-0.284751
-0.310452
-0.330588
-0.27552
-0.180226
-0.0846154
0.0812217
0.432376
1.02867
1.8452
2.52199
2.56889
2.12084
1.44794
0.344842
-0.683145
-1.08093
-0.998869
-0.76681
-0.654819
-0.593032
-0.571222
-0.559638
-0.473394
-0.45224
-0.46095
-0.429796
-0.424027
-0.453303
-0.432511
-0.412217
-0.417127
-0.416901
-0.411629
-0.401584
-0.411878
-0.402127
-0.392217
-0.386991
-0.386946
-0.367014
-0.346946
-0.321765
-0.34638
-0.360701
-0.309887
-0.294208
-0.283462
-0.227466
-0.191244
-0.175023
-0.153778
-0.117421
-0.0509955
-0.00457016
0.0418099
0.0533257
0.0999547
0.206742
0.263167
0.284072
0.334525
0.389593
0.441357
0.449502
0.418552
0.415724
0.398982
0.339547
0.31905
0.358846
0.337059
0.321086
0.249547
0.262489
0.275068
0.26233
0.18957
0.151878
0.173937
0.145769
0.112579
0.0845249
0.0666516
0.0439366
0.026267
0.0185973
0.030724
0.0126923
-0.010543
-0.0287331
-0.0565837
-0.0693892
-0.0723756
-0.0704525
-0.0636878
-0.057172
-0.0507693
-0.0794344
-0.0383032
-0.00748871
-0.0167195
-0.0209955
0.0145022
0.0347059
0.00963799
0.00423075
0.0488009
0.0783258
0.092466
0.10138
0.0500905
0.0385972
0.0563574
0.0441176
0.0421493
0.0503846
0.0142534
-0.00529414
0.00276014
0.0144344
-0.00583714
-0.00599553
-0.0131675
0.0117646
-0.00823538
-0.047896
-0.0393892
-0.0754525
-0.0802489
-0.0494571
-0.0534163
-0.0571494
-0.0156109
-0.00859731
-0.0615159
-0.0643439
-0.00699097
0.00565608
-0.0467421
0.00104069
0.0338914
0.0118552
-6.78822e-05
0.0079638
0.0511086
0.0393891
0.0177828
-0.0688914
-0.0456335
-0.0422172
-0.0738235
-0.100543
-0.127262
-0.154005
-0.205724
-0.22733
-0.218959
-0.210452
-0.236606
-0.25776
-0.268891
-0.279932
-0.291063
-0.301923
-0.287624
-0.2631
-0.278371
-0.328462
-0.303054
-0.192353
-0.0415837
0.0145475
0.705973
1.51285
2.41493
2.83181
2.59851
2.08529
1.23206
0.0387783
-0.774366
-0.982624
-0.825996
-0.664683
-0.608462
-0.567217
-0.531041
-0.509932
-0.444163
-0.418462
-0.422851
-0.437421
-0.482195
-0.512104
-0.472127
-0.427195
-0.417421
-0.427602
-0.392919
-0.383348
-0.418778
-0.429231
-0.424819
-0.415317
-0.410656
-0.400814
-0.396018
-0.356109
-0.341109
-0.335792
-0.340407
-0.32009
-0.279525
-0.253824
-0.233145
-0.167466
-0.126538
-0.110407
-0.0792307
-0.023009
0.0333484
0.0546833
0.200747
0.256629
0.291787
0.340634
0.36267
0.356787
0.3669
0.369367
0.357398
0.367398
0.355792
0.319027
0.30629
0.310113
0.319005
0.306538
0.258688
0.240656
0.247624
0.21948
0.171222
0.152964
0.159661
0.131154
0.122738
0.0646606
0.0465837
0.0282805
0.0352036
0.0071267
-0.0159728
0.000882365
-0.0123529
-0.0503846
-0.0635068
-0.0366968
-0.0153394
-0.0489593
-0.0225566
0.0236878
0.049638
0.0304072
0.0110407
0.0364253
0.0567421
0.0370136
0.0171493
0.0520362
0.0617421
0.0611086
0.115249
0.119095
0.12776
0.121312
0.0846833
0.0876471
0.0802941
0.0679412
0.0706561
0.038733
0.0269457
-0.01681
-0.0420136
-0.00814481
0.0526244
0.0374887
0.000226289
-0.000927538
0.00746613
0.00237562
0.00149324
-0.00873304
0.0170362
0.0183258
0.0148869
-0.0484163
-0.016629
0.015543
0.00298642
0.00538462
0.0179186
0.0254751
0.0229638
0.0104751
0.0331674
0.031086
0.0391177
0.0374208
0.0158371
-0.0109276
0.00221718
-0.0245928
-0.0613801
-0.0981222
-0.0847512
-0.106335
-0.157919
-0.189502
-0.175973
-0.172466
-0.234027
-0.23052
-0.207014
-0.233371
-0.29448
-0.29552
-0.276448
-0.272149
-0.292647
-0.337919
-0.287964
-0.227285
-0.0763348
0.214706
0.62595
1.23742
2.10391
2.69543
2.57713
2.11407
1.35618
0.273167
-0.594977
-0.958213
-1.00647
-0.689728
-0.6331
-0.591697
-0.555475
-0.529367
-0.503394
-0.457557
-0.436742
-0.440973
-0.460339
-0.474842
-0.459638
-0.459389
-0.459208
-0.42405
-0.439344
-0.439819
-0.410294
-0.410656
-0.400973
-0.406267
-0.391403
-0.371267
-0.371199
-0.365928
-0.325385
-0.309661
-0.303733
-0.297828
-0.3019
-0.28095
-0.239977
-0.20905
-0.187873
-0.121516
-0.0801584
-0.0236878
0.00773755
0.0493891
0.116063
0.192262
0.212783
0.236991
0.329321
0.393529
0.408484
0.415611
0.422986
0.412353
0.400385
0.363643
0.32086
0.329615
0.343167
0.300973
0.268462
0.281018
0.223484
0.165769
0.147828
0.15491
0.156719
0.138597
0.105566
0.112443
0.0695701
0.0217647
0.0088914
0.0459955
0.0529638
0.0150452
-0.0178281
-0.0406561
-0.0534616
-0.046448
-0.0347285
-0.0379864
-0.0312896
-0.0348869
-0.0486652
-0.0523077
-0.0109955
0.00497738
-0.0145475
-0.0142308
0.0211539
0.0462444
0.071086
0.0609276
0.0706787
0.0948643
0.0836652
0.0621946
0.0704299
0.0733258
0.0407692
0.0231222
0.015543
0.0285747
0.0329186
0.00891403
0.00757918
0.0302262
0.0155656
-0.0296833
-0.0368552
-0.0123077
-0.0174434
-0.0164027
-0.0170588
-0.0178507
-0.0121041
-0.0163122
-0.000226267
0.0261538
0.0229185
-0.000203617
-0.0181674
-0.00588236
-0.00855204
0.00871038
0.0111312
-0.0213122
-0.0287104
-0.020905
0.0472624
0.0604072
0.073552
0.03181
-0.0198869
-0.041448
-0.0530317
-0.094638
-0.116312
-0.138054
-0.154955
-0.171719
-0.238235
-0.254842
-0.236493
-0.223258
-0.249955
-0.261516
-0.282851
-0.314005
-0.314977
-0.285837
-0.271335
-0.311697
-0.321968
-0.2519
-0.0964254
0.189412
0.595317
1.29152
2.20303
2.81975
2.72167
2.25371
1.47084
0.368009
-0.529909
-0.912964
-0.871018
-0.69405
-0.622353
-0.631086
-0.614887
-0.543688
-0.487443
-0.49138
-0.490588
-0.469842
-0.454072
-0.443665
-0.493371
-0.493303
-0.468303
-0.463348
-0.443529
-0.443914
-0.454276
-0.454367
-0.459389
-0.439615
-0.399842
-0.389842
-0.404751
-0.374683
-0.369615
-0.384321
-0.394027
-0.368371
-0.287511
-0.236652
-0.245769
-0.239842
-0.178914
-0.152783
-0.156538
-0.0902263
-0.00373304
0.0778733
0.149615
0.206131
0.262172
0.332308
0.376109
0.387692
0.380837
0.415068
0.422127
0.394932
0.380158
0.381131
0.340068
0.307602
0.261425
0.239706
0.252376
0.234909
0.21233
0.259615
0.236629
0.208643
0.15086
0.153032
0.165023
0.131991
0.119005
0.115973
0.06819
0.0554299
0.0473529
0.00423076
-0.0387557
-0.0465159
-0.0444118
-0.0372851
-0.0453168
-0.0634616
-0.0617647
-0.0402489
-0.00386879
0.0124887
0.0536425
0.0645475
0.0252489
0.0506561
0.0659276
0.0860181
0.0909502
0.100724
0.0803394
0.059638
0.083552
0.0973756
0.0711538
0.0697285
0.0877602
0.0755204
0.0583484
-0.00330317
0.00628959
0.0377149
0.0420588
0.0304072
0.0164479
0.0221267
0.0107466
0.000791848
-0.0142308
-0.0331901
-0.0337557
-0.0340498
-0.0234616
0.0326244
0.0537104
-0.0101131
-0.0836426
-0.06681
-0.0046154
0.00276018
-0.0247964
0.0177375
0.0454525
0.0479638
0.0105204
0.00332578
0.0662217
0.114367
0.0676018
-0.0291855
-0.0709729
-0.0427149
-0.0393891
-0.0807919
-0.107195
-0.0987557
-0.105249
-0.171833
-0.178484
-0.220091
-0.251652
-0.272873
-0.27871
-0.254683
-0.230928
-0.252059
-0.288032
-0.293869
-0.309389
-0.344661
-0.394661
-0.334344
-0.22362
-0.0525566
0.228846
0.71543
1.49222
2.36403
2.82109
2.65342
2.13568
1.94774
0.134796
-0.673145
-0.935973
-0.818937
-0.677059
-0.640294
-0.608665
-0.567172
-0.505679
-0.484344
-0.498122
-0.487127
-0.466154
-0.475181
-0.469389
-0.458801
-0.493462
-0.493507
-0.453462
-0.44819
-0.468145
-0.448371
-0.403462
-0.393303
-0.398122
-0.423077
-0.408054
-0.377873
-0.387624
-0.402285
-0.376674
-0.335656
-0.304434
-0.303507
-0.287443
-0.226154
-0.174729
-0.163416
-0.137014
-0.0856787
-0.0293891
-0.0079638
0.0334389
0.0947738
0.176176
0.227466
0.283303
0.323122
0.331063
0.326131
0.367149
0.379796
0.387172
0.356493
0.334344
0.337557
0.355023
0.329434
0.303824
0.287285
0.270068
0.232692
0.225362
0.222851
0.229977
0.206629
0.123484
0.0856561
0.0928959
0.0900226
0.0620362
0.059095
0.0511086
0.0228959
0.00988686
-0.0228281
-0.0404751
-0.0434163
-0.0417647
-0.0551584
-0.0483032
-0.0664027
-0.0547285
-0.0332579
-0.01681
0.0095475
0.0105204
-0.00861991
0.00687783
0.0121493
-0.0228507
-0.0029638
0.0619231
0.0966742
0.0862443
0.0504525
0.0443892
0.0732353
0.0916742
0.089457
0.0521493
0.0303167
0.0242534
0.0291177
0.000837117
0.00101811
0.000294112
-0.0282806
-0.0175792
0.0307466
0.0482127
0.00757919
-0.0568099
-0.0822851
-0.0771493
-0.0461991
-0.0400453
-0.0386878
0.00309953
0.0103167
0.00273754
-0.00979639
-0.00723982
0.000429861
0.00328054
0.0311991
0.0792081
0.11224
0.0754072
0.0136878
0.0170362
0.0304525
-0.0109728
-0.0672624
-0.0685747
-0.0499774
-0.0664932
-0.102986
-0.0994796
-0.086086
-0.13276
-0.184231
-0.220701
-0.197195
-0.203801
-0.240452
-0.2519
-0.223054
-0.234027
-0.239932
-0.250701
-0.256177
-0.236493
-0.246674
-0.261561
-0.216063
-0.125339
0.0858145
0.44224
1.08878
2.01545
2.76238
2.80421
2.35122
1.56819
0.365339
-0.587489
-1.03032
-1.03817
-0.826063
-0.669118
-0.617262
-0.565792
-0.499367
-0.477919
-0.441539
-0.465362
-0.469525
-0.473846
-0.473167
-0.402511
-0.382014
-0.366674
-0.351403
-0.401199
-0.401041
-0.366109
-0.346335
-0.351403
-0.38138
-0.406425
-0.411312
-0.401177
-0.381018
-0.365679
-0.350091
-0.329276
-0.308235
-0.267036
-0.245928
-0.20491
-0.183959
-0.157851
-0.101425
-0.079819
-0.0332353
0.0232353
0.0296833
0.0862443
0.182828
0.264253
0.270023
0.269525
0.342172
0.414186
0.415385
0.368462
0.336403
0.316606
0.315656
0.314796
0.292828
0.31733
0.296538
0.279774
0.242534
0.234977
0.222172
0.169208
0.13629
0.113371
0.0903846
0.0823303
0.0791629
0.031086
0.0230995
0.0153167
-0.0222172
-0.0495249
-0.031991
-0.039819
-0.0727602
-0.0858371
-0.0691629
-0.0526244
-0.0359955
-0.0343891
-0.0229412
0.0082353
0.024276
0.0252715
0.00601809
0.0466516
0.0821041
0.107511
0.132919
0.148122
0.133054
0.102896
0.112466
0.131878
0.121222
0.105181
0.113846
0.107398
0.100611
0.0985294
0.0566968
0.035724
0.0211765
-0.00542985
-0.00285069
0.0530317
0.0442081
0.0434163
-0.00588229
-0.00554289
0.00572406
-0.0249321
-0.0505656
-0.0400905
-0.0437783
-0.00230771
-0.00561088
-0.0184389
-0.000972874
0.0168099
0.00468326
-0.00239819
0.000497736
-0.00147059
0.00196832
0.0304299
0.0340724
0.0179864
0.0118099
0.0257014
0.039819
-0.000882372
-0.021629
-0.022715
-0.0541403
-0.080543
-0.07681
-0.0982127
-0.139683
-0.165996
-0.217127
-0.273235
-0.239389
-0.215566
-0.236516
-0.252579
-0.258552
-0.264231
-0.269842
-0.280362
-0.280588
-0.275837
-0.260882
-0.225543
-0.11491
0.145905
0.5519
0.698281
1.95493
2.64183
2.6638
2.12561
1.27726
0.193937
-0.654231
-1.01731
-1.01025
-0.813394
-0.696697
-0.590181
-0.523824
-0.482625
-0.446629
-0.435747
-0.425158
-0.419683
-0.389072
-0.398575
-0.413507
-0.428597
-0.433643
-0.44871
-0.448733
-0.428733
-0.399005
-0.35448
-0.339887
-0.365339
-0.385656
-0.360543
-0.340294
-0.315023
-0.279457
-0.253597
-0.242602
-0.266652
-0.260611
-0.224389
-0.227941
-0.216448
-0.164864
-0.113371
-0.0619458
-0.0304073
-0.0237783
0.058009
0.144842
0.161425
0.222466
0.332557
0.366131
0.381923
0.413733
0.396674
0.383258
0.386041
0.352104
0.328167
0.319683
0.303552
0.252647
0.235905
0.223756
0.191267
0.163642
0.180656
0.182579
0.144389
0.101199
0.0681674
0.0252715
0.0123303
0.0143212
-0.0137783
-0.0319683
-0.015181
-0.0382579
-0.0813349
-0.10948
-0.122624
-0.135814
-0.154072
-0.147602
-0.101267
-0.0497964
-0.0585068
-0.0773756
-0.0261991
0.00479637
-0.014638
-0.034457
-0.0195249
0.030362
0.0552941
0.0451357
0.0898416
0.0942987
0.0834389
0.0872398
0.110747
0.0990724
0.107195
0.114887
0.122285
0.13491
0.0979412
0.0567647
0.0472851
0.0634615
0.0252715
-0.0149095
0.0101131
0.0427149
0.0465158
0.0105429
-0.0392535
-0.0554978
-0.0414932
-0.0315611
-0.0358824
-0.014638
0.00199092
-0.0111086
-0.0239593
0.0134163
0.0109728
-0.0313801
-0.013552
0.029276
0.0521946
0.0302941
-0.0064932
-0.0483937
-0.0403167
0.00805429
0.0167421
-0.0144118
0.00947964
-0.00678733
-0.0882579
-0.119751
-0.115995
-0.152059
-0.203167
-0.234412
-0.245701
-0.227059
-0.233462
-0.259774
-0.246109
-0.252466
-0.248665
-0.264842
-0.28086
-0.281561
-0.327081
-0.352172
-0.286855
-0.171448
0.0343439
0.370656
0.947059
1.80853
2.65038
2.92224
2.65391
1.97575
0.852624
-0.360611
-0.933982
-0.982489
-0.781199
-0.715023
-0.658937
-0.612896
-0.532081
-0.466267
-0.44052
-0.450023
-0.464774
-0.474683
-0.474751
-0.464909
-0.439932
-0.420136
-0.410633
-0.41086
-0.406109
-0.406335
-0.411742
-0.387172
-0.357624
-0.338009
-0.328281
-0.358303
-0.347941
-0.337398
-0.341855
-0.321086
-0.265158
-0.204276
-0.198462
-0.242624
-0.216538
-0.170249
-0.158937
-0.117466
-0.0509728
0.020362
0.0812444
0.111448
0.155339
0.253824
0.327738
0.302851
0.310769
0.383959
0.404095
0.397715
0.406765
0.429751
0.409095
0.408122
0.401312
0.373914
0.371086
0.327941
0.279729
0.271448
0.223213
0.204977
0.186719
0.168597
0.150588
0.112602
0.0845928
0.071448
0.0630543
0.0547285
0.0217195
-0.0311991
-0.0593891
-0.0478507
-0.0415158
-0.0851131
-0.123303
-0.11138
-0.104638
-0.0929638
-0.0664253
-0.0352489
-0.069276
-0.0834389
-0.0377828
0.0175113
0.0373077
0.02681
0.0414706
0.0559955
0.0550905
0.0688914
0.0823304
0.125679
0.138597
0.0961765
0.0583258
0.0400226
0.031629
0.0234163
-0.00445699
-0.0114479
0.00309958
0.0102941
-0.028552
-0.0233937
0.0281222
0.0184163
-0.00934386
-0.00214926
0.0147738
0.0192082
0.00332582
0.00337105
0.0039593
-0.0250226
-0.00855201
0.00346155
0.0158145
0.0283484
0.0358824
0.0334616
0.0212218
0.0240724
-0.00798641
9.05171e-05
0.0434163
-0.00314478
-0.0247737
-0.0764479
-0.0680543
-0.0795927
-0.0911086
-0.127602
-0.149163
-0.160498
-0.196855
-0.248416
-0.270091
-0.271765
-0.278348
-0.289819
-0.296131
-0.287443
-0.293778
-0.314932
-0.33086
-0.321742
-0.322353
-0.29776
-0.192986
-0.0179185
0.262285
0.362624
1.38348
2.23491
2.73638
2.64308
2.1752
1.39731
0.214434
-0.698348
-1.04615
-0.959027
-0.746833
-0.614842
-0.553122
-0.526448
-0.519977
-0.483733
-0.477511
-0.476471
-0.445724
-0.455113
-0.489547
-0.504118
-0.458937
-0.429163
-0.414638
-0.409751
-0.434525
-0.429186
-0.389027
-0.364208
-0.359231
-0.363824
-0.403281
-0.417986
-0.407873
-0.36767
-0.352308
-0.35181
-0.336199
-0.300769
-0.295317
-0.264751
-0.183846
-0.12767
-0.141538
-0.115158
-0.0436425
0.0376018
0.113552
0.138597
0.217285
0.273462
0.360837
0.404027
0.385407
0.397805
0.427783
0.431652
0.425973
0.41914
0.408552
0.367195
0.340091
0.342896
0.34052
0.332783
0.284796
0.261697
0.283778
0.280928
0.228009
0.190023
0.137014
0.0991177
0.0911765
0.0781448
0.0701358
0.0471267
-0.000814468
-0.0188009
-0.0268778
-0.0300452
-0.0630317
-0.0757918
-0.0588914
-0.0421946
-0.0558145
-0.0744796
-0.0533032
-0.0272398
0.00848419
-0.0310859
-0.0558823
-0.000814475
0.0340272
0.0286425
0.0281222
0.0571946
0.081086
0.0847964
0.0432127
0.0262896
0.0191176
0.0165837
-0.00631221
0.0105204
0.0374661
0.0298869
0.0279412
0.0421493
0.0268326
-0.0137783
-0.0306335
-0.0501583
-0.0500226
-0.00687776
-0.00730765
-0.018009
0.00230774
-0.0137556
-0.039276
-0.00873298
0.0175113
0.0191177
0.0159276
0.0127828
0.00495478
-0.00769228
0.034819
0.0424435
0.0300453
0.0375339
0.0500679
0.107986
0.146199
0.0545701
-0.0320362
-0.0939367
-0.11086
-0.0675566
-0.0940045
-0.18543
-0.2619
-0.24862
-0.200339
-0.217195
-0.243982
-0.250611
-0.247195
-0.243846
-0.265498
-0.247217
-0.26871
-0.309932
-0.310928
-0.351878
-0.367692
-0.308167
-0.228258
-0.012828
0.332873
0.903824
1.7048
2.59622
2.98294
2.75491
2.18204
1.29937
0.0917421
-0.740905
-1.00864
-0.881561
-0.719661
-0.657738
-0.635769
-0.589005
-0.527421
-0.48095
-0.509638
-0.533462
-0.512376
-0.491538
-0.510814
-0.515226
-0.489932
-0.454887
-0.444864
-0.434615
-0.449412
-0.449457
-0.424434
-0.434208
-0.463778
-0.468439
-0.4381
-0.412602
-0.392036
-0.37138
-0.345724
-0.329955
-0.28914
-0.243213
-0.202353
-0.206561
-0.205566
-0.174457
-0.14319
-0.0566063
-0.0249095
0.0114254
0.0872851
0.157127
0.190181
0.250249
0.334231
0.3819
0.36905
0.358122
0.385272
0.407353
0.404231
0.388462
0.412715
0.401063
0.383869
0.356425
0.368959
0.351244
0.318281
0.275407
0.242511
0.21957
0.196878
0.179367
0.161878
0.159412
0.126833
0.0940045
0.0609502
0.0680769
0.065362
0.0575566
0.0349095
-0.00271494
-0.0351357
-0.0524887
-0.0503394
-0.00868779
0.00271494
-0.00597285
-0.0344118
-0.0330543
-0.0272624
-0.0118326
-0.0265385
0.0137557
0.0390272
0.0190498
0.00871043
0.0381901
0.0724887
0.0914932
0.0702941
0.0886426
0.0916968
0.0644796
0.0568778
0.0489367
0.0411991
-0.00122171
-0.0376697
-0.0126697
0.0447964
0.0458824
0.0459955
-0.0021041
-0.00106337
0.00251126
0.00714929
0.00626694
0.0116289
0.0311086
0.0213801
-0.0175566
-0.0311765
0.00556558
0.0327149
0.0051131
0.0126244
0.06
0.0724434
0.0700226
0.0526697
0.0253846
0.0482579
0.0913348
0.0795927
0.0179412
0.00135746
0.00457015
-0.0323756
-0.0891855
-0.14095
-0.157647
-0.174434
-0.196335
-0.198303
-0.235181
-0.256742
-0.262986
-0.249231
-0.240339
-0.266471
-0.277624
-0.268824
-0.259932
-0.300792
-0.371516
-0.366923
-0.262195
-0.15233
0.0328733
0.413462
1.06932
1.31052
2.68717
2.8243
2.43149
1.74855
0.660543
-0.382421
-0.915136
-0.962738
-0.785294
-0.693009
-0.64586
-0.60405
-0.552534
-0.506063
-0.499661
-0.503303
-0.51233
-0.531516
-0.540679
-0.53991
-0.544208
-0.51862
-0.468145
-0.427624
-0.422172
-0.446765
-0.436312
-0.460611
-0.449774
-0.434072
-0.408484
-0.387873
-0.362149
-0.366222
-0.360294
-0.369344
-0.348484
-0.312783
-0.306991
-0.261041
-0.210045
-0.21905
-0.187805
-0.111448
-0.0652489
-0.0192082
0.0264253
0.0910407
0.168688
0.188145
0.238303
0.270362
0.317692
0.322466
0.326063
0.324819
0.35267
0.382579
0.387398
0.391176
0.384525
0.347466
0.320091
0.307376
0.319548
0.316606
0.243575
0.195475
0.182376
0.174186
0.115837
0.0726471
0.0795927
0.101403
0.103416
0.0657014
0.0580543
0.0654977
0.0328507
-0.00513575
-0.0231674
-0.0259955
-0.0338914
-0.0371493
-0.00554299
0.0310181
0.0274661
0.0085294
-0.0357014
-0.0200226
0.0354751
0.0756787
0.0756335
0.0253167
-0.0200679
-0.00567874
0.0033484
0.0522172
0.0958145
0.0989366
0.0767647
0.0494344
0.0468326
0.0588235
0.0555882
0.0577375
0.0554299
0.038914
0.014095
0.00739818
0.0019457
-0.0322624
-0.0357918
0.00391404
0.0604751
0.0773982
0.0147512
-0.0352715
-0.0304072
-0.0146606
-0.00839365
0.0331222
0.104887
0.0920588
0.0695249
0.0321946
0.0800905
0.0880769
0.0559276
0.0486425
0.0414706
0.0595475
0.0478959
0.00135748
-0.0200226
-0.00633486
-0.0228054
-0.0893213
-0.146041
-0.157738
-0.169389
-0.196222
-0.223167
-0.230023
-0.221833
-0.238665
-0.250679
-0.217624
-0.234434
-0.256222
-0.282851
-0.244118
-0.275362
-0.321584
-0.297534
-0.233258
-0.108688
0.136154
0.551312
1.27688
2.23269
2.89391
2.83038
2.28704
1.43876
0.260724
-0.677353
-1.10525
-1.02805
-0.800928
-0.713891
-0.681991
-0.620249
-0.54862
-0.522081
-0.495656
-0.464321
-0.423122
-0.427059
-0.441199
-0.415407
-0.409864
-0.409457
-0.403982
-0.438416
-0.447919
-0.447421
-0.46681
-0.461244
-0.41086
-0.375453
-0.374955
-0.369299
-0.348575
-0.33276
-0.316855
-0.325837
-0.294774
-0.278688
-0.27276
-0.246878
-0.200837
-0.144457
-0.117896
-0.121652
-0.075905
0.0193439
0.0633937
0.0955882
0.184729
0.249796
0.282149
0.289796
0.299977
0.346176
0.366199
0.360113
0.375136
0.384502
0.352896
0.320814
0.318575
0.30595
0.303054
0.315113
0.25224
0.219344
0.211154
0.187828
0.169502
0.146222
0.138009
0.125023
0.0874887
0.069819
0.0319683
-0.0209955
-0.0487331
-0.0364932
-0.014457
-0.0375113
-0.095543
-0.128575
-0.101674
-0.0949774
-0.103462
-0.0919457
-0.0705656
-0.0495928
-0.0439367
-0.0384389
0.0268326
0.0719231
0.0766968
0.0610407
0.070181
0.0992081
0.103054
0.106787
0.105136
0.113167
0.0808598
0.0633937
0.0856109
0.0975566
0.0894118
0.0667195
0.0497511
0.0438914
0.0349321
0.00920815
-0.0122625
-0.010543
0.0209954
0.0302036
-0.009276
0.00104074
-0.0176923
-0.0181901
-0.00843895
0.00730766
0.0236651
0.0153846
0.00753392
0.0100679
0.0428733
0.0559502
0.00902712
-0.0127376
0.0155204
0.0191855
0.0129638
-0.00330315
-0.0145022
-0.0156787
-0.00196831
-0.043371
-0.0798869
-0.066448
-0.0629186
-0.109186
-0.150452
-0.1919
-0.218552
-0.245317
-0.237127
-0.228824
-0.245452
-0.271833
-0.283213
-0.259593
-0.240837
-0.276946
-0.317896
-0.298801
-0.234661
-0.110204
0.164615
0.624593
1.34493
2.25088
2.83231
2.74394
2.18557
1.97717
0.0289819
-0.824005
-1.06704
-0.93509
-0.743167
-0.646448
-0.619819
-0.578326
-0.531991
-0.490701
-0.454276
-0.433032
-0.4269
-0.441018
-0.430339
-0.419887
-0.424208
-0.428394
-0.452647
-0.432104
-0.411561
-0.421131
-0.420792
-0.405317
-0.389661
-0.374072
-0.383575
-0.362986
-0.357398
-0.356787
-0.336267
-0.320882
-0.305407
-0.279706
-0.263937
-0.2381
-0.196991
-0.180566
-0.13448
-0.0435747
0.0106109
0.0180996
0.0427828
0.0933711
0.150724
0.187851
0.226855
0.294344
0.332285
0.349977
0.399706
0.369321
0.338054
0.341199
0.339005
0.351561
0.368914
0.326109
0.303145
0.275226
0.242262
0.214027
0.170747
0.132376
0.154027
0.160701
0.112534
0.0644796
0.0314253
0.0183484
-0.0147285
-0.0477828
-0.0158371
-0.00907241
-0.0174434
-0.120814
-0.119231
-0.102466
-0.115814
-0.11457
-0.123439
-0.107217
-0.0811538
-0.0904525
-0.104864
-0.0993892
-0.064276
-0.0245249
0.0248416
0.0690272
0.0926923
0.0811991
0.0544797
0.0274887
0.0400905
0.0423529
0.034457
0.0465611
0.0635068
0.0752263
0.05681
0.0287783
0.0416064
0.050724
0.00687785
-0.0286425
-0.0497964
-0.0382353
-0.00701357
0.0267647
0.0446833
0.0190498
0.0147511
0.0244796
0.0298643
0.036267
0.0181448
0.0401584
0.0575113
0.060181
0.0380995
0.0112443
-0.000475124
0.0428959
0.0612896
0.0897285
0.0132579
-0.0281448
-0.0295475
-0.0261765
-0.0478054
-0.0644117
-0.101041
-0.162715
-0.194321
-0.160837
-0.167285
-0.248982
-0.285792
-0.267647
-0.244434
-0.22629
-0.238303
-0.270294
-0.267014
-0.278665
-0.335249
-0.341584
-0.222805
-0.178756
0.185747
0.570588
1.22059
2.13086
2.85131
2.9021
2.49817
1.69946
0.480905
-0.542557
-0.975815
-0.953778
-0.776946
-0.660385
-0.588846
-0.54233
-0.525905
-0.519502
-0.493235
-0.481968
-0.471018
-0.455362
-0.434638
-0.428891
-0.428167
-0.41733
-0.431222
-0.435136
-0.439231
-0.438529
-0.432783
-0.402036
-0.38638
-0.390792
-0.380045
-0.349231
-0.333824
-0.378258
-0.367692
-0.28724
-0.261697
-0.266154
-0.270566
-0.224728
-0.183959
-0.153665
-0.119118
-0.0806787
-0.0390045
-0.0304298
0.049276
0.0814706
0.128756
0.162941
0.220769
0.28448
0.347647
0.372489
0.376991
0.390792
0.444186
0.427217
0.364932
0.357443
0.36991
0.357059
0.298914
0.280588
0.267308
0.249186
0.231154
0.173009
0.129706
0.101538
0.0883711
0.0551584
0.0470815
0.0440724
0.0112444
-0.0116742
-0.0247737
-0.0381674
-0.0466742
-0.0600905
-0.0781448
-0.0761086
-0.0840724
-0.102511
-0.106357
-0.0802715
-0.0592307
-0.0433936
-0.0478054
-0.0375113
-0.0376018
-0.0431448
-0.043914
-4.52399e-05
0.0432353
0.0560633
0.0387557
0.0713122
0.118756
0.126109
0.0881448
0.0850905
0.0920814
0.0738914
0.060362
0.0423077
0.0296606
0.00880089
-0.0152715
-0.0412896
-0.0131674
-0.00662892
-0.00463796
0.00572403
0.052534
0.0738688
0.0406561
0.0155656
0.0207919
0.0420362
0.0438462
0.0409955
0.0683032
0.0857693
0.0683937
0.0413349
0.0794118
0.107602
0.0609276
0.0091403
-0.0276923
-0.0344344
-0.0909955
-0.137692
-0.149502
-0.141312
-0.167896
-0.204615
-0.221425
-0.178054
-0.209615
-0.236267
-0.253077
-0.289796
-0.276493
-0.268009
-0.289253
-0.300611
-0.296968
-0.328281
-0.324389
-0.235475
-0.0663575
0.213009
0.642602
1.37729
2.27704
2.85733
2.82792
2.38364
1.55453
0.270634
-0.707986
-1.08124
-0.989299
-0.812421
-0.705634
-0.638801
-0.592036
-0.530543
-0.509072
-0.482557
-0.456154
-0.445045
-0.45405
-0.468054
-0.461991
-0.42595
-0.415136
-0.444457
-0.428733
-0.408032
-0.427443
-0.456719
-0.470905
-0.430226
-0.384525
-0.338824
-0.338122
-0.367308
-0.401538
-0.400928
-0.370272
-0.339661
-0.289095
-0.273575
-0.257896
-0.232036
-0.191244
-0.160928
-0.136787
-0.0694796
0.00984165
0.0751584
0.112195
0.16371
0.201923
0.247873
0.289095
0.30086
0.343959
0.373552
0.357443
0.345837
0.419027
0.436991
0.394661
0.367195
0.359615
0.33681
0.33371
0.300701
0.25267
0.209502
0.196312
0.188439
0.170656
0.152692
0.104525
0.0564254
0.0484616
0.0455883
0.0576244
0.0395702
0.0115385
-0.0315384
-0.0495927
-0.0627149
-0.0757918
-0.0291403
-0.0126697
-0.031448
-0.0604299
-0.0447285
-0.0242308
-0.0290271
-0.0790045
-0.0442081
0.00533939
-0.020543
-0.0416742
-0.0132127
0.0500679
0.0431448
-0.00927601
-0.0419683
-0.024819
0.0221267
0.013914
-0.00434388
-0.00778279
0.0238009
0.0058371
-0.0163348
-0.0272851
-0.00113121
0.00355203
-0.0175792
-0.0259728
0.015543
0.0351584
0.0560633
0.0612217
0.0371946
0.00658371
0.0163349
0.0418552
0.0780996
0.0698869
0.0619457
0.054276
0.0518552
0.0596833
0.0626923
0.0657692
0.0487783
0.0118552
-0.00497737
-0.0167421
-0.0334615
-0.0752489
-0.0869005
-0.098371
-0.139842
-0.166493
-0.173394
-0.205272
-0.222014
-0.238552
-0.275045
-0.281765
-0.268643
-0.280385
-0.281968
-0.293484
-0.289955
-0.301448
-0.322805
-0.294118
-0.195158
0.0739819
0.478145
1.13274
2.01771
2.7881
2.94889
2.58986
1.97104
0.842466
-0.330928
-0.614299
-0.977511
-0.820634
-0.698778
-0.666968
-0.624842
-0.572805
-0.551131
-0.544502
-0.51776
-0.481063
-0.479367
-0.478054
-0.457127
-0.451312
-0.480498
-0.479412
-0.468303
-0.442398
-0.446629
-0.450882
-0.465
-0.44405
-0.393213
-0.377443
-0.381493
-0.410611
-0.354887
-0.334072
-0.31819
-0.326991
-0.305656
-0.264299
-0.248167
-0.246991
-0.190588
-0.139457
-0.11414
-0.0943892
-0.0158371
0.0820362
0.134276
0.137624
0.15457
0.21776
0.283643
0.323937
0.349525
0.378507
0.398416
0.412466
0.415724
0.408801
0.406742
0.419367
0.38681
0.344389
0.32181
0.298937
0.290769
0.267873
0.260068
0.247443
0.194751
0.171765
0.183643
0.190837
0.1381
0.0854525
0.0728959
0.0754072
0.0427828
0.0149774
0.0022172
-0.000497743
0.00671946
-0.0211086
-0.0341629
-0.0124434
-0.0108597
-0.0243213
-0.0379864
-0.0569683
-0.076086
-0.0657013
-0.0257014
0.00927602
0.0239593
0.0232353
0.0121493
0.0307919
0.0290045
-0.00294116
-0.0101357
0.00251132
0.04
0.0574887
0.0397964
0.0518552
0.0290045
0.0166063
0.0355656
0.0114027
0.0152262
0.00821269
-0.0202941
0.0172172
0.0335294
0.0421945
0.0506787
0.0538009
0.0555882
0.0559502
0.0371041
0.0287783
0.0256109
0.0578733
0.0905656
0.0684842
0.0315611
0.0147511
0.00798643
0.0561312
0.0893891
0.0678733
0.051267
-0.0204072
-0.0470136
-0.0235747
-0.0449095
-0.0914027
-0.133167
-0.155045
-0.12181
-0.128348
-0.199842
-0.231403
-0.218281
-0.255045
-0.286765
-0.313439
-0.33
-0.356425
-0.337738
-0.334095
-0.36552
-0.311697
-0.182647
-0.0234389
0.290973
0.415996
1.64136
2.53192
2.90762
2.62844
1.98457
0.981131
-0.166923
-0.864796
-1.07274
-0.895724
-0.71862
-0.641425
-0.624276
-0.572149
-0.54
-0.543529
-0.507308
-0.471018
-0.424751
-0.453552
-0.462443
-0.486267
-0.465068
-0.41905
-0.413145
-0.467262
-0.451244
-0.430294
-0.454299
-0.473235
-0.447059
-0.405973
-0.404887
-0.408914
-0.387986
-0.391833
-0.375724
-0.339796
-0.318937
-0.323122
-0.31733
-0.256312
-0.235181
-0.164208
-0.103643
-0.103733
-0.0699548
0.00169685
0.0598416
0.0737104
0.149842
0.18638
0.220317
0.248258
0.271991
0.280407
0.315271
0.354638
0.368235
0.371448
0.344434
0.337262
0.334706
0.301991
0.299186
0.236176
0.143371
0.110588
0.127738
0.139819
0.151923
0.103982
0.0861086
0.093258
0.0902942
0.0372851
-0.00554294
-0.03319
-0.0609954
-0.0590497
-0.032285
-0.0104751
-0.0334841
-0.0614479
-0.0345248
-0.0478506
-0.0616968
-0.0607466
-0.0847511
-0.0538687
0.00181002
0.0121268
0.00712676
0.00712676
0.0119684
0.0211992
0.0600001
0.08862
0.0969231
0.0997286
0.062172
0.0493213
0.0612896
0.083258
0.0951584
0.0919457
0.0888914
0.0763801
0.0495475
-0.00588232
0.0193439
0.040362
0.0354978
0.052353
0.0679864
0.0560633
0.019638
0.00300901
0.0383484
0.0579185
0.0434389
0.0198416
0.016629
0.0135068
0.0156788
0.128009
0.135407
0.0931448
0.0711539
0.0744344
0.0675566
0.0407014
0.0188236
0.00194573
0.000158407
0.0135068
-0.0132805
-0.0550226
-0.12181
-0.153756
-0.180747
-0.197738
-0.229638
-0.221538
-0.218529
-0.265453
-0.287466
-0.264412
-0.231154
-0.222851
-0.234751
-0.301652
-0.348167
-0.334525
-0.235588
-0.0514253
0.232828
0.717262
1.49208
2.42719
3.05253
2.96342
2.40437
1.51548
0.251787
-0.741538
-1.03991
-0.943371
-0.756561
-0.68957
-0.647692
-0.591018
-0.529638
-0.493394
-0.487285
-0.481244
-0.500453
-0.499842
-0.484367
-0.463982
-0.463462
-0.44776
-0.45733
-0.476991
-0.456652
-0.446177
-0.45052
-0.454864
-0.439548
-0.419434
-0.393846
-0.407986
-0.397036
-0.371131
-0.365158
-0.324027
-0.278167
-0.257398
-0.241425
-0.235611
-0.234751
-0.193552
-0.142443
-0.10681
-0.0772851
-0.0143439
0.0461765
0.0932126
0.116538
0.183462
0.226584
0.266968
0.276719
0.297172
0.319231
0.318778
0.342534
0.355633
0.36862
0.376403
0.358937
0.306471
0.289005
0.286606
0.279231
0.201787
0.194208
0.196538
0.168801
0.131041
0.0981222
0.08
0.0719231
0.0690045
0.0560407
0.0530543
0.0356108
-0.00190047
-0.0246607
-0.0376018
-0.0307466
-0.0439593
-0.0622398
-0.0405883
-0.0140046
-0.0375792
-0.0612896
-0.0550453
-0.0239593
-0.0133258
-0.0231222
0.00171944
0.0212896
0.0205203
0.034457
0.0381674
0.0515837
0.0495701
0.0372398
0.0448416
0.0823303
0.084638
0.056629
0.0384389
0.0402715
0.0473756
0.0252941
0.0197059
0.011448
0.0168099
0.00147057
-0.0160634
0.0310633
0.0508145
0.0467647
-0.00794117
0.00289591
0.0475565
0.017828
-0.0161765
0.0050226
0.0165158
0.0684163
0.0905882
0.0829411
0.0903846
0.0780542
0.020837
0.0136425
0.0464932
0.0246153
-0.00708149
0.00119905
-0.000656135
0.00253394
-0.0342986
-0.131244
-0.178122
-0.134955
-0.12181
-0.22862
-0.26543
-0.26733
-0.284208
-0.331109
-0.343054
-0.299729
-0.296131
-0.342443
-0.33371
-0.314909
-0.336131
-0.307262
-0.20819
0.0360181
0.390453
0.935249
1.74536
2.59566
2.91613
2.6571
2.12337
1.14977
-0.0938009
-0.422127
-0.955181
-0.778281
-0.631448
-0.614593
-0.592647
-0.590656
-0.563914
-0.547624
-0.576584
-0.575566
-0.554593
-0.543937
-0.563348
-0.562828
-0.517443
-0.456991
-0.421425
-0.450905
-0.485407
-0.474819
-0.464253
-0.468733
-0.443213
-0.427557
-0.406787
-0.356063
-0.345271
-0.354412
-0.358597
-0.357783
-0.321968
-0.276357
-0.29086
-0.295317
-0.259502
-0.193348
-0.137127
-0.0911538
-0.0459276
0.0290046
0.0812218
0.0951584
0.15991
0.242036
0.279729
0.305
0.329276
0.333869
0.332443
0.347602
0.392466
0.401335
0.359661
0.33267
0.310339
0.297738
0.304864
0.29181
0.258937
0.211176
0.198394
0.190475
0.152647
0.114932
0.142059
0.163914
0.140882
0.107873
0.110113
0.107511
0.0947964
0.051991
0.00904978
0.00588235
0.0126923
-0.0253846
-0.0635294
-0.0418326
-0.020181
-0.0485294
-0.0219457
0.0143891
-0.0047964
-0.0193213
0.0012217
0.0117421
0.0365385
0.0409276
0.0450905
0.0741176
0.0876018
0.0658145
0.0488688
0.0466063
0.0489366
0.0363122
0.0386425
0.0556561
0.0578507
0.060543
0.0393212
0.0246832
0.0226244
0.0443439
0.0499773
0.0321719
0.0332805
0.0619909
0.0763348
0.0402714
-0.00219466
-0.00199099
0.0290271
0.030724
0.0175792
0.0099095
0.0421719
0.0845475
0.117149
0.114819
0.112579
0.100452
0.103484
0.116425
0.114434
0.057647
-0.00395934
-0.0153394
-0.0218779
-0.0486878
-0.0605657
-0.0573756
-0.0791629
-0.150928
-0.20276
-0.209525
-0.221154
-0.252873
-0.264638
-0.246425
-0.223077
-0.204661
-0.206244
-0.212941
-0.244593
-0.311018
-0.337172
-0.258054
-0.0736425
-0.00900453
0.606041
1.33643
2.27695
2.85774
2.724
2.16554
1.32229
0.154412
-0.748281
-1.11115
-1.0391
-0.806855
-0.704615
-0.637624
-0.570792
-0.509072
-0.472421
-0.46086
-0.464502
-0.478281
-0.48224
-0.506357
-0.510588
-0.485068
-0.474638
-0.443891
-0.442828
-0.431787
-0.43095
-0.440226
-0.419434
-0.388394
-0.367262
-0.371154
-0.370181
-0.359163
-0.363303
-0.35776
-0.33724
-0.336561
-0.315588
-0.29448
-0.273235
-0.242172
-0.21095
-0.189457
-0.133054
-0.0769231
-0.0261991
-0.0113575
0.0619231
0.10733
0.178688
0.241425
0.273484
0.262489
0.285181
0.333213
0.325769
0.320588
0.330634
0.339683
0.318145
0.29638
0.28457
0.262172
0.24448
0.241652
0.233914
0.186357
0.168665
0.150633
0.147511
0.144548
0.126584
0.0434389
0.0602489
0.0623982
0.0297737
-0.0127602
-0.0303846
-0.0330091
-0.055724
-0.0535521
-0.0663349
-0.0641855
-0.0422398
-0.0554751
-0.0488462
-0.0223077
0.00400451
0.000271469
-0.00864257
0.0121719
0.0425339
0.0474434
0.0670814
0.0965611
0.095905
0.0948642
0.0634842
0.0818326
0.124977
0.132964
0.115814
0.0983937
0.100679
0.0927376
0.07
0.0630769
0.0464706
0.0277376
0.0224434
0.0463575
0.0478507
0.0489592
0.0475565
-0.00260183
-0.0378281
-0.00692309
0.0125113
0.00730766
0.00823526
0.0146832
0.0164706
0.0136878
0.0113574
0.034276
0.0623755
0.0555882
0.0436878
0.0616968
0.074819
0.0880769
0.0665385
0.0201131
-0.031086
-0.0523529
-0.0437104
-0.0201358
-0.041629
-0.113032
-0.179502
-0.221018
-0.197534
-0.204027
-0.210633
-0.182262
-0.158914
-0.175588
-0.272443
-0.279231
-0.275679
-0.256968
-0.308281
-0.349638
-0.32095
-0.23681
-0.14224
0.0576018
0.432579
1.08285
1.95828
2.74419
2.8955
2.4721
1.64873
0.47552
-0.502534
-0.995634
-1.03873
-0.836833
-0.72
-0.673303
-0.646652
-0.520181
-0.483982
-0.462986
-0.462127
-0.491199
-0.495362
-0.459548
-0.433914
-0.433416
-0.427896
-0.397195
-0.391652
-0.431063
-0.435498
-0.420068
-0.399593
-0.399095
-0.388529
-0.358032
-0.352489
-0.337104
-0.34672
-0.366222
-0.345701
-0.329887
-0.303959
-0.302986
-0.256923
-0.215905
-0.184706
-0.13319
-0.0767648
-0.050724
-0.0504073
0.0235972
0.115701
0.194615
0.249751
0.272421
0.284706
0.305113
0.299389
0.323982
0.362534
0.372534
0.372149
0.355747
0.328846
0.34181
0.354615
0.307014
0.304118
0.291154
0.242964
0.19457
0.15629
0.148167
0.130045
0.116742
0.108416
0.0800227
0.0416969
0.0233937
-0.00475109
-0.0327149
-0.020724
-0.0038235
-0.0518552
-0.084819
-0.102738
-0.115905
-0.134299
-0.117896
-0.0866289
-0.0704072
-0.0642308
-0.0632127
-0.0175566
0.0128054
0.00782807
0.00273758
0.0373982
0.0369005
0.046267
0.0704751
0.109434
0.112624
0.0554525
0.0380543
0.0706561
0.107919
0.114932
0.0668778
0.0240724
0.0117873
-0.00441176
0.00604073
0.0243439
0.00667423
0.00273758
-0.00536196
-0.000384599
0.000972867
0.0171946
0.0141176
-0.00108595
-0.00128958
0.0144797
0.0157693
-0.00260176
0.0193892
0.0521268
0.0750227
0.0979186
0.0707919
0.0388914
0.0220815
0.0402489
0.0636426
0.052353
-0.00880088
-0.0598642
-0.0559955
-0.0523077
-0.0586425
-0.11509
-0.141538
-0.163032
-0.17457
-0.186131
-0.167738
-0.169231
-0.175792
-0.197489
-0.259299
-0.261222
-0.248054
-0.274887
-0.276606
-0.29819
-0.339457
-0.315339
-0.210882
-0.0211539
0.268688
0.688846
1.36416
2.21993
2.81122
2.90769
2.20419
1.33572
0.167308
-0.711018
-1.04923
-0.967376
-0.755453
-0.663597
-0.641901
-0.590158
-0.508597
-0.452443
-0.446335
-0.450158
-0.43914
-0.428529
-0.438145
-0.437805
-0.392308
-0.376538
-0.355747
-0.370136
-0.374434
-0.38371
-0.3931
-0.38767
-0.377149
-0.37129
-0.370634
-0.365204
-0.329774
-0.324344
-0.328959
-0.318507
-0.297986
-0.262308
-0.246538
-0.235656
-0.234389
-0.197941
-0.146606
-0.0958597
-0.0662217
-0.00830318
0.0471946
0.0789593
0.142081
0.204118
0.247421
0.258688
0.280023
0.2969
0.346471
0.381199
0.364864
0.32776
0.340566
0.363394
0.350973
0.313213
0.280362
0.282557
0.259729
0.221742
0.193778
0.170815
0.127647
0.114389
0.116177
0.0880091
0.0348643
-0.00316738
-0.00113119
0.0210408
0.0283032
-0.0495927
-0.0725565
-0.0306335
-0.0536425
-0.121584
-0.14457
-0.132964
-0.111629
-0.11043
-0.109367
-0.068371
-0.0478054
-0.0376697
-0.0178733
0.0168326
0.0314706
0.0210407
0.025181
0.0338009
0.0771267
0.115113
0.117964
0.115566
0.132919
0.140091
0.0968326
0.0582353
0.0347964
-0.00309951
-0.0301131
-0.0257239
0.0358145
0.0256335
-0.0156561
-0.00909507
0.0230769
0.0519683
0.04681
0.0514254
0.0570815
0.0414706
0.0163348
0.00717196
0.00857468
0.00522622
0.0521946
0.0895701
0.0923077
0.0601131
0.0428507
0.080543
0.0883711
0.0863801
0.0295249
-0.0470135
-0.0634615
-0.0547058
-0.115928
-0.142398
-0.148982
-0.140679
-0.152398
-0.214095
-0.220814
-0.207534
-0.229321
-0.246018
-0.257805
-0.25957
-0.246312
-0.267941
-0.284457
-0.311063
-0.352602
-0.364027
-0.345294
-0.221448
0.057647
0.437104
0.981946
1.83213
2.67744
2.92301
2.58894
1.9202
0.836516
-0.347217
-0.93095
-1.00937
-0.812602
-0.650634
-0.643824
-0.63724
-0.565747
-0.514276
-0.508145
-0.53724
-0.536312
-0.50543
-0.494683
-0.494095
-0.458665
-0.433439
-0.423167
-0.427715
-0.447308
-0.447104
-0.42681
-0.431425
-0.425928
-0.415226
-0.429842
-0.41957
-0.413824
-0.4031
-0.402851
-0.37276
-0.362534
-0.327285
-0.291968
-0.281584
-0.241131
-0.170475
-0.114593
-0.10362
-0.0977828
-0.0623756
0.0319005
0.139253
0.178439
0.183914
0.201516
0.258778
0.277873
0.310023
0.382534
0.420023
0.414593
0.404005
0.403032
0.38586
0.333416
0.286109
0.28362
0.245815
0.207805
0.229706
0.256765
0.243914
0.241154
0.183462
0.160633
0.157624
0.124751
0.0918326
0.0737104
0.0658823
0.0432579
0.035543
0.0474887
0.0693665
0.0515611
0.00366513
-0.0244118
-0.0477602
-0.0514028
-0.0752489
-0.0940724
-0.0430769
-0.027172
-0.0115611
-0.00115386
0.00398192
0.0138914
0.0136878
0.0333032
0.0476471
0.0716064
0.0602036
0.0634615
0.0565385
0.0643891
0.0969683
0.0891403
0.0609955
0.0577828
0.0795249
0.0717873
0.0202715
-0.00450225
-0.0166742
4.52697e-05
0.0305883
0.0374887
0.0279864
0.0454525
0.0832353
0.0958145
0.0658145
0.0504072
-0.0191403
-0.0278281
0.0287557
0.0654978
0.0523756
0.0845702
0.0969457
0.0893439
0.0717195
0.0592534
0.0619684
0.0697964
0.067896
0.0411765
-0.000497699
-0.0221719
-0.033914
-0.0956335
-0.11724
-0.123891
-0.165498
-0.177104
-0.178937
-0.245724
-0.267489
-0.234253
-0.226041
-0.247805
-0.234593
-0.251312
-0.268009
-0.244706
-0.271199
-0.312398
-0.313281
-0.249005
-0.139638
0.0999095
0.529842
1.24029
2.10609
2.78204
2.86317
2.45959
1.80622
0.633077
-0.504751
-0.997443
-0.980181
-0.927919
-0.685792
-0.618846
-0.587104
-0.560543
-0.539299
-0.498462
-0.457692
-0.471652
-0.50052
-0.514593
-0.518688
-0.497986
-0.477398
-0.511787
-0.496267
-0.450792
-0.46543
-0.470023
-0.44457
-0.399231
-0.398688
-0.427828
-0.396878
-0.355973
-0.350158
-0.359434
-0.328552
-0.32276
-0.342059
-0.346154
-0.285249
-0.229163
-0.177964
-0.186629
-0.165317
-0.109344
-0.0687783
0.000882357
0.0689819
0.141403
0.188122
0.205996
0.237828
0.291222
0.312262
0.312873
0.343801
0.357738
0.372376
0.371041
0.344027
0.336833
0.33957
0.287217
0.264615
0.266787
0.219027
0.186425
0.173937
0.186335
0.193688
0.165769
0.11276
0.0848643
0.127081
0.109276
0.0767195
0.0441177
0.0513575
0.0485521
0.0207693
-0.00221716
-0.0252036
-0.0380543
-0.0359728
-0.0392081
-0.0427149
-0.0463122
-0.0502262
-0.0442307
-0.0482579
-0.0375565
-0.00221716
-0.00214928
-0.00260177
0.00665163
0.0108824
0.0349548
0.0485973
0.0671946
0.0952263
0.103077
0.0958145
0.0982353
0.0804072
0.0523982
0.034457
0.026991
0.0357014
0.031448
0.00538462
-0.00667416
-0.00545244
0.0112444
0.00606342
0.00296389
0.00954761
0.0110634
0.00542995
-0.0150225
0.00484169
0.020905
0.00737563
-0.00599541
0.0557467
0.102647
0.0748417
0.0323304
0.035
0.0626697
0.0602942
0.0427602
0.0403394
0.0281901
0.0110181
-0.0162217
-0.0133032
-0.0354299
-0.0725339
-0.059457
-0.0960407
-0.147602
-0.189208
-0.230769
-0.242308
-0.248891
-0.290588
-0.297285
-0.299072
-0.295973
-0.28267
-0.308959
-0.325226
-0.351516
-0.337805
-0.263937
-0.154729
0.0596606
0.429367
0.56948
1.83495
2.68061
2.92158
2.61285
2.02428
0.990837
-0.182353
-0.820204
-0.978122
-0.811086
-0.684005
-0.657081
-0.630339
-0.588665
-0.537262
-0.506063
-0.509864
-0.508937
-0.518213
-0.517511
-0.51681
-0.521176
-0.505611
-0.470249
-0.455113
-0.459842
-0.479502
-0.454253
-0.424186
-0.428982
-0.44362
-0.393167
-0.382511
-0.411968
-0.421584
-0.391063
-0.35043
-0.339729
-0.329072
-0.328484
-0.327783
-0.307149
-0.236538
-0.175679
-0.124774
-0.0788914
-0.0378507
0.00812218
0.0839593
0.109231
0.218462
0.240995
0.285656
0.321222
0.323937
0.351878
0.39224
0.391403
0.370747
0.354027
0.364027
0.348733
0.302353
0.280362
0.293281
0.285769
0.288032
0.270045
0.251923
0.228891
0.21086
0.187873
0.164887
0.161878
0.163824
0.151154
0.128688
0.106063
0.0533937
0.0256561
0.0228507
0.0550453
0.0521041
0.0139593
-0.0143439
0.0173303
0.0289819
0.0256561
0.0171041
0.00332581
-0.0252489
-0.0291176
-0.0482805
-0.0276923
0.00757918
0.0226471
0.0375113
0.0671493
0.0915611
0.0955204
0.0442081
0.0128281
0.0611765
0.114231
0.1019
0.0844118
0.0620588
0.0601358
0.0590498
0.0395023
0.0356561
0.0576923
0.028552
0.0205656
0.0612443
0.0694343
0.0231448
-0.0235521
-0.00321269
0.0115837
-0.00778283
-0.0065385
0.0198642
0.0314706
0.0334389
0.0506787
0.0480543
0.0556787
0.0634841
0.0512896
0.0590045
0.0768325
0.0598869
0.0479638
0.0661538
0.0745249
0.0379411
0.0212443
0.0246154
-0.00190047
-0.0435747
-0.0952941
-0.166833
-0.168439
-0.150272
-0.182285
-0.214253
-0.236131
-0.233054
-0.225
-0.246946
-0.238914
-0.225747
-0.247149
-0.258326
-0.254321
-0.280068
-0.260566
-0.205747
-0.0655204
0.184842
0.590724
1.23665
2.13781
2.77416
2.7107
2.15262
1.2998
0.151991
-0.705769
-1.08857
-1.05145
-0.829412
-0.702602
-0.675996
-0.594344
-0.552805
-0.49129
-0.454864
-0.473575
-0.487557
-0.47172
-0.451018
-0.455362
-0.454774
-0.474186
-0.468665
-0.458213
-0.487715
-0.467398
-0.422149
-0.421923
-0.406652
-0.36129
-0.335701
-0.345045
-0.364163
-0.3631
-0.331946
-0.315815
-0.344955
-0.314412
-0.298733
-0.282964
-0.252172
-0.216335
-0.17543
-0.16448
-0.118077
-0.0163801
0.0499321
0.0804072
0.114932
0.162986
0.220611
0.261833
0.294593
0.296923
0.316222
0.339072
0.32224
0.29009
0.294796
0.284367
0.272986
0.236176
0.194186
0.216629
0.233552
0.195317
0.177059
0.168756
0.160498
0.14233
0.104072
0.0958823
0.0978959
0.0399774
0.00205881
-0.00583712
0.0161312
-0.00694574
-0.06
-0.0479638
-0.0358824
-0.0588236
-0.0719005
-0.0651358
-0.0533032
-0.0463801
-0.0147286
-0.0183485
-0.0072625
0.0184163
0.0389819
0.0695249
0.089819
0.109864
0.129615
0.144095
0.143371
0.147421
0.136357
0.109977
0.118371
0.12638
0.114163
0.0965385
0.0688235
0.0512896
0.0443213
0.0384389
0.0544344
0.0583936
0.0665158
0.0525792
0.0183937
0.0217874
0.0263802
-0.0041402
-0.0184388
-0.00429861
-0.00972849
-0.0140045
0.00233033
-0.00124434
0.0105882
0.0127149
0.0102715
0.0180543
0.0507692
0.0685294
0.0713574
0.0543665
0.0625566
0.0608371
0.0590498
0.0474434
0.0109276
-0.00581448
-0.0225566
-0.0241403
-0.00572399
-0.0323077
-0.123688
-0.170045
-0.191516
-0.223054
-0.249751
-0.256493
-0.213213
-0.175068
-0.211855
-0.253665
-0.24043
-0.217081
-0.218529
-0.214887
-0.286199
-0.32724
-0.237692
-0.102783
0.0772172
0.452421
0.603054
2.00898
2.76009
2.8364
2.40292
1.61959
0.426357
-0.611946
-1.00536
-1.01373
-0.822285
-0.695973
-0.654819
-0.578846
-0.507738
-0.446561
-0.420611
-0.424887
-0.429299
-0.418733
-0.383145
-0.392805
-0.417647
-0.432398
-0.422353
-0.417285
-0.397262
-0.37724
-0.362172
-0.39724
-0.417195
-0.392014
-0.351787
-0.351471
-0.380996
-0.395407
-0.359683
-0.338733
-0.322896
-0.302172
-0.276358
-0.250272
-0.223959
-0.197692
-0.151244
-0.0844571
-0.0276697
0.00380085
0.0397737
0.124706
0.152715
0.222986
0.269299
0.322308
0.349796
0.353937
0.361041
0.368529
0.361041
0.355588
0.34
0.328552
0.321584
0.299185
0.286606
0.268959
0.24595
0.207851
0.149909
0.1169
0.108823
0.115747
0.10767
0.084638
0.0516289
0.0386199
0.0356108
0.0126923
0.0148643
-0.00296381
-0.0459502
-0.0638009
-0.0666516
-0.0995928
-0.107624
-0.0858597
-0.0641177
-0.0524887
-0.0510181
-0.0345928
-0.0333032
-0.0124661
0.00300904
-0.00169684
0.0333032
0.0730543
0.0827149
0.0822624
0.0966968
0.115747
0.119457
0.123054
0.11138
0.129389
0.127285
0.109615
0.0765611
0.0588688
0.0667421
0.0554525
0.0108371
0.00696833
0.0245928
0.0357014
0.0171719
0.0216516
0.0378733
0.0388688
0.0251583
0.00970584
0.0293212
0.0399094
0.0311538
0.0226471
0.009638
0.00696833
0.0145475
0.0424434
0.0605204
0.0537104
0.0269683
0.0404525
0.0689367
0.0474434
0.030905
-0.0155882
-0.0170588
0.0015611
-0.0347285
-0.0610181
-0.0774434
-0.0988688
-0.135407
-0.171855
-0.203348
-0.220068
-0.247014
-0.268891
-0.250701
-0.217353
-0.213891
-0.25552
-0.277059
-0.248529
-0.269864
-0.325928
-0.311606
-0.242059
-0.127398
0.0923982
0.49267
1.1083
1.99441
2.71579
2.8174
2.42921
1.76113
0.568009
-0.545136
-0.978258
-0.946493
-0.755
-0.663643
-0.612217
-0.575882
-0.559683
-0.508575
-0.497738
-0.512014
-0.496357
-0.480973
-0.460724
-0.46052
-0.455407
-0.455317
-0.455226
-0.445045
-0.429706
-0.429457
-0.42414
-0.403846
-0.423416
-0.4231
-0.40276
-0.392557
-0.382308
-0.391923
-0.381448
-0.345882
-0.315271
-0.30957
-0.298869
-0.263009
-0.242014
-0.206086
-0.174796
-0.158258
-0.0870814
-0.0216515
0.0275114
0.0597286
0.0936878
0.168643
0.225724
0.243122
0.28595
0.323959
0.332376
0.345136
0.344638
0.353891
0.342217
0.315045
0.297647
0.295136
0.302308
0.239231
0.201222
0.203281
0.195272
0.172104
0.149027
0.130996
0.118122
0.0853168
0.0824661
0.0895476
0.0466064
0.00366519
-0.0243891
-0.0275339
-0.0407918
-0.0489592
-0.076923
-0.0799095
-0.0780995
-0.0766063
-0.0752036
-0.0738008
-0.0576696
-0.061742
-0.0809502
-0.0303846
-0.0101357
-0.000203595
0.0195023
0.0540272
0.0732127
0.0769005
0.055543
0.0491629
0.0926471
0.0957014
0.10319
0.0955204
0.0777149
0.0545249
0.0562896
0.0582579
0.060724
0.0391856
-0.0104072
-0.0370588
-0.0346154
-0.00891396
-0.00269225
-0.00321259
0.0283711
0.0446833
0.0261992
0.0358598
0.0707241
0.0815159
0.0528055
0.0443213
0.0560408
0.0529639
0.0853168
0.0678055
0.0200906
0.0423756
0.0600453
0.072896
0.0806788
0.0586652
0.0217647
-0.015181
-0.0569909
-0.0635972
-0.0802262
-0.0969909
-0.173756
-0.170611
-0.182398
-0.189072
-0.210882
-0.22276
-0.22457
-0.23629
-0.248032
-0.254728
-0.25638
-0.272964
-0.28948
-0.280973
-0.327353
-0.343281
-0.254208
-0.0900226
0.20448
0.654389
1.37964
2.27016
2.89609
2.84751
2.7541
1.59572
0.372466
-0.60052
-0.973484
-0.926697
-0.764955
-0.658371
-0.596833
-0.570249
-0.528778
-0.477398
-0.481403
-0.495656
-0.48991
-0.464163
-0.458326
-0.452692
-0.492421
-0.512308
-0.512014
-0.496538
-0.481177
-0.451063
-0.40586
-0.390633
-0.390453
-0.395158
-0.409615
-0.424095
-0.393643
-0.368281
-0.34776
-0.327104
-0.301471
-0.280837
-0.265158
-0.234434
-0.198552
-0.16276
-0.1419
-0.115588
-0.0642987
0.0266742
0.0569004
0.0957919
0.127579
0.176176
0.270792
0.323145
0.321403
0.341787
0.360769
0.385158
0.393394
0.397828
0.371742
0.339706
0.32233
0.324796
0.312059
0.309186
0.281267
0.253371
0.200588
0.17776
0.165
0.152285
0.134638
0.137014
0.129367
0.101719
0.0591403
0.0416064
0.0740498
0.0913349
0.0235521
0.00563353
0.0228507
-0.0147285
-0.0374886
-0.0254524
-0.043552
-0.0719909
-0.0656561
-0.0295701
-0.00855199
-0.00778276
-0.0220814
-0.0266516
0.0136878
0.0388009
0.0136199
0.00314484
0.0423303
0.0612444
0.0550227
0.0486652
0.0670136
0.0800453
0.0879638
0.0154751
0.0278054
0.0704751
0.0637557
0.0232579
-0.0152715
-0.0304072
-0.0264479
-0.0547511
-0.0482353
0.00798644
0.0342081
-0.0150679
-0.0138009
0.0308145
0.0410407
0.0569457
0.0333031
-4.52697e-05
0.0167647
0.0387783
0.0560407
0.0684616
0.065905
0.0534842
0.00624439
0.0240951
0.0820589
0.0999548
0.0227828
-0.024457
0.0034163
0.0115385
-0.0551131
-0.0915611
-0.0880317
-0.129615
-0.196222
-0.222919
-0.214729
-0.196516
-0.23319
-0.264842
-0.261674
-0.248462
-0.265181
-0.296855
-0.283394
-0.244796
-0.251086
-0.332353
-0.293529
-0.204367
-0.0347059
0.240272
0.700566
1.451
2.33676
2.84808
2.6445
2.16088
1.34751
0.159344
-0.68362
-0.941493
-0.844344
-0.68233
-0.635634
-0.604253
-0.542873
-0.516516
-0.515226
-0.494231
-0.503394
-0.507805
-0.50733
-0.47681
-0.476222
-0.505814
-0.505701
-0.490679
-0.505588
-0.480634
-0.490701
-0.500475
-0.460023
-0.409842
-0.424729
-0.459389
-0.43914
-0.42871
-0.433032
-0.39733
-0.351719
-0.311131
-0.310498
-0.329729
-0.308846
-0.257941
-0.242036
-0.211063
-0.155023
-0.0889819
-0.0232127
0.0273755
0.0523755
0.0808371
0.127059
0.174751
0.198348
0.230407
0.243688
0.249887
0.27586
0.298484
0.317443
0.297172
0.285995
0.309005
0.301538
0.273778
0.221041
0.213258
0.225045
0.216697
0.128507
0.14043
0.147443
0.144434
0.13638
0.133439
0.130543
0.0926923
0.0747511
0.0517194
0.0386651
0.025362
0.00714929
-0.0158598
-0.018801
-0.00203624
-0.010543
-0.0490272
-0.0674888
-0.0661313
-0.0451132
-0.0192987
-0.0187331
-0.0133937
-0.00323534
0.0218099
0.021742
0.0363574
0.0957013
0.109819
0.113756
0.117489
0.115837
0.118778
0.126674
0.139502
0.141833
0.114208
0.0917647
0.05
0.0192534
0.0256787
0.010543
0.00461533
0.0560859
0.0865837
0.0699548
0.0547964
0.034276
0.0149321
0.00450227
-0.000339396
0.0307013
0.0770814
0.0736651
0.0605882
0.0676923
0.0998868
0.10224
0.0996606
0.0972398
0.0698642
0.0375565
0.0552262
0.11776
0.125566
0.0785067
0.0613348
0.0442081
0.00712667
-0.0299095
-0.04181
-0.0486878
-0.0857014
-0.107896
-0.175023
-0.222127
-0.249186
-0.261199
-0.253122
-0.229977
-0.241855
-0.268801
-0.290656
-0.297285
-0.273801
-0.265136
-0.291312
-0.242217
-0.162805
-0.0129412
0.322059
0.81224
1.61278
2.53367
2.88459
2.54563
1.91686
0.908371
0.54
-0.898348
-1.10663
-0.92491
-0.74819
-0.681516
-0.620023
-0.57871
-0.547579
-0.501471
-0.46543
-0.449412
-0.458824
-0.458348
-0.473009
-0.492715
-0.497398
-0.482149
-0.471991
-0.436923
-0.416674
-0.42138
-0.411063
-0.410814
-0.395679
-0.390498
-0.400272
-0.385023
-0.359661
-0.354299
-0.378824
-0.338235
-0.287489
-0.271561
-0.285634
-0.269796
-0.233869
-0.187647
-0.151493
-0.120407
-0.0640724
-0.00744344
0.0241629
0.0804525
0.186357
0.23629
0.244412
0.269615
0.290747
0.328326
0.335882
0.375475
0.348733
0.337443
0.295294
0.279751
0.294344
0.283213
0.251561
0.249457
0.251946
0.234208
0.201312
0.168258
0.140385
0.12776
0.115136
0.102443
0.0847511
0.0722172
0.0497964
0.0123756
0.00486425
0.0222398
0.0295475
0.0319231
-0.0255883
-0.0382353
-0.0261539
-0.00907242
-0.0271946
-0.0455656
-0.0340272
0.0123756
0.0286199
0.0346606
0.0407013
0.0465384
0.0319909
0.0571041
0.0821041
0.10724
0.112172
0.106652
0.105882
0.10491
0.0935294
0.0819231
0.100204
0.103303
0.0964254
0.0446833
0.0384616
0.0286652
0.00108599
-0.0128959
0.0221041
0.0538914
0.0492534
0.0067647
0.0146606
0.0359502
0.0308597
-9.05097e-05
-0.0200905
0.00574659
0.0320588
0.0386651
0.0204525
0.0124661
0.0349548
0.0277602
0.0305882
0.063371
0.096267
0.0992308
0.0821493
0.0902941
0.103733
0.0821946
0.0206335
-0.0157692
-0.0370814
-0.0383936
-0.0349095
-0.0714932
-0.0879638
-0.0795022
-0.116222
-0.157986
-0.204751
-0.231516
-0.2481
-0.264547
-0.266086
-0.242647
-0.254321
-0.296018
-0.282443
-0.253665
-0.249661
-0.300317
-0.290656
-0.215769
-0.130679
0.0897738
0.500543
1.16163
2.06803
2.8295
2.81609
2.32776
1.48973
0.291697
-0.64138
-1.00966
-0.998009
-0.81638
-0.724864
-0.643597
-0.572285
-0.535995
-0.504955
-0.469095
-0.473371
-0.477783
-0.477262
-0.471833
-0.461561
-0.461199
-0.480905
-0.481018
-0.461267
-0.461357
-0.476267
-0.471199
-0.431109
-0.391176
-0.376199
-0.391063
-0.360837
-0.34043
-0.355068
-0.334729
-0.304005
-0.293032
-0.311946
-0.330928
-0.289864
-0.238982
-0.223009
-0.241765
-0.170498
-0.0791403
-0.0476018
-0.0212896
0.064457
0.139276
0.17267
0.183756
0.221086
0.259661
0.281765
0.290317
0.281991
0.279706
0.321131
0.280566
0.260362
0.264253
0.27724
0.26491
0.237217
0.219186
0.19095
0.182715
0.144661
0.141719
0.143824
0.125769
0.0675792
0.0344118
0.046267
0.0480996
0.0250905
-0.00278277
-0.0107692
-0.0636425
-0.111538
-0.104547
-0.0626697
-0.0760407
-0.0996154
-0.0883258
-0.0419909
-0.0105882
-0.0294344
-0.0234615
0.0324208
0.0680996
0.0735068
0.0484842
0.0481674
0.0678281
0.102262
0.091448
0.13043
0.169253
0.152783
0.141018
0.119072
0.0970136
0.0795023
0.0567647
0.0641629
0.0869005
0.0656787
0.00624435
-0.0302489
-0.00755654
0.0287104
0.0400679
0.0342987
0.0197059
0.0197738
0.0157692
0.00518101
0.0147059
0.020181
0.0361539
0.0176019
0.0194344
0.0515385
0.0538462
0.0463575
0.0439593
0.0418326
0.044819
0.062896
0.0210181
0.0191629
0.0825113
0.0709729
0.0244118
-0.0022172
0.00622172
-0.000316754
-0.0267195
-0.0529638
-0.0792081
-0.0857466
-0.147217
-0.158597
-0.145068
-0.186538
-0.228009
-0.249389
-0.230882
-0.237624
-0.214276
-0.210769
-0.247195
-0.22862
-0.244751
-0.290543
-0.241176
-0.116425
0.0787783
0.384367
0.915045
1.75091
2.57701
2.85335
2.52982
1.8314
1.57303
-0.370339
-1.00853
-1.06692
-0.880407
-0.729005
-0.652624
-0.551312
-0.475091
-0.453982
-0.468032
-0.47724
-0.471697
-0.471176
-0.450566
-0.425
-0.404774
-0.41491
-0.404977
-0.404819
-0.399638
-0.36957
-0.409683
-0.394932
-0.355249
-0.350452
-0.355452
-0.345294
-0.334955
-0.344389
-0.353643
-0.33276
-0.306855
-0.275792
-0.264525
-0.243145
-0.191719
-0.150385
-0.159072
-0.122647
-0.0660181
0.00554296
0.0317647
0.0571946
0.136312
0.203484
0.227285
0.266946
0.314344
0.347308
0.34776
0.332149
0.346923
0.360317
0.344683
0.318439
0.286493
0.269434
0.277262
0.259751
0.226968
0.209095
0.196176
0.168213
0.150136
0.127149
0.114163
0.0911765
0.0783032
0.0704977
0.0476923
-0.0152489
-0.0382353
-0.0511538
-0.0489593
-0.0520814
-0.115249
-0.138213
-0.11129
-0.0945023
-0.122873
-0.12129
-0.109661
-0.103145
-0.0868778
-0.0358371
-0.0198869
-0.0193439
-0.0139367
0.00633483
0.0363348
0.0261086
0.0304525
0.0644344
0.0831674
0.0969005
0.0954751
0.0735521
0.0764932
0.0892986
0.0817195
0.019095
0.00187783
-0.00950227
0.00549773
-0.0170362
-0.0207466
-0.010724
0.00561086
0.0105882
0.00746608
0.0183258
0.0155883
0.00997739
-0.000769205
0.0193892
0.0304073
0.0267874
0.0137557
0.0162444
0.0189367
0.0414932
0.0539367
0.0515611
0.0293439
0.0173756
0.0307014
0.0741856
0.0676471
0.0161991
-0.0152715
-0.0217194
0.00692312
-0.019638
-0.0561765
-0.0775792
-0.0840272
-0.13552
-0.202127
-0.243778
-0.24043
-0.242014
-0.268665
-0.300249
-0.291629
-0.282964
-0.289253
-0.295498
-0.291652
-0.297783
-0.308733
-0.304593
-0.190158
0.0246833
0.300045
0.720814
1.44674
2.34278
2.82912
2.68563
2.14728
1.30416
0.0960181
-0.762195
-1.01529
-0.863462
-0.681901
-0.655475
-0.644367
-0.588348
-0.527285
-0.506357
-0.500769
-0.475317
-0.439864
-0.439389
-0.45405
-0.448778
-0.438507
-0.448213
-0.453009
-0.422964
-0.412986
-0.4231
-0.428281
-0.398303
-0.388213
-0.368281
-0.353416
-0.368416
-0.358303
-0.33819
-0.352964
-0.352647
-0.322262
-0.296742
-0.281041
-0.250362
-0.229593
-0.183597
-0.162353
-0.151109
-0.0752941
0.0249774
0.0742081
0.0963575
0.130498
0.195611
0.232534
0.234683
0.263891
0.316516
0.349389
0.362014
0.36629
0.355815
0.349005
0.351719
0.339095
0.316335
0.303575
0.270633
0.227511
0.224344
0.196199
0.183077
0.145023
0.141968
0.113959
0.0759955
0.0528959
0.0696832
0.0865611
0.0535294
0.0204977
-0.0126018
-0.0506788
-0.0638236
-0.0667647
-0.0748417
-0.0682127
-0.0666969
-0.0552489
-0.0488236
-0.0376697
-0.0266516
-0.0107014
-0.00495477
0.0304298
0.0504298
0.0400226
0.0144344
0.0487104
0.0577376
0.0415158
0.0399774
0.0481222
0.085905
0.103462
0.0858145
0.0778281
0.109615
0.111448
0.0436878
-0.0482579
-0.0589366
-0.0224661
-0.0126471
-0.0188009
0.0123755
0.0380995
0.00653849
0.00624438
0.0355883
0.0162896
0.00585975
0.0311086
0.0221719
0.0685068
0.0900679
0.0569457
0.0491403
0.101493
0.113869
0.0814253
0.0542986
0.0573077
0.0552941
0.0284163
0.00669684
0.0149548
0.0231448
-0.0286651
-0.0354299
-0.0371493
-0.0737783
-0.105272
-0.136719
-0.1481
-0.154412
-0.165928
-0.197624
-0.224321
-0.236086
-0.247828
-0.264548
-0.256131
-0.237443
-0.25871
-0.305136
-0.341222
-0.312172
-0.2281
-0.103529
0.161471
0.641719
1.32224
2.21296
2.89889
2.85507
2.41649
1.65814
0.439864
-0.623281
-0.996358
-1.03443
-0.762579
-0.665815
-0.589095
-0.552285
-0.555566
-0.52405
-0.477692
-0.466606
-0.470679
-0.479932
-0.469231
-0.45371
-0.463303
-0.483009
-0.447851
-0.417579
-0.412127
-0.416493
-0.415928
-0.420475
-0.435045
-0.404638
-0.404072
-0.378439
-0.362896
-0.367353
-0.356652
-0.320837
-0.284977
-0.28914
-0.29319
-0.25224
-0.221267
-0.200113
-0.14871
-0.102262
-0.0711086
-0.0402941
-0.015362
0.0641403
0.139887
0.2069
0.240226
0.27724
0.335588
0.366493
0.356991
0.383032
0.422059
0.421244
0.369683
0.35767
0.365498
0.338122
0.295611
0.263077
0.245294
0.222602
0.170045
0.167195
0.16914
0.171244
0.138462
0.10086
0.0883484
0.0806787
0.0678733
0.0702715
0.0577828
0.0252262
-0.00246608
-0.0103168
-0.0332127
-0.0560634
-0.0589819
-0.0469231
-0.0149321
-0.0134389
-0.0320814
-0.055724
-0.054457
-0.0533937
-0.0477602
-0.0473077
-0.0169457
0.0333258
0.0533258
0.0530317
0.0471946
0.0711538
0.0647285
0.01819
0.0363348
0.0890272
0.056448
0.043733
0.0460181
0.00850679
0.0114932
0.00565612
-0.0280769
-0.028552
0.0101584
0.0169231
-0.0114253
-0.0117421
0.0396607
0.0457919
0.0371268
0.0316516
0.026086
0.0319457
0.0383484
6.78673e-05
-0.00807693
0.0188688
0.0161312
0.0286199
0.0562669
0.0640045
0.0567421
0.0545249
0.0724208
0.0653394
0.0531222
0.000972852
-0.0259502
-0.0526923
-0.0744118
-0.0861765
-0.117941
-0.154638
-0.206244
-0.228077
-0.219887
-0.216674
-0.253552
-0.270317
-0.276878
-0.263303
-0.279796
-0.266471
-0.268122
-0.274638
-0.310928
-0.331923
-0.292851
-0.183665
0.0207693
0.100385
0.930362
1.76581
2.62165
2.93272
2.62421
2.05611
1.07799
-0.140249
-0.863235
-0.986109
-0.829027
-0.692104
-0.650158
-0.618281
-0.566606
-0.545226
-0.52914
-0.553281
-0.552534
-0.501991
-0.461471
-0.46595
-0.495339
-0.484864
-0.479683
-0.474502
-0.449208
-0.438937
-0.448665
-0.463439
-0.458303
-0.41819
-0.407919
-0.442715
-0.447489
-0.432081
-0.406471
-0.345701
-0.319887
-0.319118
-0.333303
-0.317692
-0.252195
-0.221516
-0.205701
-0.194638
-0.163281
-0.122149
-0.0113801
0.0238688
0.0933032
0.125837
0.209819
0.279638
0.282195
0.265249
0.28595
0.320701
0.335475
0.343982
0.363937
0.328235
0.296516
0.309548
0.292443
0.289864
0.257195
0.204457
0.201606
0.228869
0.211176
0.168371
0.145679
0.153077
0.160045
0.136878
0.0986652
0.0954751
0.0725792
0.0497285
0.04181
0.0439367
0.0361312
0.023371
0.035543
0.0577376
0.0397285
0.00640273
-0.00235292
0.00873305
0.00484164
-0.0242534
-0.0136425
0.0366742
0.0569683
0.0670362
0.0817647
0.066267
0.0556109
0.0595928
0.0683032
0.101697
0.135068
0.133303
0.101131
0.0834163
0.110498
0.112715
0.0852715
0.068552
0.0672398
0.044819
0.0412443
0.0466063
0.013371
0.00398191
0.0572172
0.0810181
0.0493891
0.0544796
0.0542534
0.0297738
0.00581447
0.0219231
0.0333258
0.050181
0.0772398
0.104434
0.101697
0.0890498
0.0867647
0.0848868
0.0630995
0.0561538
0.0792534
0.062466
0.0257918
0.0140045
0.0121493
0.00527149
-0.0117421
-0.0390272
-0.0861312
-0.0980317
-0.130045
-0.177104
-0.214299
-0.221471
-0.233394
-0.24509
-0.281855
-0.238778
-0.215747
-0.252421
-0.283801
-0.310113
-0.326448
-0.25767
-0.178575
-0.0688914
0.136131
0.551561
1.29199
2.23262
2.7886
2.64998
2.05645
1.16803
0.0248416
-0.793258
-1.11652
-1.00462
-0.782828
-0.696109
-0.669638
-0.603416
-0.592172
-0.530928
-0.499751
-0.529005
-0.538371
-0.51276
-0.527217
-0.536652
-0.475882
-0.450181
-0.409729
-0.414457
-0.464072
-0.443733
-0.418258
-0.432851
-0.447398
-0.4369
-0.426448
-0.440837
-0.445
-0.399095
-0.328303
-0.312579
-0.326787
-0.311018
-0.280407
-0.264502
-0.278371
-0.217353
-0.136154
-0.119525
-0.0979412
-0.0216968
0.0541403
0.10914
0.127511
0.15319
0.232851
0.306154
0.318281
0.317217
0.344412
0.386674
0.378846
0.353484
0.343258
0.332149
0.335475
0.283303
0.240747
0.243235
0.225588
0.227602
0.174683
0.16681
0.188733
0.215611
0.182511
0.134525
0.111697
0.0988914
0.0612217
0.0435973
0.0159955
-0.0316968
-0.0545701
-0.0475113
-0.045362
-0.0632127
-0.0812896
-0.0295928
-0.00294118
-0.0062896
0.0102715
0.0767195
0.0779638
0.0439593
0.0347511
0.0402036
0.085362
0.105362
0.110113
0.0846833
0.0989819
0.117873
0.141719
0.140249
0.103507
0.101199
0.113416
0.115385
0.0826923
0.0602941
0.0182806
-0.00273754
0.0333032
0.0828733
0.0966516
0.0328507
0.0184841
0.0316289
0.0259728
0.0201357
0.0554298
0.0294117
0.00907234
-0.0152263
0.0458823
0.0772624
0.0642307
0.0262896
-0.0163801
0.071086
0.118597
0.101176
0.0688914
0.0367421
-0.005362
0.0128507
0.0411538
0.0397285
0.00841631
-0.00816741
-0.0647737
-0.0611312
-0.0725565
-0.094276
-0.101154
-0.127964
-0.159796
-0.19681
-0.208959
-0.206018
-0.213009
-0.21491
-0.211742
-0.268507
-0.270226
-0.226923
-0.258348
-0.339412
-0.345317
-0.281018
-0.186335
0.0087104
0.404027
1.03448
1.26014
2.63606
2.88229
2.51351
1.79964
0.655995
-0.442081
-0.984842
-1.03758
-0.850498
-0.72862
-0.661787
-0.595339
-0.559231
-0.508009
-0.461833
-0.465747
-0.470113
-0.444457
-0.453416
-0.437376
-0.446697
-0.461358
-0.436222
-0.436018
-0.445679
-0.460339
-0.440158
-0.400181
-0.405204
-0.429887
-0.404457
-0.36914
-0.353778
-0.3531
-0.352262
-0.336358
-0.325362
-0.304027
-0.292919
-0.257014
-0.211018
-0.189955
-0.188688
-0.137081
-0.105498
-0.0544344
0.000950217
0.0551357
0.147692
0.167262
0.252851
0.320882
0.349434
0.335611
0.345588
0.370566
0.358982
0.323733
0.288145
0.30181
0.325136
0.312896
0.270226
0.222308
0.224276
0.261131
0.228167
0.190045
0.181787
0.178439
0.145339
0.0823077
0.0742308
0.0759955
0.0774434
0.0392534
0.0163348
0.0134389
-0.029638
-0.0478733
-0.0561991
-0.0494118
-0.0675113
-0.0956561
-0.0840498
-0.057715
-0.0867647
-0.0858598
-0.0349095
0.0109955
0.00662894
-0.0029638
0.0322625
0.107217
0.156923
0.156357
0.120475
0.119367
0.133077
0.136244
0.114118
0.111968
0.109593
0.0866742
0.0584163
0.0452715
0.037534
0.030724
0.020724
0.00871046
0.0379865
0.0686199
0.105294
0.145249
0.136991
0.0589819
-0.023914
-0.0642081
-0.044638
-0.0191403
-0.0130317
0.0134389
0.0403167
0.0125339
0.0001131
0.0178959
0.0608597
0.0440724
-0.0225339
0.000723988
0.0440045
0.0673756
0.085905
0.0545249
-0.0170362
-0.0386425
-0.0351583
-0.0416289
-0.0679864
-0.139321
-0.16586
-0.162602
-0.194299
-0.215928
-0.227534
-0.249253
-0.256063
-0.26776
-0.219367
-0.210973
-0.242421
-0.253733
-0.254887
-0.31095
-0.301833
-0.212511
-0.0478507
0.237217
0.622489
1.28321
2.12912
2.69552
2.59738
2.0243
1.15611
0.0326923
-0.765634
-1.07891
-0.967285
-0.755815
-0.674231
-0.622534
-0.551018
-0.489729
-0.473801
-0.453032
-0.452082
-0.436109
-0.420317
-0.419729
-0.409072
-0.388484
-0.388054
-0.387443
-0.35681
-0.346131
-0.35552
-0.375045
-0.36457
-0.359253
-0.378937
-0.38362
-0.378122
-0.367398
-0.341538
-0.295634
-0.264887
-0.249208
-0.268484
-0.277489
-0.221244
-0.19491
-0.183484
-0.157104
-0.111041
-0.0459502
0.0176244
0.0637783
0.101222
0.154864
0.206923
0.245136
0.255973
0.291493
0.358688
0.403145
0.413281
0.407443
0.405814
0.378959
0.321833
0.29457
0.312285
0.325249
0.323326
0.231086
0.213348
0.200294
0.177127
0.15905
0.146199
0.133326
0.110385
0.0724434
0.0443891
0.0463122
0.0033484
-0.0543892
-0.0673982
-0.045724
-0.033733
-0.0616516
-0.109729
-0.102783
-0.0609276
-0.0594797
-0.0932353
-0.0820136
-0.0658371
-0.0749321
-0.054638
0.0154072
0.0404299
0.0400453
0.034276
0.0580996
0.091629
0.0750226
0.0731448
0.0811313
0.0789367
0.0914254
0.0736426
0.0507466
0.0576245
0.039457
0.0116064
-0.025543
-0.0163122
-0.0201131
-0.030724
-0.0373982
-0.046267
-0.0104978
0.0175792
0.0868326
0.0911991
0.0620362
0.03638
0.0262895
0.00728502
-0.00110864
0.0208144
0.0230317
0.0505203
0.0832126
0.0761538
0.0340724
0.0320362
0.0651131
0.0434842
0.0219683
-0.00959274
-0.0610633
-0.0673982
-0.0786651
-0.104955
-0.101244
-0.107624
-0.119004
-0.140498
-0.152195
-0.188869
-0.260566
-0.32233
-0.324095
-0.265679
-0.282172
-0.293688
-0.305339
-0.316878
-0.343122
-0.374367
-0.330543
-0.186538
0.0779186
0.412715
0.912805
1.73326
2.58903
2.94509
2.67147
2.09303
1.05948
0.671086
-0.957149
-1.11532
-0.903462
-0.731538
-0.689661
-0.642873
-0.586357
-0.560136
-0.588937
-0.582692
-0.526244
-0.495158
-0.504344
-0.51362
-0.507986
-0.527308
-0.511516
-0.465769
-0.435158
-0.434502
-0.438801
-0.443054
-0.447376
-0.401878
-0.396516
-0.441131
-0.415475
-0.354751
-0.339208
-0.34871
-0.328009
-0.30233
-0.291719
-0.285928
-0.250158
-0.184344
-0.153213
-0.141968
-0.0811765
-0.0155656
0.0628959
0.104118
0.121991
0.161176
0.228824
0.267534
0.298484
0.343937
0.370023
0.369321
0.394321
0.418552
0.432059
0.415091
0.367805
0.325317
0.302602
0.249661
0.231516
0.253462
0.230588
0.188009
0.170385
0.187624
0.174796
0.147059
0.0942308
0.0761539
0.0831222
0.0852489
0.0575113
0.0248417
0.0321267
0.0392534
0.0314254
-0.0314253
-0.0445022
-0.0127602
-0.0313574
-0.0602715
-0.0441403
-0.0280769
-0.0371041
-0.0361765
-0.0254072
0.00518101
0.0305882
0.0205882
0.0300226
0.0540271
0.0774208
0.0804977
0.0886199
0.106493
0.114027
0.076267
0.0633258
0.085181
0.0768326
0.0587783
0.00133485
-0.00997737
-0.00975112
-0.0372398
-0.0559276
-0.045724
-0.0388235
-0.0179864
0.0352715
0.0438462
0.0809276
0.100996
0.0954752
0.065905
0.0671041
0.0535295
0.0501358
0.081991
0.0992082
0.0964706
0.0437557
0.0263575
0.0641403
0.0669684
0.0599095
0.0278733
-0.0142534
-0.0211991
-0.0178959
-0.0697059
-0.111606
-0.123348
-0.155045
-0.176787
-0.163416
-0.150091
-0.202036
-0.248959
-0.260701
-0.247398
-0.253959
-0.250407
-0.271878
-0.303303
-0.284638
-0.30595
-0.357059
-0.313054
-0.188982
-0.149502
0.320362
0.840566
1.61606
2.41676
2.75771
2.5341
2.04072
1.06249
-0.195588
-0.92371
-1.0669
-0.909864
-0.772692
-0.700656
-0.618756
-0.577036
-0.540769
-0.504887
-0.479208
-0.473371
-0.49233
-0.491425
-0.475633
-0.469887
-0.474005
-0.498077
-0.492285
-0.44181
-0.426358
-0.455905
-0.455701
-0.435362
-0.429661
-0.433688
-0.442534
-0.401335
-0.370272
-0.349367
-0.303371
-0.282466
-0.296538
-0.290566
-0.294661
-0.278688
-0.247489
-0.216244
-0.195181
-0.114593
-0.0247964
-0.00131223
0.0699547
0.132602
0.171357
0.198281
0.25138
0.296878
0.321674
0.342127
0.361131
0.346018
0.360136
0.378145
0.375769
0.373326
0.355724
0.352964
0.335136
0.29733
0.289661
0.292036
0.234367
0.156765
0.129163
0.131516
0.13371
0.125837
0.132964
0.135158
0.0824887
0.0449095
0.0473756
0.0346832
0.0267647
0.00886878
-0.0241629
-0.0223529
-0.0206335
-0.044095
-0.0526471
0.00384615
0.0250226
-0.0140724
-0.0284389
-0.0230995
-0.00307691
0.0117873
0.0266063
0.0460407
0.0652036
0.0690498
0.0276245
0.0208145
0.0486878
0.046267
0.0285068
0.0555882
0.0725339
0.0742308
0.0661086
0.0335973
0.0112896
0.0162443
-0.0014706
-0.0157466
-0.0114253
-0.015362
-0.0102262
0.00769234
0.0263575
0.0595023
0.0644118
0.0287104
0.0138009
0.049638
0.0559502
0.0426471
0.0945249
0.151697
0.139118
0.0816968
0.0542081
0.0567421
0.0344344
0.0222398
0.00502261
-0.0221041
-0.0242534
-0.011448
-0.0284616
-0.0254072
0.0276471
-0.0343213
-0.151312
-0.208394
-0.24543
-0.267557
-0.304638
-0.286629
-0.278529
-0.280271
-0.316968
-0.313733
-0.285452
-0.312172
-0.363846
-0.365452
-0.296878
-0.168122
-0.00402713
0.29543
0.810091
1.63534
2.50097
2.91679
2.67776
2.15907
1.17561
-0.0828054
-0.841199
-1.03943
-0.882647
-0.690837
-0.613982
-0.597172
-0.590339
-0.578756
-0.56233
-0.571063
-0.589977
-0.553937
-0.537941
-0.517172
-0.491719
-0.481516
-0.471312
-0.450837
-0.460249
-0.474593
-0.468733
-0.468054
-0.477398
-0.491584
-0.455792
-0.420113
-0.384525
-0.353937
-0.363281
-0.362579
-0.346878
-0.351176
-0.330317
-0.309367
-0.258394
-0.222466
-0.171584
-0.120566
-0.0945249
-0.058914
-0.0438235
0.0154525
0.0879412
0.162104
0.22733
0.260339
0.293009
0.339027
0.343801
0.348597
0.357149
0.352308
0.352104
0.325837
0.334186
0.352195
0.359864
0.317149
0.299163
0.296109
0.25819
0.220407
0.20767
0.19991
0.182081
0.154231
0.121516
0.118824
0.121018
0.0933711
0.0760408
0.0687331
0.0911765
0.0683711
0.0354525
0.0273982
0.0393213
0.0161313
-0.00221715
0.0142534
0.0257467
0.0271946
-0.0014253
0.00511317
0.0313801
0.0570362
0.0422625
0.0521267
0.0817874
0.0911313
0.0902942
0.0991403
0.10776
0.106086
0.0991856
0.0920589
0.0947285
0.106946
0.0940045
0.071267
0.0741629
0.0829864
0.0631901
0.0106335
0.00185523
0.0220136
0.0391177
0.0401132
0.053733
0.0780543
0.0919457
0.0675566
0.0372625
0.0378055
0.0393666
0.0413349
0.0283258
0.0603847
0.0876245
0.100068
0.0975566
0.0950001
0.102806
0.0906788
0.0785521
0.101606
0.0998417
0.0381222
0.00142536
-0.0103393
-0.0572398
-0.0741855
-0.111199
-0.148281
-0.160407
-0.147443
-0.149389
-0.186244
-0.203009
-0.214842
-0.241742
-0.25362
-0.235498
-0.23724
-0.283914
-0.290407
-0.276742
-0.287805
-0.278665
-0.169389
-0.0349547
0.164706
0.564706
1.26
2.12566
2.64674
2.72312
1.96984
1.17204
0.0844344
-0.738167
-1.09591
-1.04373
-0.826629
-0.734796
-0.677986
-0.620996
-0.53905
-0.492376
-0.480837
-0.499457
-0.513281
-0.487285
-0.471244
-0.485204
-0.489321
-0.478733
-0.473281
-0.457647
-0.436855
-0.446131
-0.460475
-0.459842
-0.429027
-0.398077
-0.387081
-0.391109
-0.380068
-0.369027
-0.328258
-0.317466
-0.321403
-0.300249
-0.279208
-0.278258
-0.257421
-0.216516
-0.170452
-0.144186
-0.107692
-0.0464706
0.0342987
0.0841629
0.112172
0.162127
0.233122
0.24095
0.278484
0.303484
0.322489
0.311946
0.27552
0.276086
0.301516
0.295747
0.294299
0.282489
0.290339
0.297896
0.265272
0.207511
0.174751
0.176901
0.148914
0.115905
0.102941
0.115023
0.107014
0.0791856
0.0514933
0.0338688
0.026086
-0.0167646
-0.0145248
0.00764711
-0.00536194
-0.0333484
-0.0312895
-0.0145475
-0.00800899
0.00848424
0.0248191
0.0410182
0.0469458
0.0426471
0.0581901
0.0737557
0.0892535
0.0995023
0.104276
0.118665
0.127896
0.121923
0.110679
0.114208
0.12224
0.119932
0.107489
0.109864
0.102195
0.0999548
0.0632127
0.0472398
0.0581675
0.0623982
0.0507693
0.0415385
0.0226923
-0.0194118
-0.0500679
-0.0456109
-0.0148643
-0.0104751
-0.00581446
0.019819
0.0260181
-0.00239818
0.00947969
0.0216742
0.0291177
0.05681
0.0595928
0.057353
0.0304073
0.0187104
0.0319457
0.0651131
0.058371
0.0116063
-0.0250905
-0.0416969
-0.0484163
-0.0552715
-0.0771267
-0.133937
-0.180837
-0.18776
-0.194683
-0.221606
-0.183507
-0.175317
-0.227195
-0.24914
-0.256018
-0.232783
-0.184548
-0.176199
-0.227692
-0.263937
-0.284977
-0.215837
-0.11638
0.0936199
0.513959
1.18941
2.06016
2.75636
2.82781
2.29953
1.40622
0.182828
-0.720634
-1.14907
-1.13749
-0.925882
-0.789344
-0.697851
-0.616425
-0.559977
-0.513462
-0.46224
-0.446471
-0.44595
-0.440294
-0.42957
-0.43405
-0.438756
-0.428371
-0.432941
-0.432602
-0.432398
-0.397217
-0.381878
-0.391561
-0.386131
-0.355543
-0.334977
-0.344186
-0.333394
-0.322647
-0.321923
-0.331086
-0.315091
-0.289095
-0.2731
-0.247036
-0.235815
-0.219502
-0.197964
-0.106335
-0.0300226
-0.0192534
0.0157014
0.0940272
0.139774
0.196833
0.25552
0.288416
0.308281
0.321425
0.334502
0.359276
0.394412
0.379706
0.349005
0.302783
0.296199
0.289005
0.256222
0.243054
0.234661
0.231222
0.172896
0.164661
0.166561
0.133643
0.105747
0.0976697
0.109615
0.101584
0.0586425
0.0208145
0.0129864
-0.0248869
-0.0629412
-0.0610633
-0.0491177
-0.0571719
-0.0452941
-0.0437557
-0.0424434
-0.0261312
-0.00997737
-0.00909501
0.0116742
0.0622172
0.0775339
0.0726471
0.0826471
0.0874887
0.107195
0.131652
0.140701
0.144434
0.137851
0.136086
0.129253
0.132217
0.119864
0.0972398
0.0893213
0.0766742
0.0344796
0.00830317
0.0140724
0.00800902
-0.00400454
-0.0278507
-0.0263122
0.0229185
0.0732352
0.0781448
0.0290723
0.0132579
0.0226923
0.0231448
0.0241855
0.0206108
0.0174208
0.00475115
0.0324661
0.0704751
0.0886651
0.0569231
0.0102262
0.0186425
0.0520588
0.0406787
0.0194118
0.0080543
0.00676472
-0.0095475
-0.0558824
-0.0972851
-0.123869
-0.140475
-0.151946
-0.233394
-0.234977
-0.211629
-0.203258
-0.214932
-0.236629
-0.223303
-0.220158
-0.242172
-0.263982
-0.27043
-0.306606
-0.317602
-0.243167
-0.108371
0.0815611
0.436652
0.997082
1.81772
2.57373
2.75007
2.30661
1.58826
0.495
0.12181
-1.09643
-1.14459
-0.912602
-0.795588
-0.733959
-0.617489
-0.516109
-0.479932
-0.464005
-0.4481
-0.437081
-0.44638
-0.465905
-0.475475
-0.470204
-0.454842
-0.444276
-0.433665
-0.443167
-0.437692
-0.432353
-0.422127
-0.406787
-0.401471
-0.401086
-0.365611
-0.35509
-0.324253
-0.308394
-0.32267
-0.291878
-0.236018
-0.230158
-0.234163
-0.227851
-0.186312
-0.164706
-0.153394
-0.0828054
-0.0173982
0.0207466
0.0661086
0.122466
0.175271
0.227376
0.271244
0.283213
0.305498
0.353122
0.367964
0.372805
0.361674
0.354955
0.333009
0.310747
0.308235
0.295362
0.27724
0.249253
0.221448
0.198665
0.155633
0.112466
0.0993213
0.106199
0.113167
0.110158
0.0521041
0.0140498
0.00119907
-0.0216516
-0.0345928
-0.0378055
-0.0512896
-0.0546833
-0.102919
-0.116177
-0.0995928
-0.113145
-0.106833
-0.0657014
-0.0346833
-0.00386882
0.0066063
0.0067873
0.0218552
0.0413801
0.065543
0.0695701
0.078552
0.0721267
0.0802941
0.143122
0.190701
0.168054
0.0951584
0.0470362
0.0236651
0.0152488
0.00721718
-0.0152263
-0.0166742
-0.0113349
-0.0035068
-0.0170136
-0.00685523
0.00432123
0.0184842
0.024457
0.025543
0.06
0.0691403
0.00825793
-0.0364932
-0.00565614
0.0155656
0.0223755
0.0297285
0.0674434
0.0603846
0.0283258
0.036267
0.0742534
0.0823303
0.0804072
0.0284615
-0.028258
-0.0299548
-0.0167195
-0.0586426
-0.0706561
-0.0575792
-0.124412
-0.161312
-0.178348
-0.190362
-0.212149
-0.274027
-0.280905
-0.252738
-0.254412
-0.255995
-0.257398
-0.268869
-0.29043
-0.326923
-0.348145
-0.274253
-0.110294
-0.0509276
0.473824
1.09885
1.98921
2.76989
2.92584
2.53195
1.85324
0.66957
-0.529072
-1.02256
-1.03097
-0.854321
-0.747828
-0.691493
-0.630294
-0.593937
-0.547647
-0.501471
-0.490362
-0.484321
-0.483462
-0.472715
-0.452172
-0.441516
-0.440882
-0.455498
-0.460204
-0.449729
-0.459389
-0.47414
-0.433778
-0.393303
-0.362805
-0.347285
-0.356719
-0.356222
-0.360882
-0.345588
-0.325113
-0.294683
-0.269186
-0.288552
-0.282919
-0.231991
-0.180769
-0.164751
-0.12414
-0.044095
0.00975113
0.026267
0.0995023
0.158914
0.236086
0.28405
0.304502
0.333575
0.378145
0.401742
0.40629
0.400226
0.408394
0.381222
0.343891
0.356358
0.368778
0.31586
0.267783
0.269615
0.256652
0.243778
0.230882
0.188009
0.145136
0.126991
0.113643
0.0903846
0.0771719
0.0591176
0.0161312
-0.0168099
0.000113137
0.0119231
-0.00619909
-0.0440724
-0.0518778
-0.039819
-0.07319
-0.0668552
-0.0405656
-0.014276
0.0116742
-0.00260179
-0.0120135
0.0182127
0.0533032
0.048077
0.0324208
0.0613122
0.0897285
0.0929186
0.0409276
0.0486878
0.0612896
0.0786652
0.090724
0.0775339
0.0541629
0.045724
0.037534
0.0150227
-0.00703616
-0.0265158
-0.0481222
-0.0457013
-0.0297964
0.0121267
0.0373303
0.0544796
0.0763574
0.082828
0.0721267
0.0515385
0.0670136
0.0880091
0.0893439
0.0259502
0.0326697
0.0396833
0.0320588
0.0145928
0.0222398
0.0200226
0.0179864
-0.0538461
-0.0656335
-0.00742082
0.0158145
-0.0310407
-0.063009
-0.0850452
-0.127059
-0.179027
-0.200928
-0.212738
-0.239525
-0.231357
-0.248235
-0.255136
-0.281991
-0.288869
-0.300633
-0.292217
-0.263846
-0.30052
-0.357036
-0.313258
-0.209299
-0.0650905
0.224502
0.744367
1.4795
2.32007
2.82591
2.71706
2.21851
1.40018
0.117059
-0.815905
-1.04387
-0.912014
-0.745317
-0.688597
-0.652059
-0.600634
-0.584208
-0.527873
-0.491787
-0.470814
-0.509683
-0.528597
-0.522783
-0.492036
-0.47629
-0.470656
-0.465068
-0.44948
-0.433937
-0.458507
-0.463145
-0.432919
-0.407511
-0.411946
-0.416199
-0.430362
-0.434751
-0.404072
-0.358348
-0.347738
-0.336946
-0.321154
-0.285294
-0.244231
-0.19819
-0.182036
-0.185995
-0.130294
-0.0454751
0.0329412
0.0740498
0.111652
0.170475
0.212398
0.235407
0.276086
0.327828
0.363665
0.373054
0.373145
0.397489
0.416063
0.379299
0.337081
0.329457
0.331629
0.343688
0.275588
0.262557
0.259706
0.242014
0.239389
0.226787
0.194095
0.136267
0.128394
0.110588
0.112851
0.124796
0.106719
0.0737104
0.0507466
0.0327828
0.00470592
-0.0234389
-0.0466063
-0.0450905
-0.043733
-0.0622398
-0.0457013
-0.00936647
-0.00334837
-0.0225565
0.00800909
0.0332353
0.0431449
0.0526697
0.0519457
0.0610407
0.0597738
0.0631901
0.0861991
0.0890724
0.0716742
0.0589819
0.0712217
0.0832806
0.0651131
0.0370815
0.0194344
0.0125113
0.00701357
-0.0311312
-0.0409502
-0.0218778
0.00959279
0.0157014
0.00466064
4.52399e-05
0.00970589
0.0250679
0.0593213
0.0793213
0.075181
0.0814027
0.0628054
0.0694797
0.0964254
0.0938236
0.0664706
0.0292534
0.0219005
0.0645928
0.062353
0.0152489
-0.00678733
-0.0187783
-0.0358371
-0.0528733
-0.0448869
-0.0519231
-0.0689593
-0.145928
-0.167783
-0.199638
-0.241629
-0.233778
-0.261063
-0.263258
-0.275294
-0.312421
-0.289412
-0.281244
-0.302896
-0.314389
-0.350656
-0.296833
-0.187851
0.00142533
0.29595
0.83586
1.64111
2.48156
2.85235
2.62342
2.04966
1.8362
-0.157014
-0.950091
-1.12303
-0.960973
-0.793914
-0.7369
-0.655091
-0.583575
-0.562308
-0.541131
-0.49991
-0.483914
-0.507986
-0.532081
-0.526244
-0.520452
-0.504683
-0.488937
-0.458371
-0.447715
-0.457059
-0.44629
-0.430226
-0.434118
-0.448122
-0.462217
-0.426425
-0.410724
-0.405
-0.404367
-0.378733
-0.348009
-0.332262
-0.331425
-0.290407
-0.259344
-0.248348
-0.222127
-0.170973
-0.0948869
-0.0647512
-0.0157466
0.0461538
0.104638
0.159208
0.171697
0.210045
0.276109
0.316267
0.321742
0.320814
0.341063
0.365701
0.354276
0.332376
0.335204
0.337692
0.319955
0.297081
0.269208
0.24629
0.218303
0.200294
0.217217
0.234163
0.201357
0.178643
0.155814
0.153032
0.145294
0.102624
0.0599321
0.0421719
0.0342986
0.0261991
-0.0020136
-0.0100679
-0.00809957
-0.00633486
-0.00977378
0.0118099
0.023371
0.0347285
0.0158823
0.0118552
0.027647
0.0280543
0.0231221
0.047828
0.067285
0.0915384
0.100339
0.108869
0.137059
0.114842
0.0923982
0.0847738
0.0869683
0.0790045
0.0708371
0.0278054
0.0152715
0.0436199
0.0384163
0.0107918
0.0168778
0.0219457
0.0288009
0.0346833
0.0279638
0.0402715
0.0436878
0.0135973
0.00278281
0.0177149
0.0386199
0.0398869
0.0566516
0.0987783
0.115995
0.113394
0.091086
0.0890045
0.0869004
0.0797285
0.0825792
0.0704751
0.0385068
0.0166516
-0.0151584
-0.0370362
-0.0640045
-0.12086
-0.15267
-0.164548
-0.171561
-0.168733
-0.180882
-0.217964
-0.224977
-0.226991
-0.24905
-0.276109
-0.2831
-0.29
-0.296697
-0.303235
-0.324796
-0.286199
-0.262285
-0.0429638
0.206584
0.681403
1.43663
2.3071
2.79287
2.60882
1.99507
1.08165
-0.0765385
-0.854683
-1.12792
-1.0162
-0.794434
-0.692738
-0.635996
-0.599389
-0.562851
-0.52129
-0.499842
-0.49371
-0.497851
-0.502036
-0.476267
-0.460453
-0.474593
-0.468914
-0.44319
-0.442398
-0.466561
-0.470769
-0.435068
-0.419389
-0.41871
-0.403032
-0.382353
-0.371652
-0.375905
-0.375136
-0.349321
-0.363484
-0.372511
-0.341425
-0.285339
-0.249412
-0.223484
-0.212398
-0.156244
-0.105068
-0.0889593
-0.0333258
0.0414027
0.0995701
0.160068
0.206719
0.269796
0.307398
0.316923
0.335136
0.343688
0.3719
0.376946
0.376968
0.356244
0.330226
0.318484
0.281471
0.259005
0.246176
0.248235
0.250136
0.221991
0.203959
0.190882
0.187624
0.139412
0.116403
0.0884389
0.0805656
0.0828733
0.0652715
0.0426018
0.00977375
-0.00800905
-0.015905
-0.0138914
-0.0168552
-0.0297964
-0.0379186
-0.0161991
0.0102715
0.0216063
0.00773755
0.0135973
0.0243439
0.0397964
0.0599774
0.09
0.0899095
0.0795702
0.0788688
0.112828
0.141403
0.139638
0.117557
0.110136
0.102557
0.114932
0.102081
0.0793213
0.0616968
0.0400226
0.0295701
0.00633484
0.0215611
0.0307013
0.0270588
0.0228281
0.0308145
0.029819
0.0237783
0.0342308
0.0534842
0.0583258
0.0542986
0.0157919
0.0426471
0.0548642
0.0273755
0.0249547
0.0625792
0.0954751
0.0734842
0.0614706
0.0645702
0.0678507
0.0710407
0.0343665
-0.00714932
-0.0236652
-0.0252941
-0.0519231
-0.0936425
-0.115498
-0.127398
-0.139186
-0.17595
-0.197738
-0.204615
-0.216561
-0.228416
-0.240385
-0.257398
-0.249276
-0.23595
-0.242421
-0.263756
-0.279977
-0.290882
-0.251629
-0.127285
0.0973982
0.452557
1.05303
1.93382
2.7048
2.7912
2.36292
1.55477
0.37172
-0.661425
-1.10452
-1.10751
-0.910452
-0.84862
-0.717149
-0.655679
-0.559344
-0.483303
-0.462376
-0.441357
-0.425158
-0.44405
-0.45819
-0.422466
-0.411674
-0.430928
-0.435339
-0.434932
-0.429548
-0.428937
-0.413326
-0.39776
-0.407149
-0.381403
-0.365656
-0.364887
-0.379095
-0.368326
-0.352557
-0.32681
-0.315905
-0.294774
-0.28871
-0.292602
-0.236244
-0.179796
-0.138597
-0.122919
-0.102986
-0.0293439
0.042172
0.100385
0.13991
0.193416
0.252172
0.27371
0.274864
0.306312
0.330815
0.330996
0.345453
0.329027
0.31724
0.31
0.317489
0.314774
0.261923
0.263891
0.230769
0.18776
0.184706
0.176697
0.158665
0.130588
0.117624
0.0945928
0.0515159
0.0233032
0.0499322
0.0617195
0.00871041
-0.0192534
-0.0173982
-0.0155882
-0.0386878
-0.0318326
-0.0549547
-0.0632353
-0.0619231
-0.060905
-0.0649321
-0.00904976
0.0366064
0.0469684
0.0370815
0.0520136
0.0667195
0.0810181
0.0949095
0.0985747
0.106946
0.104955
0.102557
0.110068
0.0971493
0.0891629
0.0711086
0.0531222
0.0652489
0.0575566
0.0353394
0.0042308
-0.00515833
-0.00674206
0.0156562
0.00660637
-0.00187781
-0.00217198
0.00886877
0.0396833
0.0510633
0.0204977
-4.52846e-05
0.0204525
0.0663801
0.0480091
0.035
0.0723982
0.0801131
0.0582127
0.0164706
0.00484163
0.0382353
0.0517195
0.0302941
-0.0112217
-0.00276017
0.005724
-0.00081446
-0.0525113
-0.0742534
-0.0909502
-0.13767
-0.18957
-0.201425
-0.208235
-0.220045
-0.232014
-0.244095
-0.221199
-0.233145
-0.274977
-0.276765
-0.283552
-0.330271
-0.336742
-0.262986
-0.118982
0.0452036
0.31957
0.789299
1.55439
2.39991
2.62575
2.55172
1.93294
0.909412
-0.24414
-0.92776
-1.09629
-0.949751
-0.773167
-0.701697
-0.625407
-0.554253
-0.5081
-0.491855
-0.465769
-0.444638
-0.47362
-0.467828
-0.462127
-0.431425
-0.410701
-0.435113
-0.454638
-0.414231
-0.368869
-0.358484
-0.392964
-0.397127
-0.371357
-0.350633
-0.349932
-0.364253
-0.348575
-0.347873
-0.347353
-0.296742
-0.246041
-0.235317
-0.239593
-0.228507
-0.182217
-0.136403
-0.106357
-0.0925113
-0.0253394
0.0541177
0.0848416
0.127579
0.185407
0.250271
0.273778
0.38276
0.396176
0.39629
0.371086
0.339932
0.343394
0.366561
0.349344
0.326719
0.308846
0.31086
0.297986
0.260023
0.231946
0.233824
0.205769
0.152805
0.139842
0.131742
0.0985747
0.0656109
0.0428281
0.0248417
0.0317195
0.0386426
-0.0244796
-0.0376244
-0.0458597
-0.0691403
-0.102489
-0.0858597
-0.0542534
-0.0677602
-0.0764706
-0.0703394
-0.029276
-0.0184389
-0.0129864
0.00717194
0.0370588
0.0515837
0.0558824
0.0547738
0.0732579
0.106448
0.124321
0.111991
0.0945701
0.101878
0.103846
0.0806109
0.0772172
0.078914
0.0609955
0.0337331
0.0121946
0.00694571
0.00395928
-0.0204299
-0.0308371
0.015
0.0405883
0.0234389
0.0367195
0.0797964
0.0749774
0.0494344
0.0444797
0.0455204
0.0671041
0.0841629
0.0866064
0.0593666
0.0373982
0.0255656
0.0136878
0.0167873
0.0300453
0.0183711
-0.00823528
-0.00979637
-0.00144795
-0.0131674
-0.0499095
-0.0866063
-0.0932579
-0.154977
-0.196765
-0.218529
-0.215204
-0.211787
-0.238575
-0.240475
-0.227308
-0.259072
-0.280634
-0.287127
-0.293597
-0.31991
-0.320973
-0.206968
-0.0478507
0.231538
0.616086
1.23097
2.07131
2.73686
2.7276
2.27853
1.47466
0.27595
-0.712217
-1.09048
-1.03382
-0.837263
-0.735701
-0.674344
-0.6081
-0.546855
-0.500475
-0.47905
-0.487647
-0.486425
-0.480385
-0.479231
-0.488032
-0.477104
-0.461312
-0.455453
-0.454593
-0.473846
-0.462941
-0.432014
-0.411154
-0.380158
-0.359005
-0.373009
-0.391991
-0.391176
-0.340543
-0.320113
-0.334661
-0.349163
-0.29362
-0.247828
-0.237081
-0.236538
-0.171742
-0.123235
-0.11181
-0.0885068
-0.0590272
0.0130769
0.0806335
0.125452
0.179095
0.248688
0.26267
0.287692
0.367172
0.410928
0.404321
0.382489
0.375407
0.37819
0.385679
0.378009
0.350271
0.322534
0.289638
0.241584
0.22362
0.210724
0.19776
0.194842
0.151923
0.143982
0.161041
0.1181
0.0701131
0.0421946
0.0293439
0.00644794
-0.0366968
-0.0400226
-0.00828055
-0.0316968
-0.0602263
-0.0686878
-0.052172
-0.0410407
-0.0450905
-0.0492534
-0.00361992
0.0317647
0.0318099
0.0115611
0.020724
0.0393439
0.0375113
0.0154525
0.0433937
0.0811765
0.0637104
0.0461086
0.0482579
0.080181
0.0819909
0.0386425
-0.00968326
0.0170589
0.0343213
0.00237558
-0.0182805
-0.0221493
-0.0329638
-0.0299095
-0.00877829
0.0325113
0.0718778
0.072647
0.0630316
0.0891855
0.0989592
0.0840045
0.0447059
0.0857918
0.127308
0.104231
0.0466289
0.0144117
0.0173529
0.0402262
0.0380995
-0.0189593
-0.0309502
-0.00291856
-0.0298869
-0.0617647
-0.0736199
-0.0853846
-0.15724
-0.189186
-0.196063
-0.222896
-0.254593
-0.286244
-0.308077
-0.275023
-0.262059
-0.253937
-0.245656
-0.227421
-0.254186
-0.320679
-0.306991
-0.223213
-0.0493213
0.239842
0.71914
1.43855
2.2981
2.82783
2.72792
2.24839
1.43919
0.145136
-0.83371
-1.07742
-0.946018
-0.779299
-0.717285
-0.665385
-0.603597
-0.58681
-0.545158
-0.528552
-0.516991
-0.520679
-0.514502
-0.49819
-0.481991
-0.480882
-0.489864
-0.488801
-0.442557
-0.436312
-0.454977
-0.453507
-0.437195
-0.426041
-0.419955
-0.403891
-0.372896
-0.352059
-0.376244
-0.350317
-0.319412
-0.318529
-0.322511
-0.261357
-0.220249
-0.184502
-0.149299
-0.130136
-0.0926018
-0.0379412
0.0227602
0.0903846
0.157715
0.201946
0.199163
0.206606
0.264186
0.312919
0.342851
0.376878
0.400498
0.433891
0.406878
0.394344
0.39681
0.384434
0.381968
0.374367
0.316697
0.303869
0.291086
0.248394
0.225701
0.2181
0.210498
0.15776
0.0850226
0.0823077
0.134638
0.151946
0.119321
0.0966969
0.0539593
0.0159502
0.00273758
0.00959277
0.0115837
0.00346156
-0.0100905
-0.0239366
-0.0127149
-0.0166516
-0.0159502
-0.0354525
-0.035181
-0.0054751
0.00884617
0.017896
0.0165837
0.0249322
0.0478507
0.050362
0.0679186
0.0804073
0.0628055
0.055181
0.0376018
0.0299095
0.0319683
0.0190498
-0.00837103
-0.00497735
0.0148416
0.00683259
0.0120815
0.0214254
0.0383258
0.044819
0.0391629
0.0699095
0.0947964
0.0703394
0.0597964
0.0599095
0.0308824
0.0423077
0.0389819
0.025905
0.0530317
0.0654978
0.0631675
0.0859955
0.0838914
0.01681
-0.0101357
-0.0120135
-0.00893664
-0.0358824
-0.0827828
-0.129661
-0.161584
-0.178575
-0.190633
-0.20767
-0.22457
-0.236425
-0.248394
-0.260339
-0.26224
-0.259253
-0.281154
-0.307873
-0.349548
-0.366244
-0.347624
-0.273914
-0.160023
0.114072
0.508439
1.14314
1.99801
2.68812
2.77357
2.35434
1.67529
0.551222
-0.542805
-0.811606
-1.09025
-0.88371
-0.756991
-0.700339
-0.64871
-0.577127
-0.54552
-0.558891
-0.567421
-0.556086
-0.544796
-0.523597
-0.537285
-0.546041
-0.515
-0.503756
-0.507489
-0.486199
-0.454932
-0.443869
-0.46276
-0.491403
-0.459819
-0.413326
-0.406991
-0.400837
-0.384955
-0.394027
-0.397941
-0.371968
-0.331063
-0.274977
-0.258801
-0.247851
-0.197511
-0.163235
-0.125792
-0.0762443
-0.0305882
0.0138235
0.0555656
0.0891403
0.145814
0.212443
0.239299
0.273846
0.308688
0.327602
0.340928
0.344005
0.336946
0.349796
0.327421
0.324729
0.301968
0.304208
0.306425
0.263688
0.230882
0.223032
0.220068
0.207014
0.209163
0.191448
0.188665
0.175973
0.153235
0.115249
0.11224
0.119163
0.0909728
0.0577602
0.0296833
0.00662896
-0.011448
-0.00970589
-0.0233258
-0.0221041
-0.0109276
-0.0149095
-0.0241629
0.0163348
0.0315158
0.0261991
0.0404751
0.0495023
0.0281901
0.0215158
0.0595475
0.0824434
0.0899095
0.0871267
0.0841855
0.0711312
0.0580317
0.0547964
0.0414253
0.0581222
0.050181
0.0378054
-0.00328055
-0.0375113
-0.00871041
0.014095
0.0300679
0.051629
0.0764253
0.0931222
0.0947059
0.0964027
0.101991
0.0814932
0.0670588
0.0982353
0.129683
0.106584
0.0838688
0.0763348
0.0938235
0.116357
0.113937
0.0715385
0.0292986
0.0271041
0.0248869
-0.0472398
-0.0642986
-0.0814253
-0.133552
-0.165656
-0.182783
-0.189955
-0.22724
-0.24448
-0.236584
-0.243643
-0.225679
-0.252624
-0.284661
-0.261742
-0.258597
-0.315385
-0.351991
-0.293416
-0.164729
0.0691855
0.453303
1.09269
1.98247
2.27249
2.87269
2.46808
1.79373
0.724706
-0.424186
-0.998032
-1.04658
-0.854932
-0.728303
-0.686674
-0.660068
-0.633575
-0.592104
-0.545769
-0.524412
-0.503009
-0.506606
-0.515362
-0.499231
-0.483077
-0.461901
-0.455724
-0.474502
-0.478054
-0.481538
-0.505
-0.488552
-0.457036
-0.435566
-0.419072
-0.402489
-0.366018
-0.37957
-0.383235
-0.352172
-0.311244
-0.295249
-0.284276
-0.273371
-0.232421
-0.196652
-0.186403
-0.161765
-0.0833258
-0.0122398
0.0252036
0.0740272
0.12681
0.171222
0.184072
0.266855
0.324412
0.36957
0.380272
0.369932
0.363643
0.382172
0.39043
0.388439
0.381177
0.373824
0.361244
0.328439
0.300701
0.292986
0.25043
0.22276
0.230045
0.237398
0.224774
0.202104
0.164457
0.136765
0.129005
0.12629
0.0786199
0.0658824
0.0579864
0.0397738
0.0215158
0.0234163
0.0305883
0.0176471
-0.00549772
-0.0087104
0.00300905
-0.0007466
0.010181
0.0307919
0.056086
0.0709502
0.0606561
0.0550453
0.073914
0.0875566
0.0810407
0.0792308
0.0723529
0.0802941
0.0829412
0.055543
0.0780543
0.0903167
0.0624887
0.0449774
0.0432353
0.0326923
0.0139366
-0.0119231
-0.00371043
0.0209502
0.0484163
0.0440271
0.0465384
0.0892307
0.101923
0.0621719
0.0422624
0.0582805
0.0649773
0.0669457
0.0790724
0.0914027
0.0940724
0.0819457
0.0447737
0.0427828
0.0759502
0.0541176
0.0122172
-0.00466067
-0.011448
-0.0382354
-0.0902263
-0.127308
-0.139502
-0.136901
-0.179367
-0.211787
-0.224163
-0.241335
-0.248462
-0.280543
-0.287602
-0.254548
-0.246403
-0.263122
-0.274729
-0.26129
-0.262805
-0.22905
-0.125
0.0492081
0.328462
0.843009
1.66296
2.47317
2.68364
2.31941
1.60043
0.536516
-0.506946
-1.08005
-1.19801
-0.975996
-0.77405
-0.73224
-0.680498
-0.603778
-0.547014
-0.535294
-0.52362
-0.507082
-0.495747
-0.484661
-0.513507
-0.477466
-0.451358
-0.455
-0.458484
-0.441991
-0.435566
-0.439208
-0.432896
-0.406448
-0.379842
-0.383597
-0.367534
-0.301539
-0.270588
-0.27948
-0.338416
-0.35233
-0.346177
-0.330023
-0.313824
-0.277738
-0.222036
-0.16672
-0.147421
-0.0848643
-0.0702037
-0.0145702
0.052828
0.0751583
0.109728
0.16328
0.197375
0.21586
0.25629
0.296606
0.32586
0.329593
0.318009
0.311222
0.273891
0.246357
0.238665
0.240769
0.232715
0.204502
0.186357
0.193507
0.205701
0.202783
0.159842
0.127014
0.114072
0.10095
0.0777375
0.0595701
0.0514253
0.033371
0.000361912
0.00235286
0.0343891
0.0161312
-0.0223304
-0.0306788
0.000882283
0.0120814
0.0131221
0.0190271
0.0447963
0.0601809
0.0802262
0.0999321
0.129389
0.148552
0.157376
0.125792
0.128823
0.151765
0.129502
0.0967873
0.103869
0.111018
0.0981221
0.0950905
0.0921493
0.0693212
0.0367421
0.00966061
0.0234389
0.038552
0.0261312
0.0225112
0.0326696
0.0438008
0.0534162
0.0649547
0.0517646
0.0239592
0.0287329
0.0330994
0.0285519
0.0450225
0.0718325
0.0790497
0.0615158
0.059276
0.0573303
0.0704977
0.0786651
0.1019
0.0751809
0.0533484
0.00662893
-0.0450905
-0.0769005
-0.0888009
-0.100701
-0.127624
-0.149615
-0.191674
-0.233869
-0.206063
-0.18319
-0.180158
-0.191878
-0.248529
-0.240113
-0.241991
-0.274027
-0.301018
-0.31776
-0.284367
-0.205769
-0.111855
0.13233
0.541584
1.19622
2.07606
2.78618
2.82163
2.34215
1.45787
0.233869
-0.739887
-1.15855
-1.12719
-0.915769
-0.774231
-0.687715
-0.666335
-0.559955
-0.513575
-0.48724
-0.461131
-0.455181
-0.419299
-0.418371
-0.467308
-0.491154
-0.470068
-0.42405
-0.433122
-0.442217
-0.416267
-0.375294
-0.374163
-0.3731
-0.376991
-0.37086
-0.364819
-0.383756
-0.352602
-0.306538
-0.295611
-0.294751
-0.253733
-0.232557
-0.206425
-0.200769
-0.165656
-0.126425
-0.0638009
-0.00884613
0.00737558
0.0407919
0.109321
0.16991
0.179095
0.193643
0.289774
0.374955
0.374887
0.374005
0.397715
0.396176
0.374321
0.357127
0.354638
0.341968
0.329186
0.30129
0.283348
0.260588
0.257873
0.23
0.192104
0.174231
0.151131
0.112873
0.0846154
0.0664706
0.0433258
0.0102489
-0.0276697
-0.00554299
-0.0135068
-0.0665837
-0.0797964
-0.063009
-0.0661538
-0.0642534
-0.0676018
-0.056086
-0.0298643
-0.0140498
0.00142533
0.0166516
0.0266516
0.0363575
0.0557692
0.109796
0.133394
0.111787
0.0899321
0.0978959
0.110656
0.0830995
0.085543
0.102851
0.095
0.0521719
0.0341855
0.0213801
0.00400451
-0.00296381
0.00128957
-0.0175113
-0.0382579
-0.0247964
-0.00800908
0.0239819
0.0339819
0.0402036
0.0209502
0.0122171
0.0365837
0.0512669
0.0470362
0.0484615
0.0603846
0.0476018
0.00540723
-0.0165837
0.0216063
0.0549547
0.0583484
0.0169457
-0.0344796
-0.0512217
-0.0281674
-0.0199774
-0.0466063
-0.0783711
-0.105272
-0.127172
-0.188959
-0.195815
-0.217647
-0.244525
-0.261516
-0.268575
-0.260611
-0.262443
-0.274186
-0.270973
-0.27776
-0.304276
-0.295633
-0.186833
-0.0429864
0.166131
0.540339
1.14966
2.00423
2.64405
2.62921
2.14484
1.35581
0.196923
-0.171968
-1.09559
-1.02891
-0.837262
-0.755747
-0.699208
-0.627557
-0.57095
-0.534434
-0.518054
-0.476833
-0.435543
-0.439163
-0.487851
-0.496674
-0.460453
-0.454095
-0.452873
-0.416742
-0.405543
-0.394434
-0.408416
-0.407534
-0.401516
-0.405385
-0.404389
-0.398394
-0.372421
-0.341606
-0.325882
-0.330204
-0.31448
-0.283665
-0.273145
-0.253213
-0.214118
-0.17138
-0.130996
-0.0992308
-0.0711991
-0.0390724
-0.00588237
0.0401584
0.111109
0.192738
0.242421
0.282489
0.301855
0.315407
0.348665
0.356787
0.329706
0.352217
0.349548
0.33681
0.344005
0.321131
0.303303
0.285339
0.237195
0.21405
0.205837
0.167715
0.119593
0.106448
0.123213
0.125068
0.0868778
0.0585068
0.0551131
0.0317873
-0.0115384
-0.0350226
-0.0336878
-0.0473982
-0.0559728
-0.0594796
-0.0681221
-0.0620814
-0.0413348
-0.0208597
-0.0304977
-0.0252488
-0.00531672
0.0141177
0.0381901
0.0520136
0.0653394
0.0583258
0.0609276
0.0883258
0.105339
0.0771719
0.0589819
0.0807919
0.0975792
0.0943213
0.0709955
0.0526471
0.0395023
0.0319683
0.00504524
0.0241855
0.0652489
0.0742081
0.0521946
0.0332127
0.0192308
0.0232126
0.0136652
0.0289819
0.0627602
0.072466
0.0675113
0.0884615
0.0997964
0.0666064
0.0487783
0.0461086
0.0687557
0.0865611
0.0545702
0.00280543
-0.00395928
-0.000950217
-0.0180317
-0.0799548
-0.0918552
-0.0938009
-0.135679
-0.157579
-0.16948
-0.16138
-0.218258
-0.280249
-0.292398
-0.274525
-0.281584
-0.303575
-0.300385
-0.277104
-0.293846
-0.315475
-0.256968
-0.118303
0.0905656
0.40457
0.938756
1.75319
2.58781
2.79758
2.58244
2.0076
0.94819
-0.326063
-1.02025
-1.09416
-0.922805
-0.766471
-0.695272
-0.643959
-0.602557
-0.551154
-0.524548
-0.517986
-0.516471
-0.505023
-0.508597
-0.497172
-0.480792
-0.474525
-0.45319
-0.451855
-0.450701
-0.444593
-0.443348
-0.466991
-0.425656
-0.364434
-0.358348
-0.367308
-0.351176
-0.325204
-0.324367
-0.333552
-0.322851
-0.302036
-0.266041
-0.235181
-0.219728
-0.174321
-0.125181
-0.092647
-0.0527149
0.0187783
0.0620362
0.0845702
0.12362
0.185385
0.246787
0.268552
0.34319
0.383122
0.402059
0.405498
0.403846
0.422059
0.435204
0.418145
0.385747
0.363213
0.375611
0.352873
0.305226
0.27776
0.245317
0.21776
0.205068
0.172285
0.164525
0.141584
0.113575
0.0905883
0.0826697
0.0747964
0.0720362
0.0242986
0.0163801
0.0381448
0.00459277
-0.013914
-0.0172398
-0.0254751
-0.0288462
-0.0274661
-0.0162444
-0.0152036
-0.0146833
-0.00441178
0.0157918
0.0307692
0.0401584
0.0241176
0.0177828
0.0459276
0.0736651
0.0660407
0.05319
0.0602715
0.0472624
0.0393213
0.0364253
0.0233937
0.0202941
-0.00746608
-0.0345023
-0.0255883
-0.0201131
-0.026991
-0.020181
-0.00463801
0.0320588
0.0228507
-0.009095
0.0342534
0.0969005
0.0767195
0.0461538
0.0612443
0.0972625
0.0988914
0.0808371
0.0479864
0.0204751
0.0232353
0.0161086
0.0339819
0.011923
-0.0100453
-0.0219231
-0.0488688
-0.090905
-0.102783
-0.104615
-0.146357
-0.193054
-0.204955
-0.202059
-0.219027
-0.220882
-0.21776
-0.264615
-0.27638
-0.2731
-0.269887
-0.261719
-0.298439
-0.345091
-0.326584
-0.232783
-0.203846
0.0953167
0.439774
1.01943
1.79925
2.53437
2.71964
2.40009
1.81581
0.786697
-0.392149
-0.995815
-1.03912
-0.842262
-0.74543
-0.698643
-0.647036
-0.630385
-0.603733
-0.542036
-0.520385
-0.508959
-0.502625
-0.501086
-0.499344
-0.497851
-0.501697
-0.500611
-0.504321
-0.513009
-0.486629
-0.455181
-0.423801
-0.422421
-0.431109
-0.429887
-0.418597
-0.407466
-0.351448
-0.280407
-0.264502
-0.283507
-0.332489
-0.351584
-0.300634
-0.259932
-0.234887
-0.181041
-0.139208
-0.130317
-0.130362
-0.0334616
0.0385294
0.102647
0.155136
0.183054
0.256063
0.331176
0.346109
0.350023
0.343348
0.361538
0.379548
0.377308
0.364751
0.346968
0.349095
0.321312
0.273462
0.275498
0.287624
0.244751
0.231878
0.263891
0.245701
0.232715
0.165045
0.17724
0.204276
0.15629
0.0934389
0.0755882
0.0726697
0.0495023
0.0161312
-0.00226244
-0.000656106
-0.00395928
-0.0275566
-0.0363801
-0.00527147
0.0206335
0.00619911
-0.00352938
-0.0235068
-0.0288235
0.0153846
0.0342082
0.0428507
0.0761765
0.0842308
0.0670815
0.0595249
0.0717195
0.0837557
0.0807014
0.0626697
0.0645701
0.0613122
0.0230995
0.00531676
-0.00219456
-0.0182353
-0.0276697
-0.0144796
0.00726245
0.0375792
0.0438688
0.043733
0.0860634
0.0939593
0.0716064
0.0565611
0.0513348
0.0670136
0.0731674
0.104593
0.106357
0.113394
0.0806788
0.0532127
0.0759729
0.103891
0.0318779
-0.065181
-0.0422624
-0.00427601
-0.021267
-0.0833484
-0.125543
-0.152783
-0.194864
-0.211855
-0.238801
-0.235769
-0.227738
-0.249796
-0.2669
-0.253937
-0.240701
-0.247217
-0.288733
-0.300362
-0.287104
-0.303846
-0.250498
-0.0969683
0.16681
0.61095
1.27032
2.1598
2.84948
2.83964
2.35498
1.60552
0.436312
-0.657692
-1.12631
-1.09462
-0.857828
-0.736041
-0.709412
-0.667851
-0.621267
-0.549729
-0.523167
-0.526833
-0.535543
-0.514434
-0.498462
-0.517308
-0.510973
-0.484683
-0.478348
-0.4719
-0.47543
-0.478801
-0.462285
-0.450792
-0.424163
-0.412715
-0.406357
-0.405091
-0.378891
-0.357692
-0.346652
-0.350679
-0.349683
-0.303688
-0.272692
-0.266561
-0.245385
-0.209661
-0.154593
-0.100656
-0.068914
-0.0154977
0.0491403
0.081448
0.124842
0.176109
0.221471
0.266946
0.316086
0.36138
0.391833
0.400973
0.38457
0.37776
0.390724
0.393371
0.365815
0.343122
0.335339
0.337511
0.334774
0.282081
0.254548
0.251968
0.229253
0.181629
0.164072
0.156471
0.153643
0.150679
0.14276
0.129977
0.107443
0.064819
0.0371041
0.0442308
0.0161538
-0.00683256
-0.0147738
-0.00314479
0.00303168
-0.0108823
-0.0197964
0.00115388
0.02181
0.0220815
0.0120136
0.0216064
0.0410181
0.0450226
0.0336652
0.0521041
0.0702715
0.0631901
0.0559503
0.0685068
0.0808597
0.0830543
0.0552036
0.032353
0.0594118
0.0569005
0.0251584
-0.000361972
-0.00373303
-0.00900452
-0.0351584
-0.0180769
0.0388914
0.0786652
0.0901131
0.0762896
0.0578054
0.0524887
0.0374434
0.0334163
0.0549774
0.0818326
0.088914
0.091267
0.0689819
0.0969004
0.104819
0.112602
0.0904299
0.0483484
0.0163122
-0.0206787
-0.0476697
-0.0446154
-0.071629
-0.123869
-0.171222
-0.158529
-0.165814
-0.177941
-0.225113
-0.227376
-0.219593
-0.246697
-0.248846
-0.255973
-0.262941
-0.269729
-0.296312
-0.337783
-0.319231
-0.195566
-0.0666742
0.172579
0.637149
1.36699
2.24701
2.78219
2.5526
1.95346
1.05962
-0.0842308
-0.897919
-1.13629
-1.15441
-0.862466
-0.755679
-0.659005
-0.607262
-0.570611
-0.539118
-0.51267
-0.506131
-0.504706
-0.513507
-0.50724
-0.520837
-0.51448
-0.49319
-0.476991
-0.486018
-0.495181
-0.454186
-0.422986
-0.411674
-0.430362
-0.449163
-0.422941
-0.391719
-0.385588
-0.364525
-0.358643
-0.337738
-0.31181
-0.305905
-0.259977
-0.219027
-0.203235
-0.197738
-0.15276
-0.103801
-0.0717195
-0.0527828
0.0021267
0.0758145
0.118235
0.1481
0.182149
0.231878
0.295792
0.341131
0.341131
0.345226
0.363756
0.371946
0.334887
0.322489
0.319887
0.292104
0.269186
0.251041
0.227602
0.244276
0.246199
0.233167
0.230204
0.167172
0.104027
0.0757919
0.0874887
0.0792986
0.0411991
0.0330995
0.0199321
0.0117873
-0.00647059
-0.00970589
0.0121267
0.0240271
0.020724
-0.0078733
-0.0117421
0.0141176
0.00977374
0.0303394
0.0756335
0.0956108
0.100204
0.104593
0.0937104
0.112534
0.135814
0.123756
0.121561
0.149186
0.151606
0.108959
0.066086
0.0630769
0.0649548
0.0616742
0.0535521
0.0361765
0.00947966
-0.00613119
-0.0297059
-0.00484163
0.0441855
0.0506335
0.0161312
0.0190497
0.0730769
0.0820588
0.0524434
0.0319457
0.0365837
0.0725566
0.0739819
0.0459276
0.0731901
0.105814
0.0835747
0.0365158
0.0496606
0.0978054
0.0757919
-0.011086
-0.0330091
-0.025
-0.0319457
-0.0338914
-0.026086
-0.0733937
-0.125543
-0.157602
-0.169661
-0.161833
-0.194208
-0.241538
-0.253756
-0.235973
-0.228054
-0.260136
-0.277104
-0.263959
-0.265611
-0.287172
-0.263597
-0.179796
-0.0458371
0.178371
0.582851
1.28753
2.19738
2.47242
2.74265
2.22312
1.31887
0.0598416
-0.868937
-1.16747
-1.07586
-0.869231
-0.767738
-0.71129
-0.624751
-0.548235
-0.531878
-0.515656
-0.48957
-0.448416
-0.417353
-0.43629
-0.445091
-0.423846
-0.432715
-0.431674
-0.420747
-0.399683
-0.393688
-0.417692
-0.411652
-0.380679
-0.354638
-0.353778
-0.347986
-0.322127
-0.326154
-0.330045
-0.303869
-0.27776
-0.246652
-0.220611
-0.199774
-0.174095
-0.139548
-0.121357
-0.0857692
-0.0339819
0.00947963
0.0521719
0.116629
0.184683
0.222986
0.241018
0.291335
0.306765
0.356086
0.384548
0.387715
0.385769
0.373665
0.336222
0.318439
0.320453
0.337466
0.309457
0.271493
0.27371
0.255905
0.227964
0.19491
0.167036
0.149253
0.10629
0.0581901
0.0550679
0.062172
0.0443665
0.0264932
-0.0163801
-0.0141855
-0.0270814
-0.0653393
-0.0636878
-0.0368099
-0.0599774
-0.0637104
-0.0427828
-0.0319683
-0.0162669
0.0292987
0.0447512
0.0497964
0.0595475
0.0689367
0.0730317
0.09681
0.110136
0.113054
0.115792
0.103235
0.10552
0.0977149
0.0948416
0.0520588
0.0742986
0.0814253
0.0437556
0.011629
0.000135742
-0.0102263
-0.018552
-0.0235973
0.00552036
0.0609502
0.0727376
0.0623078
0.0577603
0.0524888
0.053439
0.0581901
0.0433258
0.0695701
0.0914932
0.0737104
0.0362896
0.0542534
0.0773982
0.0756335
0.033914
0.0323982
0.00613121
-0.0102262
-0.0217647
-0.0132353
0.000181004
-0.041448
-0.138258
-0.155091
-0.146923
-0.168869
-0.195837
-0.222715
-0.199457
-0.196131
-0.232851
-0.264548
-0.276244
-0.282896
-0.27448
-0.305973
-0.297262
-0.228394
-0.199367
0.0697738
0.414186
1.00882
1.85355
2.59335
2.75326
2.38342
1.61396
0.444887
-0.599095
-1.07305
-1.09176
-0.88552
-0.73414
-0.667624
-0.635928
-0.59914
-0.527376
-0.465905
-0.444548
-0.458122
-0.476493
-0.464909
-0.463416
-0.461923
-0.475566
-0.454163
-0.442647
-0.451131
-0.43457
-0.4181
-0.401765
-0.410588
-0.424457
-0.433462
-0.402511
-0.381697
-0.380905
-0.345045
-0.309299
-0.308348
-0.31733
-0.27681
-0.221878
-0.187873
-0.170611
-0.146154
-0.12043
-0.0880543
-0.0859728
-0.0471267
-2.25976e-05
0.0777149
0.15086
0.201154
0.236335
0.325679
0.374412
0.367805
0.37086
0.368801
0.366425
0.373914
0.356335
0.323552
0.320747
0.297873
0.254842
0.236833
0.228778
0.215747
0.187873
0.16
0.167059
0.174027
0.0809502
0.0478959
0.0548417
0.0167421
-0.0313348
-0.0393891
-0.032466
-0.0408371
-0.0643665
-0.0678733
-0.0513801
-0.0551357
-0.0790271
-0.0782353
-0.0475565
-0.0420814
-0.0267873
-0.0166968
0.0329412
0.0569005
0.0605882
0.0590272
0.0671041
0.0747285
0.0669457
0.049095
0.061267
0.0782353
0.0701131
0.0518778
0.0585973
0.0604977
0.0423756
0.0293665
0.0117647
0.00941177
-0.0166516
-0.0460634
-0.0226471
0.029638
0.0705883
0.0823304
0.0822625
0.0787783
0.100204
0.107014
0.0917421
0.106471
0.11733
0.108914
0.0656561
0.0376471
0.0250453
0.0478507
0.0509729
0.0341629
0.0023077
-0.0195928
-0.0415158
-0.0435068
-0.0354525
-0.0774435
-0.139457
-0.171493
-0.203552
-0.230498
-0.252511
-0.22457
-0.211719
-0.203846
-0.216018
-0.233145
-0.230113
-0.262036
-0.278891
-0.325611
-0.317195
-0.23371
-0.10991
0.114005
0.507986
1.14204
2.01124
2.76566
2.83518
2.4548
1.74473
0.504842
-0.664751
-1.12403
-1.09296
-0.901923
-0.775611
-0.694095
-0.622647
-0.596267
-0.564955
-0.508665
-0.482308
-0.47086
-0.494321
-0.487579
-0.460882
-0.474412
-0.472986
-0.456448
-0.444796
-0.443122
-0.446584
-0.435091
-0.428439
-0.427036
-0.415814
-0.414615
-0.388575
-0.367557
-0.376538
-0.345498
-0.289502
-0.268507
-0.267443
-0.251538
-0.221131
-0.176538
-0.168258
-0.13681
-0.0933937
-0.0436199
0.00359729
0.046267
0.0809955
0.139344
0.198213
0.276403
0.346244
0.390747
0.394299
0.407398
0.400498
0.418552
0.426358
0.399027
0.376516
0.364072
0.34672
0.324367
0.3119
0.294412
0.266833
0.259072
0.191403
0.178778
0.211086
0.198303
0.155453
0.132692
0.120023
0.102285
0.0595249
0.0517647
0.0838462
0.060724
0.0075113
-0.0107919
-0.0189819
-0.0122851
-0.015724
-0.0243213
-0.00816742
0.00771493
-0.00167421
-0.00642536
0.0185068
0.0329412
0.0269457
0.0156109
0.0438914
0.0667873
0.0746154
0.0523077
0.0499095
0.0673756
0.0497964
0.0372172
0.0544796
0.0566742
0.0238009
-0.00409503
-0.0366516
-0.00859729
0.0106335
0.0167647
0.015724
0.0137104
0.0452715
0.052172
0.0424208
0.0645702
0.081267
0.077715
0.0421041
0.0716968
0.0923756
0.0886878
0.0903167
0.102285
0.109615
0.107262
0.0952262
0.0534163
-0.00332581
-0.0552941
-0.072353
-0.0692308
-0.0811312
-0.117964
-0.159796
-0.196697
-0.19862
-0.185566
-0.217511
-0.25957
-0.256606
-0.24862
-0.255679
-0.302647
-0.314661
-0.316719
-0.318507
-0.345136
-0.366742
-0.318394
-0.214864
-0.0611538
0.227851
0.662059
1.33658
2.15633
2.73122
2.68133
2.25154
1.4569
0.237557
-0.706425
-1.05998
-0.98819
-0.791312
-0.674661
-0.653009
-0.646312
-0.604548
-0.562715
-0.515905
-0.544276
-0.572873
-0.586493
-0.560091
-0.578733
-0.587285
-0.525747
-0.499118
-0.477715
-0.461425
-0.449864
-0.443303
-0.441629
-0.449977
-0.443439
-0.416946
-0.400611
-0.369299
-0.363009
-0.36681
-0.355792
-0.354774
-0.323665
-0.307534
-0.301742
-0.266674
-0.227738
-0.17052
-0.0865611
-0.0667421
-0.0295249
0.0230996
0.0579412
0.111222
0.174955
0.223258
0.272624
0.307398
0.331199
0.32957
0.337738
0.345701
0.348529
0.321109
0.338484
0.350814
0.343054
0.310339
0.287692
0.300113
0.282534
0.249774
0.247127
0.234434
0.211425
0.178507
0.170701
0.167851
0.154842
0.106923
0.0940272
0.106109
0.103258
0.0504299
0.0125792
-0.000339366
-0.0233484
-0.0266742
-0.000429861
0.0255656
0.0114706
0.00226246
-0.0122851
0.00282808
0.0275566
0.0318326
0.0307693
0.0395023
0.0679638
0.0609276
0.0636652
0.071267
0.0738009
0.101041
0.0979638
0.0647964
0.081629
0.0936199
0.10052
0.0725339
0.0600679
0.0383484
0.00316741
-0.0298643
-0.0248416
0.0140045
0.0356109
0.0820362
0.101538
0.107602
0.0881901
0.0645249
0.0494118
0.0647059
0.111018
0.117941
0.0949547
0.0921267
0.0796606
0.0522851
0.0651584
0.0979864
0.0807919
0.0484615
0.0411765
-0.00117648
-0.0535747
-0.0858145
-0.108032
-0.100204
-0.132308
-0.149389
-0.221493
-0.243597
-0.235747
-0.247851
-0.26
-0.26724
-0.234321
-0.241335
-0.258326
-0.280181
-0.312014
-0.313665
-0.245181
-0.096629
0.167059
0.561018
1.27034
2.17995
2.7795
2.70428
2.2093
1.43957
0.265294
-0.71862
-0.942376
-1.05102
-0.834615
-0.718235
-0.686968
-0.650634
-0.59914
-0.537557
-0.521109
-0.534729
-0.543235
-0.521629
-0.515113
-0.523756
-0.527376
-0.496063
-0.499525
-0.493032
-0.44172
-0.445385
-0.453914
-0.442376
-0.435769
-0.41905
-0.397443
-0.390882
-0.399253
-0.38767
-0.371312
-0.355158
-0.344095
-0.313032
-0.272104
-0.266425
-0.261312
-0.232579
-0.170973
-0.137805
-0.10362
-0.0514253
0.0106108
0.0614027
0.0859276
0.155747
0.214367
0.259593
0.274163
0.29767
0.36095
0.384163
0.387217
0.330181
0.332964
0.360747
0.353439
0.346063
0.298552
0.260973
0.263281
0.24043
0.20767
0.199977
0.197398
0.164774
0.157285
0.154751
0.121991
0.104095
0.0761765
0.0584163
0.0607014
0.0327828
-0.00527149
0.0166742
0.00852942
-0.00954751
-0.0326471
-0.0158824
0.000588238
-0.00321268
-0.00251132
0.0229412
0.0433258
0.0534389
0.0533484
0.0578733
0.0668778
0.0652262
0.0632127
0.0560181
0.0887331
0.121403
0.113891
0.101357
0.0887104
0.0660407
0.0582579
0.0453168
0.0275339
0.0150905
0.0183484
-0.00223982
-0.0209728
0.00877828
0.0626697
0.0743213
0.0958596
0.0953846
0.0614932
0.0472624
0.0536651
0.0692081
0.0842534
0.105204
0.12181
0.10862
0.075724
0.0530769
0.0506561
0.0783937
0.0611539
0.0237783
0.00651585
0.0143439
0.0171267
0.00984162
-0.077353
-0.0745475
-0.051629
-0.0834842
-0.150566
-0.177896
-0.200091
-0.24224
-0.269434
-0.276606
-0.283778
-0.28095
-0.2881
-0.285136
-0.282081
-0.308846
-0.28552
-0.207059
-0.0584615
0.230226
0.689095
1.43321
2.32762
2.79231
2.83229
2.00244
1.18781
0.0483937
-0.795701
-1.14457
-0.988348
-0.747104
-0.665792
-0.649344
-0.642828
-0.601177
-0.544751
-0.533371
-0.536878
-0.53043
-0.519072
-0.537737
-0.546516
-0.510204
-0.498801
-0.502534
-0.49129
-0.469977
-0.498597
-0.507081
-0.475588
-0.454276
-0.428077
-0.412081
-0.411131
-0.385181
-0.354231
-0.363371
-0.367353
-0.366403
-0.325452
-0.309502
-0.27371
-0.218371
-0.148213
-0.144185
-0.16181
-0.127466
-0.0819004
-0.0390497
0.0489593
0.114321
0.168824
0.218756
0.232557
0.238145
0.27862
0.323145
0.347082
0.340453
0.348416
0.356086
0.323507
0.320724
0.317783
0.329932
0.317104
0.259095
0.256154
0.248416
0.200656
0.152919
0.140045
0.146991
0.128959
0.0959502
0.0979186
0.115045
0.0872851
0.0745475
0.0466968
0.0435973
0.055362
0.0370136
0.018733
0.0404978
0.0370588
0.0233258
0.0244118
0.0354299
0.0464027
0.04181
0.0219231
0.0218326
0.0665159
0.110543
0.0892308
0.0825566
0.105588
0.118394
0.120973
0.108326
0.110633
0.0979186
0.0902262
0.0575113
0.0646606
0.0721041
0.0450453
0.0285973
0.0185294
0.0307014
0.0113122
0.00592761
0.0177828
0.0649774
0.0884389
0.0731448
0.0728054
0.073733
0.0883937
0.0887557
0.0903394
0.117466
0.119729
0.0869683
0.0742987
0.0820362
0.0798869
0.0777828
0.0857014
0.0386425
0.0214254
-0.00104073
-0.0484389
-0.0557014
-0.0629638
-0.0852715
-0.137715
-0.180339
-0.183077
-0.180634
-0.178032
-0.165362
-0.177647
-0.179977
-0.212172
-0.234253
-0.251335
-0.248326
-0.270294
-0.297014
-0.248507
-0.134796
-0.100882
0.148281
0.537511
1.2269
2.07149
2.67129
2.64131
2.13174
1.21742
0.0183032
-0.84052
-1.19928
-1.13803
-0.931674
-0.810294
-0.693891
-0.622511
-0.561063
-0.514525
-0.483145
-0.456833
-0.470656
-0.494367
-0.472896
-0.461606
-0.460453
-0.454299
-0.448213
-0.427036
-0.425679
-0.444276
-0.438009
-0.41181
-0.425498
-0.424118
-0.407851
-0.391629
-0.365543
-0.35448
-0.328416
-0.312489
-0.336425
-0.324977
-0.273688
-0.222738
-0.202149
-0.197262
-0.158824
-0.0926697
-0.0300905
-0.021448
0.0454977
0.0839592
0.135385
0.156584
0.183122
0.232941
0.283439
0.303167
0.307036
0.31043
0.323484
0.331109
0.293665
0.266154
0.283507
0.270814
0.237941
0.225045
0.237059
0.209027
0.175973
0.173009
0.190023
0.166946
0.148937
0.0809276
0.0828959
0.0548869
0.0169457
0.00402713
0.0159955
0.0378054
0.00459275
-0.00868781
-0.0221494
-0.0206109
-0.0140272
0.00228505
0.0485294
0.0697059
0.0504751
0.0459728
0.0660181
0.115747
0.125136
0.13914
0.127896
0.111516
0.119909
0.122986
0.130724
0.123371
0.125814
0.113145
0.0853846
0.0775566
0.0596833
0.02181
0.00914026
0.0169457
0.0300453
0.0194344
-0.0293891
-0.0300226
-0.0117647
0.00436649
0.0254524
0.0542534
0.0741176
0.0587329
0.0495927
0.0438687
0.0484388
0.0790271
0.0902262
0.0819909
0.0692081
0.0519457
0.0499321
0.0579186
0.0811312
0.0644118
0.00764706
-0.0142081
0.00884616
-0.00305431
-0.0399548
-0.112014
-0.169095
-0.176199
-0.168439
-0.190724
-0.218032
-0.220543
-0.228077
-0.235543
-0.238009
-0.240226
-0.232217
-0.224118
-0.275995
-0.342851
-0.31457
-0.256109
-0.177443
-0.0136199
0.315339
0.814548
1.58398
2.45385
2.87387
2.58419
1.90962
0.850136
-0.304276
-1.01339
-1.15733
-0.996131
-0.799887
-0.703529
-0.632308
-0.566177
-0.539955
-0.513891
-0.507919
-0.511991
-0.481131
-0.465091
-0.468846
-0.472579
-0.466448
-0.45043
-0.429389
-0.428167
-0.441923
-0.435611
-0.409525
-0.408462
-0.417489
-0.391652
-0.360814
-0.354887
-0.358937
-0.333077
-0.292104
-0.29129
-0.290611
-0.274661
-0.273643
-0.277896
-0.232783
-0.178891
-0.0868326
-0.0426696
-0.0269909
0.00622175
0.0503394
0.0767647
0.127059
0.212602
0.2819
0.307398
0.327398
0.336538
0.34543
0.368665
0.361448
0.338914
0.346131
0.358281
0.330453
0.297624
0.294774
0.281742
0.268643
0.235407
0.217149
0.213982
0.17095
0.132941
0.104842
0.0967647
0.0935747
0.0752489
0.0620362
0.0538914
0.0257466
-0.0274661
-0.0358145
-0.00418551
-0.027647
-0.056086
-0.0696606
-0.0285068
0.00242084
-0.00674206
-0.00119907
0.0390498
0.0638688
0.0683032
0.0774435
0.0912444
0.119683
0.147692
0.150385
0.148054
0.160701
0.128145
0.085362
0.0874661
0.0946381
0.0616517
0.038439
0.045543
0.0479865
0.030905
0.00459281
-0.0103619
0.0122173
-0.00642528
-0.0111312
0.0160634
0.0521494
0.100249
0.113575
0.0717421
0.0719005
0.081629
0.0821268
0.0535521
0.0805656
0.108009
0.0908598
0.0839593
0.0721494
0.0952942
0.093439
0.0167648
-0.0448868
-0.0415836
-0.0432805
-0.0550452
-0.0668778
-0.093733
-0.125611
-0.162647
-0.184842
-0.181923
-0.193982
-0.206176
-0.223394
-0.235588
-0.222692
-0.239774
-0.281719
-0.263643
-0.235453
-0.292014
-0.293303
-0.189457
-0.0305656
0.218484
0.617602
1.27699
2.09658
2.65127
2.46615
1.94631
1.07676
-0.0724208
-0.89638
-1.15023
-1.044
-0.847715
-0.801358
-0.679955
-0.583462
-0.527036
-0.505792
-0.499548
-0.493032
-0.476425
-0.479932
-0.488529
-0.477127
-0.435566
-0.423937
-0.432376
-0.440815
-0.429412
-0.422919
-0.431561
-0.405294
-0.363982
-0.352715
-0.351516
-0.355362
-0.349321
-0.333394
-0.327421
-0.296312
-0.27552
-0.260294
-0.255995
-0.228077
-0.187285
-0.14
-0.121493
-0.109434
-0.0912217
-0.0404525
0.0397511
0.100701
0.175158
0.250362
0.254932
0.258688
0.307262
0.360633
0.398643
0.396357
0.383891
0.371312
0.33371
0.321063
0.298394
0.295633
0.327783
0.269887
0.206946
0.208846
0.210724
0.167466
0.154344
0.151538
0.138869
0.0958597
0.0477375
0.0396832
0.0316742
-0.0015385
-0.0247059
-0.0478507
-0.0761991
-0.0696607
-0.0533258
-0.0570136
-0.0657014
-0.0547738
-0.0492534
-0.0540724
-0.0340046
-0.00411769
0.0203846
0.0244117
0.043009
0.0812669
0.0791402
0.0718099
0.0892534
0.116561
0.138733
0.120701
0.107715
0.0996832
0.131584
0.103529
0.045724
-0.0022172
-0.0350226
-0.0522172
-0.0436425
-0.0038009
0.0330317
0.0428959
0.0566063
0.0680316
0.0736425
0.0519005
0.0313801
0.065724
0.101335
0.100837
0.095905
0.0819683
0.0734163
0.0705656
0.0731221
0.0858597
0.0886878
0.0366968
-0.0152263
-0.027172
-0.0142987
-0.0314932
-0.0836199
-0.135656
-0.142783
-0.149977
-0.162149
-0.224299
-0.226471
-0.218688
-0.23586
-0.247941
-0.249955
-0.251991
-0.259072
-0.291086
-0.312986
-0.314706
-0.271267
-0.177828
0.0107692
0.354457
0.853394
1.61742
2.45658
2.81588
2.58532
2.02489
1.05468
-0.200068
-0.944502
-1.07871
-0.932783
-0.751968
-0.696018
-0.679796
-0.638281
-0.566606
-0.515113
-0.518688
-0.532149
-0.510611
-0.499072
-0.492602
-0.496086
-0.499367
-0.467896
-0.456358
-0.464729
-0.418009
-0.421357
-0.449729
-0.4681
-0.431652
-0.400272
-0.398959
-0.402738
-0.381719
-0.360792
-0.334774
-0.30371
-0.282986
-0.247602
-0.217873
-0.219344
-0.212805
-0.189231
-0.119231
-0.106855
-0.0895475
-0.025181
0.0450452
0.108507
0.151787
0.221855
0.276697
0.320724
0.344299
0.362692
0.400882
0.408824
0.406561
0.38414
0.396923
0.374706
0.35224
0.324502
0.296629
0.288688
0.260724
0.222851
0.215045
0.187262
0.144548
0.141787
0.143959
0.110973
0.0978507
0.0998416
0.0919005
0.0740045
0.0510634
0.0129186
-0.0204072
-0.0138235
0.00271493
0.00418552
-0.0294796
-0.0383937
-0.0175339
0.0181222
0.0235747
0.0185973
0.0381222
0.0671493
0.0708145
0.0542308
0.0574661
0.0652263
0.0626923
0.0750453
0.0923077
0.0844118
0.086448
0.0883937
0.075362
0.0623303
0.024276
0.0161765
0.0334842
0.0112896
-0.00490949
-0.0295022
-0.00183256
0.0295249
0.0397738
0.0466742
0.0577602
0.0764932
0.0658371
0.0545023
0.0697963
0.10457
0.125136
0.0915611
0.073371
0.0553167
0.0526471
0.0852489
0.0830769
0.0409955
-0.00115385
-0.0182353
-0.0302941
-0.0473077
-0.0643665
-0.0715158
-0.153529
-0.175543
-0.197602
-0.229502
-0.241516
-0.24871
-0.226063
-0.258281
-0.295385
-0.287398
-0.254344
-0.271357
-0.318371
-0.355204
-0.311833
-0.233235
-0.0745249
0.184367
0.613303
1.27731
2.07131
2.64561
2.68005
2.25464
2.08957
0.274774
-0.769774
-1.1241
-1.07317
-0.897127
-0.775882
-0.704434
-0.632805
-0.591199
-0.554638
-0.522873
-0.531018
-0.554072
-0.55233
-0.535747
-0.534005
-0.532353
-0.515679
-0.493937
-0.472217
-0.47043
-0.478688
-0.467104
-0.455498
-0.44871
-0.442217
-0.430747
-0.404344
-0.408032
-0.396833
-0.360611
-0.324389
-0.303416
-0.287896
-0.258032
-0.224525
-0.223394
-0.230633
-0.206765
-0.158891
-0.0914253
-0.0417647
0.0119683
0.0865158
0.140158
0.174932
0.224208
0.292738
0.331063
0.339321
0.367398
0.385317
0.40819
0.400905
0.373462
0.360882
0.373122
0.330407
0.317851
0.290204
0.282511
0.284683
0.236878
0.219163
0.216425
0.168643
0.130701
0.132783
0.134977
0.137104
0.11914
0.0911765
0.0832805
0.0552715
0.0420815
-0.00133485
0.010181
0.0118778
-0.0115385
-0.0103846
-0.00457014
0.00101809
-0.00366516
0.00128958
0.0159955
0.015543
0.0243891
0.0227602
0.0307918
0.0485973
0.0560407
0.0682353
0.0705656
0.0727601
0.049819
0.0269457
0.0591855
0.076267
0.0581674
0.04
0.00705881
0.0145475
0.00285067
-0.0075792
-0.010905
0.0238914
0.0473755
0.0535973
0.06
0.069457
0.0982353
0.108891
0.0949321
0.0994796
0.119276
0.110091
0.0815158
0.0532353
0.0903846
0.102828
0.0504751
0.00330316
-0.00882355
0.00895925
0.0166289
-0.050724
-0.063077
-0.0803847
-0.127624
-0.164819
-0.192014
-0.214186
-0.226403
-0.238733
-0.281063
-0.253326
-0.265566
-0.252805
-0.24491
-0.241991
-0.273959
-0.315747
-0.297443
-0.193891
-0.0352036
0.263552
0.75233
1.4862
2.36511
2.61916
2.71346
2.22319
1.34328
0.0886652
-0.810747
-1.07502
-0.959253
-0.783326
-0.737104
-0.705701
-0.644208
-0.612647
-0.596154
-0.55457
-0.527964
-0.506109
-0.499344
-0.512602
-0.525769
-0.523846
-0.527104
-0.520317
-0.498303
-0.491358
-0.484389
-0.477398
-0.440634
-0.433937
-0.47224
-0.465566
-0.423914
-0.382308
-0.370769
-0.374299
-0.347919
-0.311471
-0.295543
-0.300091
-0.275362
-0.221063
-0.19086
-0.164661
-0.126674
-0.073914
-0.0438462
-0.0202263
0.0533258
0.141244
0.201516
0.226674
0.300724
0.354231
0.352579
0.355679
0.353529
0.351086
0.363552
0.386154
0.383846
0.366448
0.364005
0.35138
0.333824
0.316244
0.283643
0.260882
0.243145
0.215475
0.212783
0.220023
0.207127
0.189231
0.166538
0.143891
0.141063
0.0931448
0.080181
0.0871041
0.0638914
0.0406787
0.0323529
0.0237104
0.00477375
0.000701353
0.0266516
0.0474661
0.0478281
0.0378054
0.0373756
0.0466516
0.0655204
0.0589819
0.0570588
0.089819
0.0974435
0.0847738
0.0820589
0.0893665
0.0819005
0.0694797
0.0520136
0.0445249
0.0569457
0.0195249
0.00262444
0.0164932
0.0469005
0.0345928
0.0306335
0.0457919
0.0622625
0.0592534
0.0491176
0.0502036
0.0806787
0.0970588
0.112285
0.117986
0.114502
0.10629
0.0883032
0.0957693
0.123462
0.121267
0.104276
0.0172851
0.0203394
0.0333484
-0.0338235
-0.0711312
-0.0635294
-0.0859276
-0.138371
-0.175905
-0.203484
-0.215995
-0.218416
-0.245656
-0.247873
-0.245271
-0.242715
-0.255023
-0.272081
-0.26905
-0.280928
-0.312624
-0.244208
-0.130701
0.0278959
0.0967195
1.0007
1.88984
2.60421
2.64876
2.14348
1.37335
0.283371
-0.671312
-1.1907
-1.15482
-0.888869
-0.757647
-0.70629
-0.644955
-0.583575
-0.537059
-0.535634
-0.52914
-0.527398
-0.520588
-0.523801
-0.512059
-0.515362
-0.518484
-0.521516
-0.489661
-0.462692
-0.460701
-0.458959
-0.447172
-0.415339
-0.393597
-0.426629
-0.444729
-0.393009
-0.346403
-0.340181
-0.338869
-0.332579
-0.291448
-0.25095
-0.231312
-0.213462
-0.198258
-0.191833
-0.163869
-0.141787
-0.0777828
-0.0103167
0.00760182
0.0654073
0.13552
0.205792
0.270023
0.29362
0.321991
0.365023
0.352805
0.320453
0.322896
0.340317
0.317738
0.300068
0.287421
0.279593
0.271697
0.233756
0.22086
0.217964
0.190045
0.157036
0.138982
0.12086
0.077647
0.0643665
0.0711765
0.0630769
0.0750905
0.0720815
0.0590272
0.0407919
0.00244344
-0.0159276
-0.0242534
-0.0277376
-0.00147058
0.00923077
0.0247964
0.0503394
0.065543
0.0850679
0.0792987
0.0932353
0.131765
0.144955
0.132738
0.115204
0.107602
0.104887
0.102036
0.114186
0.12138
0.103575
0.0907466
0.0630769
0.0453168
0.0523982
0.0450453
0.0184616
-0.00726242
0.0124435
0.0162896
0.00920816
0.0303846
0.0668326
0.086267
0.087172
0.0981448
0.115068
0.104932
0.105
0.111199
0.128009
0.125158
0.112647
0.0754073
0.0883484
0.0814253
0.0445475
0.0225113
0.00536201
0.00814481
0.00083711
-0.0616742
-0.104253
-0.116833
-0.169299
-0.196719
-0.174185
-0.191674
-0.19905
-0.19629
-0.268529
-0.280882
-0.268281
-0.250452
-0.217376
-0.254163
-0.245814
-0.237466
-0.124005
0.0547738
0.438801
1.00292
1.83197
2.62093
2.83505
2.40937
1.63391
0.428801
-0.641176
-1.131
-1.17054
-0.939796
-0.763778
-0.702376
-0.635882
-0.579344
-0.537828
-0.496109
-0.499118
-0.512195
-0.495543
-0.483824
-0.477036
-0.475317
-0.448643
-0.427036
-0.440294
-0.443484
-0.416787
-0.400226
-0.398688
-0.397195
-0.38586
-0.374502
-0.373009
-0.376584
-0.360136
-0.348665
-0.311968
-0.300792
-0.285543
-0.266335
-0.233733
-0.198869
-0.167715
-0.144774
-0.137443
-0.138009
-0.0301584
0.0430996
0.0911086
0.136199
0.181448
0.25095
0.314683
0.332873
0.335882
0.368846
0.37672
0.37457
0.367398
0.360068
0.332647
0.345181
0.352624
0.299977
0.247262
0.219457
0.196471
0.188575
0.180656
0.177624
0.164593
0.106584
0.118643
0.120701
0.0626923
-0.000316717
-0.00839365
0.0085068
0.00540726
-0.0175565
-0.0306561
-0.028914
-0.0223303
-0.0508371
-0.0545022
-0.0183484
0.012353
0.0225792
0.0523982
0.0919005
0.100837
0.0943213
0.0976245
0.110769
0.118778
0.121516
0.103914
0.101199
0.118552
0.105588
0.0926018
0.0897285
0.0770588
0.0496833
0.0173303
0.0201584
0.0332127
0.00187784
-0.033552
-0.0323077
0.00651585
0.0491855
0.0655883
0.0681222
0.103891
0.111244
0.103145
0.120249
0.120362
0.115701
0.112059
0.0441403
0.0465838
0.0744344
0.0624887
-0.0194796
-0.0812895
-0.0531221
-0.0200452
-0.0571267
-0.0892986
-0.0864479
-0.0886651
-0.115882
-0.1631
-0.185385
-0.192715
-0.199796
-0.216765
-0.228937
-0.241199
-0.263213
-0.290068
-0.287036
-0.283959
-0.295679
-0.362376
-0.269027
-0.105588
0.102919
0.446516
1.04527
1.88934
2.60857
2.75776
2.3169
1.57611
0.40086
-0.65414
-1.09894
-1.09351
-0.912692
-0.751584
-0.645226
-0.608756
-0.597172
-0.575385
-0.553643
-0.5369
-0.515068
