ekg
0
-0.00333333
0.004
0.00142857
-0.00111111
-0.00590909
-0.0269231
-0.0426667
-0.0370588
-0.00368422
0.0195238
0.011087
-0.0156
0.0411111
0.0987931
0.124839
0.153788
0.179286
0.226892
0.278077
0.305366
0.325465
0.349111
0.341596
0.307551
0.298725
0.232925
0.176636
0.103772
0.0351695
0.00196721
-0.0172222
-0.0616923
-0.0760448
-0.090942
-0.135775
-0.151438
-0.137467
-0.147987
-0.184177
-0.194815
-0.166747
-0.173412
-0.164828
-0.155843
-0.162253
-0.144247
-0.127368
-0.146546
-0.161818
-0.167624
-0.144029
-0.129762
-0.140514
-0.14578
-0.11536
-0.113805
-0.0999565
-0.101496
-0.113445
-0.125124
-0.112195
-0.07896
-0.0754331
-0.106163
-0.104695
-0.109211
-0.132741
-0.166423
-0.179676
-0.161418
-0.149301
-0.120103
-0.107109
-0.139966
-0.152748
-0.140458
-0.123452
-0.126752
-0.154843
-0.148571
-0.102362
-0.106424
-0.125569
-0.114734
-0.134211
-0.138757
-0.143914
-0.179096
-0.165168
-0.14163
-0.13877
-0.136703
-0.115374
-0.0793122
-0.0636387
-0.0534197
-0.0229744
-0.00708122
0.00454774
0.00738806
0.0369458
0.0368293
0.022343
-0.0112679
-0.00450237
0.0275117
0.0143721
-0.0337327
-0.0417123
-0.0447511
-0.0690272
-0.143348
-0.242647
-0.236719
-0.230634
-0.214457
-0.198439
-0.207511
-0.221244
-0.224502
-0.207805
-0.196154
-0.219276
-0.227036
-0.229548
-0.256991
-0.304389
-0.28181
-0.22405
-0.00122172
0.381538
0.859502
1.5226
2.33552
2.65828
2.03102
0.593348
-0.684615
-1.00799
-0.706742
-0.505679
-0.379683
-0.263914
-0.223213
-0.197443
-0.1269
-0.101629
-0.106335
-0.111063
-0.116018
-0.116131
-0.131199
-0.121493
-0.0918552
-0.0823077
-0.0929638
-0.123575
-0.0941176
-0.0647511
-0.0604977
-0.0561991
-0.0666968
-0.0471719
-0.0376923
-0.04319
-0.0335068
-0.0387557
-0.0390498
-0.0191403
-0.00871039
-0.0179638
0.00273757
0.0484615
0.044095
0.0344344
0.0649095
0.11552
0.146222
0.1569
0.18233
0.222783
0.248326
0.27914
0.350204
0.37129
0.412376
0.428303
0.423756
0.457783
0.481131
0.505249
0.516674
0.500769
0.455136
0.434502
0.430633
0.405294
0.343914
0.276131
0.252873
0.104095
0.0899774
0.075724
0.0564706
0.0271493
-0.0222172
-0.0813575
-0.0953846
-0.109344
-0.148303
-0.15233
-0.161199
-0.155068
-0.129027
-0.138167
-0.157262
-0.166335
-0.160475
-0.159819
-0.159186
-0.14862
-0.123348
-0.103416
-0.138914
-0.159525
-0.155158
-0.115611
-0.0810181
-0.121629
-0.167398
-0.108213
-0.0839593
-0.144751
-0.160792
-0.162014
-0.163348
-0.159932
-0.146878
-0.158869
-0.140656
-0.116629
-0.156176
-0.173778
-0.148416
-0.149412
-0.15414
-0.131833
-0.131086
-0.126199
-0.122851
-0.128145
-0.142647
-0.146561
-0.154661
-0.192443
-0.195023
-0.157127
-0.153756
-0.164955
-0.155905
-0.13681
-0.122534
-0.0832127
-0.0637557
-0.0391177
-0.00427603
0.000475094
0.000271469
0.000339352
0.0105203
-0.00436652
-0.024276
-0.0140724
-0.0137104
-0.0234615
-0.0331674
-0.0477149
-0.0273756
-0.0770815
-0.206697
-0.291244
-0.270815
-0.245317
-0.224751
-0.194072
-0.223326
-0.247466
-0.261403
-0.255317
-0.214231
-0.213054
-0.226697
-0.260272
-0.303733
-0.341855
-0.35491
-0.307783
-0.185611
0.126448
0.248552
1.19086
1.83348
2.3462
2.26871
1.17597
-0.336629
-1.11921
-0.892149
-0.615407
-0.49371
-0.352104
-0.271267
-0.23552
-0.209842
-0.154231
-0.12362
-0.158167
-0.147964
-0.142964
-0.128213
-0.108869
-0.114683
-0.115611
-0.111516
-0.107466
-0.113462
-0.0895702
-0.0908371
-0.0972172
-0.103575
-0.0947738
-0.0558598
-0.0569005
-0.0627828
-0.0336199
-0.0245702
-0.0505883
-0.0463123
-0.0116064
0.00803164
0.0128733
0.0128959
0.0330316
0.063009
0.0928506
0.112715
0.137738
0.167647
0.197557
0.207421
0.247466
0.312738
0.357941
0.36319
0.36862
0.409027
0.433914
0.44276
0.454932
0.465136
0.457489
0.471403
0.454027
0.38043
0.343597
0.326674
0.295204
0.217534
0.119118
0.0600453
0.0455204
0.00579186
-0.0190272
-0.0387557
-0.0484163
-0.0829412
-0.0723756
-0.11181
-0.141222
-0.135656
-0.115068
-0.104548
-0.139299
-0.154027
-0.118643
-0.133326
-0.158122
-0.137941
-0.12767
-0.127647
-0.133439
-0.139638
-0.135475
-0.106222
-0.137014
-0.162624
-0.158394
-0.154344
-0.130543
-0.121878
-0.118054
-0.119321
-0.110747
-0.107308
-0.11414
-0.111222
-0.113552
-0.11086
-0.0927602
-0.0684841
-0.088733
-0.124842
-0.118258
-0.0694344
-0.0409502
-0.0824887
-0.0961086
-0.0533936
-0.0547964
-0.119932
-0.129661
-0.113756
-0.112172
-0.115271
-0.123145
-0.155498
-0.172376
-0.17914
-0.150611
-0.111923
-0.0629638
-0.0336651
-0.0192534
-0.0198416
0.014638
0.0144344
0.0193665
0.0442082
0.0740498
0.068914
0.0338688
0.0188914
0.034276
0.0196606
-0.0252036
-0.02
0.000248864
-0.0245475
-0.0841629
-0.108643
-0.1981
-0.177511
-0.176991
-0.201403
-0.185566
-0.189593
-0.223529
-0.192443
-0.176358
-0.175045
-0.19362
-0.217149
-0.240339
-0.268326
-0.286312
-0.289186
-0.187059
0.0602262
0.432738
0.880294
1.52283
2.28534
2.56299
1.73063
1.33796
-0.884842
-0.98267
-0.675701
-0.504072
-0.367919
-0.257104
-0.191312
-0.155566
-0.134955
-0.129412
-0.133891
-0.118507
-0.113077
-0.117941
-0.112986
-0.108235
-0.108462
-0.0685973
-0.0640045
-0.0896154
-0.085181
-0.0708371
-0.0817647
-0.0827376
-0.0785521
-0.029276
-0.0250679
-0.085905
-0.0816064
-0.0520136
-0.0624208
-0.0580996
-0.0435294
-0.00350682
0.031923
0.0374434
0.0579411
0.0784163
0.0740045
0.089638
0.105181
0.145769
0.186222
0.216719
0.267376
0.283122
0.308801
0.35457
0.370611
0.36681
0.382964
0.433348
0.457195
0.484412
0.47414
0.495679
0.484751
0.404095
0.363394
0.339706
0.284525
0.213235
0.155407
0.101946
0.0734389
0.0294344
-0.0246154
-0.0537104
-0.0528055
-0.0619231
-0.125996
-0.160181
-0.114344
-0.113416
-0.122353
-0.146358
-0.150362
-0.189412
-0.188575
-0.137896
-0.122217
-0.121471
-0.135928
-0.170611
-0.16543
-0.150181
-0.155385
-0.140656
-0.136018
-0.161493
-0.161991
-0.162579
-0.143303
-0.113778
-0.134276
-0.150023
-0.120973
-0.132036
-0.133258
-0.129728
-0.151335
-0.113077
-0.124548
-0.165136
-0.159231
-0.136425
-0.125882
-0.122127
-0.117172
-0.105905
-0.101538
-0.122398
-0.118869
-0.12905
-0.128439
-0.117036
-0.130113
-0.162805
-0.160385
-0.167489
-0.174186
-0.180679
-0.181742
-0.157579
-0.148303
-0.0988235
-0.0842534
-0.094638
-0.0697511
-0.0397737
-0.0147511
-0.00963797
0.0255657
0.0557693
0.0310181
0.0111991
0.0216516
0.0273304
0.00266971
-0.0320135
-0.0617194
-0.0265384
-0.0763122
-0.170837
-0.23509
-0.244344
-0.233778
-0.228054
-0.242014
-0.245928
-0.229932
-0.233914
-0.202579
-0.206041
-0.219525
-0.212783
-0.216018
-0.274186
-0.332149
-0.32509
-0.293054
-0.166041
0.166222
0.57862
1.13615
1.7838
2.32658
2.28921
1.20147
-0.346312
-1.12416
-0.907308
-0.58086
-0.444728
-0.403778
-0.252783
-0.192059
-0.151674
-0.136448
-0.131244
-0.106018
-0.0809502
-0.0811086
-0.0761538
-0.0763575
-0.0667873
-0.102466
-0.108213
-0.069095
-0.0499548
-0.0957919
-0.106606
-0.0423755
-0.0182805
-0.0493212
-0.0902262
-0.0810859
-0.0470588
-0.0278733
-0.0286199
-0.00943436
0.00470591
-0.00106332
-0.0264027
-0.00615384
0.0490724
0.0741403
0.0744118
0.0847059
0.110023
0.120407
0.145634
0.18595
0.236267
0.276425
0.301606
0.336968
0.387489
0.398054
0.378597
0.404163
0.439389
0.473167
0.490181
0.479796
0.431584
0.415611
0.384276
0.386878
0.30129
0.220023
0.17319
0.0950453
0.0514253
0.0224208
-0.016991
-0.0315158
-0.0410407
-0.0606561
-0.0752036
-0.109706
-0.12414
-0.128575
-0.137851
-0.146946
-0.126199
-0.13552
-0.179932
-0.164367
-0.153778
-0.118303
-0.102986
-0.107624
-0.147534
-0.167896
-0.133552
-0.0892534
-0.10509
-0.156018
-0.171923
-0.137783
-0.128597
-0.159457
-0.165181
-0.130928
-0.132195
-0.123529
-0.114774
-0.116357
-0.108213
-0.110091
-0.0921267
-0.0988009
-0.103937
-0.102285
-0.128371
-0.121697
-0.0777828
-0.0592081
-0.0807014
-0.0942081
-0.0962896
-0.0875339
-0.0825113
-0.101923
-0.146176
-0.134638
-0.11767
-0.115271
-0.112692
-0.129638
-0.161312
-0.147624
-0.128643
-0.0945023
-0.0550679
-0.0254525
-0.0158597
-0.0261538
-0.031267
0.0136878
0.0236425
0.0135747
0.0286425
0.0238688
-0.000904981
0.00427601
0.0245249
0.00486424
-0.00470589
-0.0142534
-0.00380091
-0.0233711
-0.0979412
-0.197602
-0.212127
-0.191448
-0.205679
-0.219842
-0.223891
-0.232919
-0.216991
-0.19595
-0.204751
-0.208394
-0.2069
-0.225136
-0.253213
-0.266109
-0.263959
-0.2619
-0.184774
0.122557
0.525091
1.05267
1.68518
2.31251
2.38477
1.48697
-0.0107692
-0.968778
-0.847217
-0.560837
-0.454774
-0.343959
-0.243281
-0.167738
-0.152285
-0.141968
-0.131742
-0.111493
-0.10138
-0.0963801
-0.0964028
-0.106403
-0.0964933
-0.101516
-0.0716064
-0.0619683
-0.0921267
-0.10224
-0.0974435
-0.0727149
-0.0630769
-0.0586425
-0.0593891
-0.0602036
-0.0209955
0.00312216
-0.017896
-0.0340045
-0.0299321
-0.0256787
-0.0265611
-0.0274661
0.0717647
0.0910181
0.065362
0.0797738
0.079276
0.0890724
0.154276
0.199638
0.189615
0.204412
0.25957
0.29491
0.340453
0.376177
0.406991
0.40767
0.418213
0.448665
0.494253
0.505023
0.510815
0.486425
0.451742
0.396041
0.368507
0.263824
0.221403
0.15552
0.0778054
0.0376471
-0.0312217
-0.0588009
-0.0842986
-0.111131
-0.108891
-0.102149
-0.145701
-0.14948
-0.113484
-0.122466
-0.151538
-0.18086
-0.185158
-0.169389
-0.168914
-0.173484
-0.153032
-0.132489
-0.136923
-0.141697
-0.151968
-0.142308
-0.137534
-0.152919
-0.168439
-0.149072
-0.129683
-0.130226
-0.125814
-0.111448
-0.102036
-0.137692
-0.138507
-0.12948
-0.130543
-0.131697
-0.123077
-0.134208
-0.143982
-0.131946
-0.117647
-0.110679
-0.0909955
-0.0860181
-0.0853393
-0.111787
-0.10767
-0.123054
-0.137308
-0.131199
-0.134729
-0.14776
-0.145634
-0.128778
-0.132127
-0.155272
-0.163122
-0.155882
-0.158484
-0.175995
-0.168348
-0.165498
-0.162376
-0.148801
-0.179887
-0.18095
-0.1269
-0.0976245
-0.0831222
-0.0785068
-0.0587783
-0.00891405
0.0310633
0.036267
0.0165158
0.0217194
0.0169231
-0.0128733
-0.0126923
-0.0123982
-0.00694571
-0.0110634
-0.0202941
-0.0247059
-0.0440272
-0.0982806
-0.187534
-0.201448
-0.120045
-0.0838235
-0.162557
-0.230996
-0.274276
-0.277443
-0.28552
-0.278371
-0.256199
-0.229095
-0.2419
-0.269389
-0.2869
-0.284389
-0.202014
0.0451583
0.457195
0.939186
1.5307
2.26706
2.68819
2.14407
0.789729
-0.559932
-0.989683
-0.684548
-0.489548
-0.384502
-0.274502
-0.214638
-0.174796
-0.16491
-0.150045
-0.120226
-0.120475
-0.115792
-0.0710634
-0.0713122
-0.0866064
-0.0968552
-0.122127
-0.122511
-0.112964
-0.11371
-0.119593
-0.100498
-0.086448
-0.0674887
-0.0835747
-0.0846606
-0.0555656
-0.0563575
-0.0722172
-0.0579864
-0.0438009
-0.0395701
-0.0352715
-0.0159276
0.0335747
0.0533937
0.0585068
0.0588009
0.0841855
0.124615
0.149955
0.155226
0.205588
0.280973
0.301131
0.311471
0.346923
0.372308
0.402579
0.393077
0.433643
0.509276
0.564796
0.529819
0.483462
0.470249
0.434774
0.406041
0.349072
0.302172
0.229706
0.158891
0.0973077
0.0658597
0.0329864
-0.0103394
-0.0338688
-0.0476923
-0.0668099
-0.0959955
-0.12
-0.12905
-0.11319
-0.122376
-0.136448
-0.13052
-0.119706
-0.143937
-0.178258
-0.172557
-0.126968
-0.111516
-0.116086
-0.130588
-0.120249
-0.13052
-0.156086
-0.126176
-0.120882
-0.131041
-0.131629
-0.112489
-0.0984163
-0.119434
-0.125543
-0.101652
-0.0926471
-0.11871
-0.105158
-0.106742
-0.103235
-0.0944118
-0.119683
-0.133303
-0.124887
-0.118869
-0.114638
-0.113824
-0.0855882
-0.0785294
-0.0926923
-0.103937
-0.108937
-0.123235
-0.112172
-0.130656
-0.133869
-0.111946
-0.119955
-0.142851
-0.160452
-0.152828
-0.15009
-0.156742
-0.15319
-0.14448
-0.120407
-0.101131
-0.0917873
-0.0373303
0.0023982
0.0122398
0.00717195
0.0121267
0.0422851
0.0624887
0.0227149
0.00300905
0.0334163
0.0238462
-0.000769233
-0.0104072
-0.0149321
-0.0243213
-0.0586652
-0.117919
-0.192036
-0.241063
-0.250158
-0.249208
-0.228054
-0.201742
-0.225407
-0.233846
-0.206968
-0.235023
-0.267964
-0.260701
-0.223484
-0.271244
-0.293914
-0.301335
-0.253529
-0.140588
0.14724
0.55491
1.06751
1.79005
2.49258
2.48984
1.51695
0.0538235
-0.864593
-0.923235
-0.606968
-0.45095
-0.375362
-0.294842
-0.224299
-0.188982
-0.17914
-0.129389
-0.104253
-0.114072
-0.134367
-0.139367
-0.143643
-0.132941
-0.112534
-0.112602
-0.0930317
-0.073371
-0.0736651
-0.10905
-0.129593
-0.0852262
-0.0359955
-0.0619005
-0.112692
-0.0934163
-0.0691403
-0.0547737
-0.0452715
-0.0357466
-0.0112217
0.00830318
0.00807694
0.00828057
0.0638009
0.0745702
0.0552263
0.0658597
0.111561
0.157081
0.187443
0.202941
0.228507
0.29905
0.32457
0.335158
0.36086
0.391652
0.422511
0.463394
0.488778
0.498462
0.496652
0.50276
0.491176
0.471267
0.423982
0.362896
0.337783
0.249389
0.208869
0.162511
0.0748416
0.00676471
-0.00669682
-0.0204525
-0.0793213
-0.108213
-0.107127
-0.096086
-0.120023
-0.143846
-0.147579
-0.131471
-0.155611
-0.174502
-0.148416
-0.127511
-0.146652
-0.17086
-0.160204
-0.129706
-0.13948
-0.154661
-0.140068
-0.125385
-0.130837
-0.14129
-0.14181
-0.142489
-0.138258
-0.133914
-0.149593
-0.160407
-0.126312
-0.102262
-0.133371
-0.149502
-0.125724
-0.102127
-0.113077
-0.122896
-0.116063
-0.127104
-0.139955
-0.114729
-0.104819
-0.114593
-0.121086
-0.141719
-0.162692
-0.147466
-0.101493
-0.115045
-0.138281
-0.11138
-0.0395701
-0.0474661
-0.144796
-0.14181
-0.0486425
-0.130204
-0.286448
-0.272624
-0.233529
-0.164186
-0.0795249
-0.0546606
-0.049819
-0.0347738
-0.0146606
0.0153846
0.0356787
0.0411312
0.0463801
0.0364706
0.0267873
0.00721719
-0.00228507
0.00825792
-0.0111991
-0.015543
-0.0448416
-0.12905
-0.223258
-0.26233
-0.236403
-0.225543
-0.229615
-0.213484
-0.192149
-0.215724
-0.229321
-0.227828
-0.230928
-0.223778
-0.241606
-0.269412
-0.287036
-0.289457
-0.186742
-0.014095
0.303529
0.766312
1.38925
2.12204
2.62971
2.35229
1.04464
-0.433145
-1.07152
-0.880023
-0.578529
-0.462421
-0.356923
-0.28129
-0.20052
-0.155249
-0.140362
-0.135588
-0.135882
-0.131244
-0.131719
-0.137489
-0.103303
-0.129344
-0.135769
-0.1219
-0.122602
-0.113258
-0.0940724
-0.095
-0.0959729
-0.0817647
-0.0822172
-0.112828
-0.0835973
-0.0641403
-0.0245702
-0.0143665
-0.00420816
-0.00400454
-0.0287783
-0.0336878
-0.00846156
0.0370136
0.0225113
0.00273754
0.0128054
0.0979412
0.108258
0.143824
0.184525
0.225271
0.240928
0.260973
0.325068
0.382647
0.397805
0.384887
0.389005
0.427081
0.408801
0.372489
0.386357
0.43052
0.488213
0.435272
0.361787
0.317511
0.267851
0.188439
0.113643
0.0930543
0.0424661
0.00699095
-0.0631448
-0.0879186
-0.0626471
-0.10724
-0.156606
-0.160928
-0.170226
-0.154593
-0.133801
-0.147919
-0.177262
-0.176878
-0.176652
-0.176357
-0.165724
-0.165317
-0.155204
-0.175136
-0.175294
-0.151109
-0.14224
-0.148145
-0.154186
-0.155543
-0.156629
-0.147579
-0.128869
-0.125294
-0.146878
-0.178575
-0.175407
-0.157308
-0.169389
-0.186742
-0.179525
-0.142195
-0.129095
-0.164525
-0.188009
-0.153869
-0.131493
-0.136787
-0.128348
-0.115814
-0.0800679
-0.102036
-0.157896
-0.167308
-0.105905
-0.153643
-0.20086
-0.152511
-0.0988009
-0.0748643
-0.050724
-0.061448
-0.0620588
-0.00271493
0.0216968
0.0466063
0.111425
0.0710633
-0.0042534
-0.0342986
-0.0245023
0.0102941
0.0502036
0.000271503
-0.0895928
-0.0394796
0.0104751
-0.0445701
-0.0795023
-0.219163
-0.208778
-0.213281
-0.212738
-0.197421
-0.237262
-0.257036
-0.236516
-0.205928
-0.185407
-0.174977
-0.189208
-0.253462
-0.292805
-0.297059
-0.290747
-0.174299
0.0522851
0.389163
0.911177
1.58819
2.23016
2.44726
1.66471
1.28219
-0.975475
-1.05817
-0.700656
-0.482873
-0.365362
-0.283213
-0.191176
-0.149389
-0.142941
-0.121765
-0.105656
-0.0899547
-0.094457
-0.0892534
-0.0741403
-0.0990498
-0.134344
-0.125023
-0.100769
-0.0666516
-0.097647
-0.113597
-0.0745249
-0.0255656
-0.011629
-0.0376471
-0.103575
-0.0744118
-0.0152941
-0.0361538
-0.0720136
-0.0228507
0.00649323
-0.0188688
0.0211765
0.086448
0.0416063
0.0316516
0.0817421
0.0969683
0.13224
0.152443
0.18767
0.182873
0.193032
0.233032
0.322851
0.397896
0.398258
0.388982
0.419593
0.459299
0.472398
0.458846
0.453394
0.440181
0.448891
0.396855
0.333733
0.312443
0.25095
0.169661
0.131697
0.0879638
0.0543213
0.0202489
-0.018914
-0.0481448
-0.0675792
-0.0570362
-0.0763122
-0.150498
-0.15448
-0.118122
-0.112059
-0.171335
-0.125656
-0.104977
-0.129208
-0.163281
-0.162647
-0.157398
-0.1519
-0.121267
-0.126086
-0.146199
-0.146878
-0.162262
-0.172647
-0.148122
-0.118824
-0.109457
-0.130045
-0.160611
-0.166176
-0.136765
-0.127398
-0.113258
-0.059638
-0.0413348
-0.128032
-0.144706
-0.155995
-0.156448
-0.12552
-0.102421
-0.0914932
-0.0978507
-0.113371
-0.127466
-0.118439
-0.109661
-0.121357
-0.131606
-0.13095
-0.129774
-0.153122
-0.15095
-0.158529
-0.175905
-0.182919
-0.144525
-0.135724
-0.141719
-0.147511
-0.118077
-0.0785747
-0.044095
-0.0344796
-0.0146833
0.0253846
0.0353394
0.0152489
0.0104299
0.0158145
0.00619909
-0.0135747
-0.0236425
-0.0135294
-0.00812217
-0.0276697
-0.0324661
-0.0470136
-0.101312
-0.19586
-0.250317
-0.224389
-0.19862
-0.197986
-0.207217
-0.21129
-0.215181
-0.24905
-0.237828
-0.206606
-0.180294
-0.153869
-0.192014
-0.219751
-0.282466
-0.290362
-0.113167
0.274344
0.6569
1.06439
1.67683
2.36921
2.57679
1.6993
0.141493
-0.921493
-0.899751
-0.573303
-0.447059
-0.416131
-0.265407
-0.219751
-0.179072
-0.143575
-0.138258
-0.117851
-0.112579
-0.132783
-0.143054
-0.118258
-0.11871
-0.139593
-0.130226
-0.115769
-0.111471
-0.0974661
-0.103462
-0.109525
-0.0906561
-0.0465159
-0.0172851
-0.0331222
-0.0888688
-0.0947511
-0.0757014
-0.0115385
-0.0671493
-0.0972851
-0.0820588
-0.0518552
-0.0268552
-0.00680995
0.0284842
0.0790498
0.109842
0.105588
0.105882
0.136131
0.176357
0.206629
0.247127
0.297738
0.338507
0.369231
0.374683
0.404548
0.408167
0.424955
0.454208
0.460023
0.447919
0.411086
0.378643
0.3631
0.326652
0.270023
0.196991
0.123484
0.0745249
0.0352036
0.000746621
-0.0388009
-0.0683258
-0.0878054
-0.102285
-0.126629
-0.130633
-0.134706
-0.153914
-0.148145
-0.132398
-0.121606
-0.12086
-0.130317
-0.134819
-0.164253
-0.143756
-0.148326
-0.173054
-0.143032
-0.123439
-0.144118
-0.154796
-0.135362
-0.115995
-0.136674
-0.142376
-0.12819
-0.114321
-0.12043
-0.13138
-0.117398
-0.123462
-0.139661
-0.145882
-0.117647
-0.109796
-0.141222
-0.135882
-0.129186
-0.115928
-0.0999095
-0.115882
-0.131154
-0.11052
-0.0921267
-0.103507
-0.129796
-0.129774
-0.109321
-0.10362
-0.127081
-0.175181
-0.167692
-0.149887
-0.161493
-0.15276
-0.123869
-0.114932
-0.095905
-0.0366516
-0.00214931
-0.0124434
-0.0126923
-0.00307693
0.0266063
0.0266063
0.0467195
0.0667647
0.0367421
0.0119909
0.00748868
-0.0120815
0.00307692
0.00816741
0.00832578
-0.0112896
-0.106131
-0.205973
-0.230679
-0.190407
-0.170136
-0.214774
-0.259118
-0.253258
-0.222421
-0.206606
-0.210543
-0.214276
-0.223009
-0.241674
-0.245226
-0.273507
-0.276471
-0.239253
-0.127081
0.155249
0.577647
1.13502
1.89247
2.54505
2.49272
1.50523
-0.0123303
-0.919909
-0.892602
-0.585611
-0.439027
-0.327715
-0.251652
-0.225837
-0.175158
-0.139661
-0.114367
-0.104253
-0.114095
-0.149027
-0.124231
-0.114615
-0.115158
-0.105837
-0.126516
-0.137172
-0.102873
-0.0837556
-0.0947964
-0.100837
-0.0916516
-0.0725339
-0.0735746
-0.0743439
-0.0700226
-0.0458371
-0.0466063
-0.0318778
-0.0316968
-0.0313348
-0.0110407
0.024276
0.0296833
0.0251131
0.0655882
0.101041
0.0914706
0.0669231
0.122308
0.197828
0.213348
0.208846
0.289548
0.350362
0.351199
0.37681
0.426357
0.450362
0.485792
0.468507
0.457828
0.480339
0.500339
0.471561
0.438937
0.407941
0.320566
0.287195
0.163326
0.108756
0.0787783
0.049095
0.019638
-0.00457013
-0.0583937
-0.122195
-0.121222
-0.0754299
-0.0846606
-0.13862
-0.167489
-0.156403
-0.120294
-0.134276
-0.158462
-0.157738
-0.152059
-0.141312
-0.135701
-0.12009
-0.124502
-0.154344
-0.16991
-0.135792
-0.111471
-0.111878
-0.142376
-0.138077
-0.103869
-0.104683
-0.160656
-0.176674
-0.137647
-0.123778
-0.110339
-0.122104
-0.15414
-0.166244
-0.153009
-0.159502
-0.17
-0.143733
-0.120226
-0.128575
-0.139118
-0.119887
-0.125136
-0.137421
-0.159186
-0.155882
-0.145928
-0.165091
-0.163597
-0.151561
-0.159095
-0.161154
-0.147941
-0.129299
-0.155136
-0.160792
-0.106538
-0.0720814
-0.0575113
-0.0225566
-0.00746606
-0.0025113
0.00742082
0.0375792
0.0678054
0.0379638
0.00819005
0.0185068
0.028733
-0.0011086
-0.000904976
0.00943439
-0.0100226
-0.0995249
-0.178959
-0.238416
-0.227964
-0.217353
-0.221538
-0.230814
-0.250136
-0.229299
-0.228235
-0.247172
-0.236267
-0.235181
-0.223778
-0.247262
-0.285814
-0.304344
-0.297692
-0.235656
-0.0231674
0.0746154
0.88233
1.50518
2.25303
2.63584
2.09371
0.746787
-0.600294
-0.977602
-0.715045
-0.482896
-0.350882
-0.204344
-0.102941
-0.136674
-0.175566
-0.209638
-0.233891
-0.203394
-0.163122
-0.1231
-0.108122
-0.138348
-0.158869
-0.129548
-0.115271
-0.125905
-0.106719
-0.0927828
-0.103869
-0.104819
-0.0706109
-0.0713122
-0.0869683
-0.0876697
-0.0283032
0.016086
0.0106787
-0.0293891
-0.054095
-0.0538009
-0.0283258
0.00714933
0.0575339
0.0628054
0.0481448
0.0736652
0.149163
0.189751
0.220362
0.230814
0.191176
0.241765
0.302466
0.333145
0.393778
0.454118
0.483303
0.475815
0.47095
0.498009
0.567059
0.565136
0.496833
0.44552
0.411357
0.370701
0.303529
0.250656
0.227262
0.158303
0.0541855
0.00488688
-0.00957013
-0.0290271
-0.0433937
-0.127647
-0.14681
-0.136018
-0.140158
-0.15414
-0.147964
-0.141742
-0.160724
-0.169774
-0.128733
-0.112647
-0.121719
-0.14586
-0.165023
-0.154299
-0.154072
-0.149253
-0.129728
-0.145158
-0.155566
-0.130995
-0.126538
-0.122262
-0.137964
-0.148733
-0.139615
-0.125407
-0.121335
-0.132398
-0.123778
-0.0504977
-0.0323982
-0.119502
-0.196493
-0.212489
-0.173303
-0.160792
-0.165588
-0.147081
-0.116878
-0.124344
-0.113122
-0.103032
-0.114661
-0.120158
-0.129525
-0.15319
-0.180995
-0.183054
-0.180023
-0.171946
-0.158756
-0.160317
-0.176516
-0.122353
-0.0677602
-0.0329638
-0.0232805
-0.018733
0.00115387
0.0164027
0.0416516
0.0719457
0.0773303
0.052715
0.0280996
0.0136199
0.0192082
0.0247059
-0.0198869
-0.0391855
-0.0483032
-0.0974887
-0.176787
-0.206222
-0.240701
-0.205
-0.184095
-0.213122
-0.242036
-0.240769
-0.219502
-0.223054
-0.236403
-0.229502
-0.217579
-0.250973
-0.279208
-0.282059
-0.244728
-0.157217
0.0855204
0.438439
0.97629
1.64905
2.30706
2.51059
1.72421
0.197443
-0.289661
-1.05679
-0.70405
-0.551652
-0.43448
-0.292466
-0.235815
-0.219638
-0.188665
-0.13276
-0.117081
-0.126538
-0.111652
-0.0869683
-0.0971946
-0.122398
-0.127692
-0.108145
-0.0937557
-0.109502
-0.120181
-0.120679
-0.116131
-0.101516
-0.086991
-0.0825113
-0.0630091
-0.0534389
-0.0484842
-0.0479638
-0.042285
-0.0417194
-0.026086
-0.00542984
0.0102941
0.0260407
0.0316968
0.0223303
0.053077
0.0939593
0.139774
0.175475
0.196697
0.248213
0.28448
0.27543
0.331018
0.400905
0.424163
0.435068
0.433077
0.468009
0.501222
0.496923
0.494118
0.507376
0.492421
0.470837
0.428009
0.364502
0.310611
0.261448
0.202036
0.122398
0.0726244
0.0328054
-0.0215611
-0.0507466
-0.0548416
-0.0437557
-0.0876697
-0.151629
-0.160566
-0.149412
-0.153145
-0.161923
-0.16086
-0.154819
-0.168869
-0.163077
-0.14224
-0.146493
-0.140905
-0.130566
-0.14543
-0.140611
-0.13095
-0.146471
-0.156946
-0.122511
-0.143281
-0.199299
-0.175339
-0.141335
-0.147308
-0.173439
-0.169751
-0.141199
-0.127896
-0.15491
-0.167172
-0.149412
-0.141403
-0.152534
-0.142308
-0.119706
-0.134231
-0.160769
-0.161448
-0.130724
-0.106833
-0.140136
-0.161855
-0.161833
-0.170882
-0.164321
-0.156742
-0.158665
-0.165249
-0.166493
-0.137421
-0.123032
-0.063371
-0.0384389
-0.0483258
-0.0582127
-0.0532579
-0.0132579
0.0269005
0.0370136
0.0121267
0.0123529
0.0175339
-0.00730769
-0.0121493
-0.0219231
-0.0165611
-0.0310181
-0.110498
-0.215068
-0.264683
-0.249163
-0.23862
-0.237986
-0.247195
-0.266403
-0.255588
-0.239842
-0.249095
-0.27319
-0.267149
-0.230973
-0.269615
-0.313167
-0.341538
-0.344683
-0.277805
-0.0807692
0.291493
0.803891
1.45633
2.15882
2.52661
1.9895
0.572443
-0.76957
-1.16165
-0.803801
-0.545973
-0.418371
-0.331086
-0.26405
-0.197195
-0.130588
-0.0993892
-0.103507
-0.147715
-0.132081
-0.116674
-0.146312
-0.141041
-0.111154
-0.101742
-0.0974887
-0.0932353
-0.0790272
-0.0700226
-0.0911991
-0.0873982
-0.0484615
-0.0543665
-0.0800453
-0.0658824
-0.0216742
-0.0273756
-0.038009
-0.0335973
-0.0290272
-0.00438915
0.0355204
0.0509729
0.0763801
0.0814932
0.0916516
0.0819231
0.102059
0.147285
0.187602
0.207964
0.248258
0.298394
0.328665
0.359253
0.409955
0.460611
0.47129
0.506222
0.499457
0.505566
0.504027
0.474208
0.456742
0.430181
0.389389
0.335566
0.31957
0.23776
0.184774
0.126222
0.0820815
0.0675566
0.0130317
-0.0565611
-0.101018
-0.115362
-0.124729
-0.114163
-0.12871
-0.143054
-0.117217
-0.13138
-0.165701
-0.154932
-0.144072
-0.128326
-0.12776
-0.152353
-0.171878
-0.156425
-0.131357
-0.121765
-0.147443
-0.1531
-0.15871
-0.174367
-0.160181
-0.151131
-0.132014
-0.142896
-0.148891
-0.140045
-0.126244
-0.132353
-0.133756
-0.125566
-0.142557
-0.159751
-0.141833
-0.12319
-0.128032
-0.120724
-0.120679
-0.132579
-0.102964
-0.101086
-0.110747
-0.0914027
-0.103891
-0.12991
-0.12991
-0.129276
-0.132986
-0.14629
-0.154095
-0.146403
-0.128213
-0.149796
-0.17138
-0.152624
-0.148665
-0.119796
-0.0805204
-0.0409503
-0.0162896
-0.00647061
-0.00147061
0.0335973
0.0736425
0.0836425
0.0387104
0.00895925
-0.020905
0.00907236
0.00427598
-0.00515841
-0.0347059
-0.0392761
-0.0638688
-0.0935294
-0.163032
-0.247353
-0.256652
-0.245815
-0.23
-0.21905
-0.193122
-0.237217
-0.251177
-0.22991
-0.198484
-0.186923
-0.225158
-0.273281
-0.286267
-0.283982
-0.276471
-0.0889819
0.268665
0.70638
1.28412
2.03686
2.64959
2.42231
1.13493
-0.397805
-1.02579
-0.833665
-0.561878
-0.435407
-0.309208
-0.223167
-0.192127
-0.161493
-0.131199
-0.130995
-0.135815
-0.130747
-0.100634
-0.105611
-0.105837
-0.0961539
-0.0867195
-0.107647
-0.123597
-0.124502
-0.0903846
-0.0663122
-0.0774661
-0.0886652
-0.0846381
-0.0854299
-0.0761086
-0.0668779
-0.0676471
-0.0584616
-0.0342987
-0.025
-0.0304299
-0.0152489
0.000226229
0.010543
0.0257918
0.0412443
0.0666968
0.112127
0.122557
0.162919
0.203281
0.238801
0.274344
0.309864
0.355566
0.38138
0.412081
0.477624
0.502557
0.481154
0.487873
0.512217
0.533597
0.509027
0.437941
0.406041
0.360272
0.318778
0.242647
0.190204
0.146878
0.088009
0.0588461
0.049457
-0.0349095
-0.0691855
-0.0784616
-0.10776
-0.141946
-0.141086
-0.125136
-0.13405
-0.142828
-0.141742
-0.120815
-0.110204
-0.144412
-0.178507
-0.157624
-0.161968
-0.15138
-0.130973
-0.140769
-0.140882
-0.13138
-0.136923
-0.127398
-0.147896
-0.153439
-0.128937
-0.114774
-0.125792
-0.141833
-0.132738
-0.128529
-0.12457
-0.126086
-0.137873
-0.139842
-0.126855
-0.1281
-0.147738
-0.14052
-0.130747
-0.142964
-0.132602
-0.118462
-0.0702489
-0.0740951
-0.125928
-0.142059
-0.131878
-0.136086
-0.149751
-0.168054
-0.136041
-0.133575
-0.160588
-0.17233
-0.158733
-0.159887
-0.155815
-0.116561
-0.0720589
-0.0323304
0.0125791
0.0274208
0.0272398
0.037104
0.0472624
0.0724886
0.062647
0.0277375
0.0128959
-0.00185525
-0.00669687
-0.011448
-0.00610864
-0.0156788
-0.0300905
-0.0794571
-0.193891
-0.268281
-0.237602
-0.211855
-0.241041
-0.245226
-0.239457
-0.228507
-0.227444
-0.241177
-0.254706
-0.238077
-0.236267
-0.269321
-0.29724
-0.290091
-0.23267
-0.0998869
0.187919
0.630611
1.15333
1.79106
2.0088
2.35158
1.42937
0.0671719
-0.880317
-0.947986
-0.635882
-0.459118
-0.357692
-0.271539
-0.21552
-0.189525
-0.168824
-0.128394
-0.0980317
-0.112783
-0.117851
-0.103077
-0.0934616
-0.11405
-0.129615
-0.125181
-0.0857693
-0.0964028
-0.127308
-0.133529
-0.114683
-0.105679
-0.0915159
-0.077353
-0.0782806
-0.078982
-0.0794571
-0.0850001
-0.0655883
-0.0460408
-0.0309503
-0.000497788
0.0249095
0.0503393
0.0507466
0.0361538
0.0515384
0.107036
0.152534
0.192919
0.208348
0.223801
0.224389
0.249977
0.260633
0.34629
0.386833
0.427014
0.445973
0.468348
0.493394
0.52009
0.48862
0.466742
0.463801
0.467805
0.431629
0.366063
0.283982
0.22638
0.14767
0.0984841
0.0790498
0.0345022
-0.0200905
-0.0596154
-0.0889367
-0.092896
-0.101787
-0.110792
-0.139774
-0.128778
-0.12267
-0.116606
-0.125769
-0.145023
-0.114367
-0.123801
-0.143258
-0.152624
-0.162036
-0.161493
-0.151358
-0.146878
-0.147692
-0.153213
-0.153688
-0.139299
-0.105045
-0.100882
-0.116833
-0.122851
-0.128914
-0.130091
-0.136403
-0.13276
-0.119321
-0.111154
-0.143145
-0.159932
-0.141244
-0.136629
-0.130249
-0.101538
-0.0650226
-0.0827149
-0.134005
-0.15948
-0.141244
-0.152376
-0.188937
-0.174005
-0.148303
-0.152127
-0.155249
-0.162828
-0.185158
-0.162217
-0.158665
-0.164638
-0.130543
-0.0962443
-0.0466516
-0.0119457
-0.0273077
-0.0277149
-0.00307692
0.01681
0.0417873
0.0767421
0.08181
0.0420136
0.0170588
0.0371946
0.0474661
-0.0022172
-0.041991
-0.0317421
-0.0114254
-0.0610407
-0.185566
-0.239977
-0.214208
-0.228348
-0.237489
-0.226652
-0.21586
-0.235023
-0.23405
-0.217896
-0.226448
-0.214955
-0.243416
-0.261878
-0.270068
-0.2631
-0.25586
-0.173552
0.103846
0.501357
1.01923
1.71708
2.41002
2.51785
1.65066
0.108462
-0.968688
-1.06595
-0.723507
-0.631425
-0.394638
-0.273167
-0.216991
-0.185973
-0.135385
-0.105113
-0.109887
-0.145023
-0.14543
-0.120928
-0.116357
-0.102059
-0.102828
-0.103439
-0.0889593
-0.0845022
-0.0801584
-0.0656787
-0.0661765
-0.0817195
-0.0822625
-0.0878281
-0.0483258
-0.018371
-0.0280316
-0.0626471
-0.0472851
-0.0469005
-0.0214932
0.00407241
0.0396833
0.0552263
0.0507919
0.0612896
0.106787
0.117285
0.127964
0.158846
0.199842
0.210747
0.236471
0.316448
0.364887
0.366131
0.374661
0.405339
0.423824
0.414095
0.435362
0.452941
0.482443
0.465453
0.472466
0.46905
0.400113
0.335837
0.306403
0.266652
0.171787
0.0969005
0.0671719
0.0176018
-0.0319231
-0.0462217
-0.050362
-0.0546606
-0.0592081
-0.0736199
-0.10267
-0.126538
-0.155362
-0.164208
-0.118348
-0.122986
-0.137738
-0.147172
-0.126946
-0.132421
-0.152715
-0.147308
-0.146629
-0.156516
-0.167014
-0.162534
-0.138122
-0.133891
-0.139728
-0.135656
-0.111833
-0.108032
-0.134434
-0.131086
-0.127805
-0.129774
-0.167014
-0.194593
-0.172285
-0.150023
-0.132557
-0.13905
-0.193891
-0.156538
-0.136131
-0.122534
-0.118303
-0.107964
-0.114412
-0.135407
-0.146584
-0.156018
-0.154796
-0.167308
-0.154027
-0.140611
-0.0921267
-0.0782126
-0.10871
-0.0588914
-0.00404976
0.00585975
-0.0190497
0.0109729
0.0361086
0.006267
-0.00866514
-0.0135972
-0.008371
-0.00803164
-0.0226696
-0.0323755
-0.0422624
-0.0471493
-0.0620135
-0.151719
-0.231312
-0.241267
-0.241561
-0.246652
-0.236493
-0.236154
-0.240475
-0.23957
-0.248529
-0.237715
-0.236968
-0.240928
-0.274796
-0.303756
-0.317647
-0.326516
-0.300294
-0.113937
0.232805
0.724751
1.35165
2.01357
2.47561
2.02281
0.670226
-0.702149
-1.12941
-0.826652
-0.584163
-0.456629
-0.33905
-0.261629
-0.229593
-0.177715
-0.126041
-0.114728
-0.153801
-0.153009
-0.127489
-0.127557
-0.127964
-0.108326
-0.0535972
-0.0589819
-0.119615
-0.135452
-0.111448
-0.102692
-0.0790271
0.00479642
0.0484616
-0.0127601
0.0111539
0.125407
0.0949322
-0.0405429
-0.150905
-0.151176
-0.0712217
-0.0412669
-0.0414027
-0.0111991
0.014276
0.0446833
0.0800226
0.0853168
0.145362
0.190181
0.215158
0.240294
0.280543
0.34586
0.376403
0.391968
0.427285
0.472149
0.500611
0.526878
0.54086
0.51681
0.471765
0.450407
0.39819
0.322783
0.266471
0.224706
0.171493
0.12776
0.0736199
0.0991177
0.114299
0.0695701
-0.0300226
-0.104638
-0.144005
-0.158258
-0.172692
-0.152127
-0.161335
-0.165611
-0.144864
-0.129095
-0.158507
-0.178122
-0.167647
-0.152149
-0.126742
-0.126448
-0.136154
-0.130928
-0.126154
-0.0567421
-0.0174208
-0.0480317
-0.103665
-0.119457
-0.170317
-0.186176
-0.202217
-0.158462
-0.134661
-0.155973
-0.167511
-0.139299
-0.126176
-0.0931448
-0.105249
-0.112466
-0.119186
-0.114412
-0.0973982
-0.0828281
-0.060362
-0.0558824
-0.0985294
-0.117466
-0.132738
-0.119955
-0.0858598
-0.0957014
-0.114842
-0.153258
-0.136154
-0.13362
-0.130724
-0.147466
-0.138846
-0.140249
-0.131561
-0.0525566
0.00658369
-0.00898191
-0.0343213
-0.0143892
0.0255203
0.040181
0.0500226
0.0749547
0.0849547
0.095
0.125317
0.0857466
0.0460181
-0.00839368
-0.0723303
-0.0914706
-0.111244
-0.131652
-0.192059
-0.201968
-0.176855
-0.226765
-0.281493
-0.271131
-0.250679
-0.215045
-0.154434
-0.128597
-0.157511
-0.186312
-0.209955
-0.258348
-0.331493
-0.30957
-0.227624
-0.105543
0.201742
0.634231
1.17695
1.86473
2.0924
2.38
1.47247
-0.0353394
-0.953439
-0.856968
-0.540679
-0.419412
-0.338258
-0.242398
-0.156448
-0.12543
-0.139706
-0.164321
-0.169321
-0.139548
-0.0897738
-0.115226
-0.135724
-0.0963575
-0.132195
-0.153122
-0.119027
-0.0701358
-0.0913349
-0.112466
-0.10371
-0.0899322
-0.0959503
-0.0968779
-0.0878507
-0.0886652
-0.0791855
-0.0945701
-0.0950226
-0.0506788
-0.0360407
-0.0411539
-0.00113125
0.0337783
0.033914
0.0591176
0.104095
0.124027
0.11414
0.119434
0.139932
0.190204
0.265452
0.280882
0.276516
0.33733
0.358258
0.374095
0.389367
0.423077
0.444977
0.439751
0.441833
0.435882
0.393801
0.339819
0.297104
0.235
0.20862
0.181923
0.113507
0.0797511
0.060543
0.0161086
-0.013077
-0.0771494
-0.106425
-0.110769
-0.11
-0.114095
-0.168213
-0.162285
-0.166131
-0.150068
-0.124163
-0.103054
-0.126855
-0.170747
-0.160023
-0.144593
-0.139276
-0.109118
-0.109095
-0.139389
-0.114729
-0.110113
-0.12095
-0.117195
-0.108167
-0.114072
-0.104977
-0.0954978
-0.105792
-0.106357
-0.117353
-0.133801
-0.125724
-0.112851
-0.104751
-0.101403
-0.102511
-0.11733
-0.13543
-0.126267
-0.109095
-0.121086
-0.091991
-0.0721267
-0.0841629
-0.0554073
-0.0664706
-0.121222
-0.145204
-0.138507
-0.136335
-0.138801
-0.12086
-0.147624
-0.139321
-0.130928
-0.147172
-0.112896
-0.0835068
-0.0640724
-0.0243665
0.015362
0.0250452
0.0398642
0.0397511
0.0343212
0.0736425
0.0933032
0.0480995
0.0180317
0.0331222
0.0035294
0.00886875
0.019276
0.00475112
-0.00466064
-0.0840498
-0.18862
-0.233145
-0.222421
-0.226584
-0.215747
-0.184887
-0.183937
-0.192783
-0.216719
-0.225679
-0.18448
-0.183054
-0.226357
-0.264638
-0.287919
-0.300973
-0.263914
-0.141697
0.155633
0.538077
1.00059
1.61814
2.33081
2.57853
1.88102
0.463258
-0.754661
-0.907896
-0.831267
-0.464774
-0.378597
-0.277579
-0.216606
-0.190747
-0.154887
-0.124457
-0.134253
-0.139005
-0.128643
-0.108371
-0.108688
-0.134276
-0.104887
-0.0603846
-0.0758598
-0.136425
-0.157172
-0.128213
-0.129321
-0.125204
-0.110928
-0.101448
-0.0919457
-0.0926923
-0.0582806
-0.00884618
0.0254525
-0.0250226
-0.0201357
0.0152715
-0.00902717
-0.0334842
-0.00305431
0.0625339
0.138054
0.193371
0.16371
0.134208
0.159796
0.160452
0.181063
0.231697
0.272398
0.293371
0.334344
0.380068
0.405339
0.419434
0.426629
0.476584
0.493303
0.431516
0.349027
0.330679
0.334548
0.278258
0.202308
0.164706
0.141312
0.0925113
0.0283032
-0.0209955
-0.0502715
-0.0694797
-0.108756
-0.117919
-0.112059
-0.0760634
-0.025
0.0110407
-0.0529186
-0.0668552
-0.100928
-0.135045
-0.194118
-0.178303
-0.182511
-0.21181
-0.236222
-0.195747
-0.140701
-0.156018
-0.171493
-0.161923
-0.162376
-0.142964
-0.118552
-0.144072
-0.134661
-0.12552
-0.141403
-0.142217
-0.128145
-0.119412
-0.126086
-0.117941
-0.124887
-0.146787
-0.158281
-0.148462
-0.137149
-0.144005
-0.153213
-0.149412
-0.119638
-0.103122
-0.1081
-0.108552
-0.114751
-0.120769
-0.125113
-0.129005
-0.14224
-0.165113
-0.197624
-0.169842
-0.151561
-0.167919
-0.194186
-0.180226
-0.105837
-0.0413122
-0.0418326
-0.0521041
-0.0321041
0.00787329
0.0226697
0.042466
0.0673303
0.0321267
0.00203618
-0.0129186
-0.0178507
0.00726244
-0.00262445
-0.0022172
0.0184389
-0.0257692
-0.0952489
-0.215
-0.269548
-0.22405
-0.208643
-0.243281
-0.23776
-0.206968
-0.200747
-0.21957
-0.228869
-0.237964
-0.226674
-0.245294
-0.278914
-0.332489
-0.320928
-0.284095
-0.162262
0.114638
0.526833
1.05925
1.77199
2.49975
2.63719
1.73428
0.146154
-0.921606
-0.974638
-0.633213
-0.446968
-0.345882
-0.270136
-0.21457
-0.188937
-0.183484
-0.128394
-0.113439
-0.108394
-0.123303
-0.138054
-0.137715
-0.0974434
-0.0827149
-0.09819
-0.118756
-0.11448
-0.120611
-0.111765
-0.0830317
-0.0744796
-0.0611538
-0.0475791
-0.0736199
-0.0847059
-0.0858371
-0.0867873
-0.0477375
-0.018552
-0.0341628
-0.0299321
0.00459279
-0.000271447
0.0250227
0.050181
0.0803168
0.130701
0.146018
0.151244
0.176493
0.206765
0.212081
0.262398
0.317715
0.3481
0.393462
0.424095
0.44457
0.459525
0.448371
0.455498
0.485385
0.47233
0.446131
0.389027
0.360588
0.303326
0.275928
0.199638
0.112104
0.0886651
0.0495475
-0.0248643
-0.0540951
-0.0681675
-0.0923982
-0.106765
-0.115996
-0.135113
-0.154253
-0.138303
-0.122195
-0.141358
-0.155701
-0.150023
-0.149299
-0.148575
-0.177873
-0.182149
-0.176357
-0.165769
-0.100611
-0.110995
-0.146629
-0.152127
-0.112579
-0.0832579
-0.0690272
-0.110023
-0.13129
-0.0575566
-0.078552
-0.165023
-0.166855
-0.118145
-0.0893212
-0.100475
-0.122059
-0.0786878
-0.0699774
-0.120271
-0.158824
-0.170136
-0.143439
-0.113552
-0.0932127
-0.0521493
-0.128371
-0.134502
-0.100995
-0.106063
-0.100317
-0.0790724
-0.107489
-0.175475
-0.168167
-0.110679
-0.122828
-0.154819
-0.161403
-0.162873
-0.133824
-0.0845249
-0.0298869
-0.000203617
-0.015724
-0.0163348
0.0134615
0.0337104
0.0541403
0.0644118
0.0897511
0.0752489
0.045724
0.0410407
0.0362896
0.00658372
0.00685523
-0.00271491
-0.0221946
-0.0117873
-0.0662669
-0.190633
-0.240204
-0.209796
-0.189231
-0.23319
-0.221968
-0.190701
-0.199344
-0.222896
-0.24138
-0.229909
-0.218235
-0.24129
-0.249186
-0.311878
-0.254367
-0.12681
0.115792
0.503371
1.00095
1.65367
2.3514
2.5541
1.73661
0.354072
-0.748688
-0.961629
-0.664955
-0.478643
-0.352421
-0.271425
-0.235792
-0.205317
-0.169864
-0.14948
-0.159208
-0.143982
-0.123937
-0.12414
-0.134434
-0.109842
-0.10052
-0.121403
-0.137195
-0.112964
-0.118891
-0.125068
-0.121176
-0.122195
-0.0980995
-0.0986199
-0.0990497
-0.0847511
-0.0804977
-0.065905
-0.0409502
0.0394571
0.105068
0.0856335
0.016448
0.112104
0.202443
0.0628281
0.00341632
-0.0558823
0.0498643
0.0954299
0.141154
0.196968
0.222647
0.258213
0.30371
0.324276
0.36
0.400204
0.41905
0.430498
0.449208
0.467172
0.460566
0.440158
0.435588
0.397602
0.362353
0.331222
0.308869
0.290837
0.207262
0.16819
0.0388462
-0.0154298
-0.0497738
-0.044095
-0.0132579
-0.0123529
-0.0964479
-0.200475
-0.229344
-0.163258
-0.167195
-0.18595
-0.164819
-0.153982
-0.14819
-0.157489
-0.151855
-0.146154
-0.135566
-0.12509
-0.144683
-0.13448
-0.0947737
-0.0653167
-0.0759502
-0.151697
-0.142579
-0.138348
-0.154027
-0.149932
-0.136063
-0.122443
-0.118846
-0.12509
-0.131471
-0.133054
-0.150136
-0.142285
-0.139095
-0.144864
-0.133869
-0.125928
-0.130249
-0.126357
-0.121674
-0.125769
-0.131222
-0.126719
-0.128213
-0.143416
-0.152602
-0.146041
-0.144005
-0.141674
-0.153914
-0.165611
-0.156946
-0.158122
-0.139072
-0.104864
-0.0704525
-0.0308371
0.00900456
0.0389367
0.0238236
0.0187783
0.0538236
0.0787331
0.058801
0.0439367
0.0290498
0.0093213
-0.0203846
0.00500002
0.0103394
-0.0243665
-0.073914
-0.158348
-0.242511
-0.251357
-0.230181
-0.214344
-0.228077
-0.236471
-0.23052
-0.224864
-0.24448
-0.22371
-0.212805
-0.221674
-0.240158
-0.253529
-0.251765
-0.244887
-0.257851
-0.130633
0.206719
0.664231
1.27172
1.47916
2.49188
2.23986
0.977873
-0.499344
-1.16681
-0.959344
-0.627127
-0.485045
-0.392986
-0.286312
-0.224842
-0.208982
-0.14362
-0.0936651
-0.098733
-0.128462
-0.128348
-0.113778
-0.129706
-0.100882
-0.0869457
-0.103054
-0.0939593
-0.0595701
-0.0552488
-0.0410859
-0.0569457
-0.0727375
-0.0584841
-0.0540724
-0.029276
-0.0392308
-0.053914
-0.0482353
0.00257921
0.0482127
0.0335294
0.0189366
0.0294344
0.0698417
0.095181
0.130588
0.146063
0.121652
0.127353
0.163122
0.208914
0.279683
0.330475
0.340362
0.333529
0.39457
0.432873
0.408077
0.421267
0.42638
0.443122
0.456425
0.466131
0.479366
0.441652
0.403394
0.379525
0.350249
0.285905
0.201222
0.141335
0.0964253
0.0615158
0.0466742
0.00208142
-0.0522398
-0.0765159
-0.0856787
-0.0947964
-0.123914
-0.118077
-0.0920362
-0.130905
-0.14
-0.134163
-0.143371
-0.147805
-0.167443
-0.141923
-0.126403
-0.146109
-0.146018
-0.126335
-0.132059
-0.157919
-0.153778
-0.154661
-0.140588
-0.136742
-0.132964
-0.134276
-0.115769
-0.102353
-0.109027
-0.140701
-0.14267
-0.13991
-0.122308
-0.139864
-0.147624
-0.139864
-0.155588
-0.134299
-0.095362
-0.125611
-0.171335
-0.178054
-0.125453
-0.114525
-0.146358
-0.132127
-0.131357
-0.150023
-0.152828
-0.14957
-0.145656
-0.0914027
-0.0367647
-0.0269005
-0.0719683
-0.0371493
-0.00228509
0.00266966
0.0275339
0.0675792
0.0727602
0.00794116
-0.0368326
-0.0114027
0.0290724
0.0245249
0.0148642
0.0102262
-0.014276
-0.0887783
-0.163167
-0.212715
-0.252308
-0.251946
-0.221425
-0.225814
-0.235339
-0.249955
-0.24448
-0.22371
-0.222647
-0.221403
-0.240362
-0.269548
-0.288688
-0.29233
-0.300656
-0.293869
-0.0869231
0.290204
0.772308
1.38462
2.06206
2.50441
2.0769
0.604502
-0.847851
-1.14514
-0.812353
-0.609548
-0.491923
-0.344457
-0.247104
-0.224955
-0.158009
-0.12138
-0.105113
-0.10414
-0.0985974
-0.118348
-0.143235
-0.113326
-0.0987105
-0.0793666
-0.0950679
-0.0909503
-0.101991
-0.097896
-0.0688914
-0.0695023
-0.0752715
-0.046086
-0.0318552
-0.0428054
-0.0386652
-0.0243439
-0.0296606
-0.0245475
-0.0191177
0.00113119
0.021267
0.0415837
0.0369004
0.0771719
0.0976018
0.123032
0.143326
0.183688
0.214163
0.204661
0.250226
0.295905
0.331516
0.372149
0.402466
0.411697
0.409163
0.414412
0.4269
0.441222
0.438824
0.394547
0.382014
0.380181
0.324412
0.297014
0.288891
0.305226
0.205973
0.0764706
-0.00819005
-0.0679864
-0.0875566
-0.0869004
-0.106199
-0.110747
-0.120226
-0.124548
-0.118824
-0.128054
-0.142172
-0.156199
-0.155588
-0.165091
-0.169434
-0.148733
-0.138122
-0.157489
-0.171833
-0.16638
-0.166357
-0.141652
-0.147172
-0.132986
-0.118824
-0.0945701
-0.0804751
-0.0765837
-0.0878054
-0.114072
-0.155317
-0.161516
-0.102805
-0.0792534
-0.0861539
-0.163281
-0.190543
-0.147919
-0.135543
-0.167443
-0.167738
-0.145905
-0.126471
-0.11414
-0.109864
-0.112489
-0.101833
-0.112896
-0.130452
-0.131425
-0.136176
-0.145317
-0.148665
-0.136154
-0.158281
-0.174977
-0.156335
-0.137443
-0.0784616
-0.029095
-0.0447059
-0.0553394
-0.0156335
0.0343439
0.0343213
0.0441855
0.084095
0.0789366
0.0588688
-0.0360181
0.00414026
0.00438913
-0.0102262
0.0101357
0.0153394
-0.00938914
-0.109005
-0.20371
-0.253394
-0.218009
-0.217557
-0.252104
-0.251584
-0.226063
-0.255249
-0.249389
-0.218462
-0.212511
-0.221403
-0.230136
-0.273891
-0.297466
-0.275882
-0.259072
-0.201968
0.0352489
0.437466
0.914661
1.54686
2.28425
2.63176
1.88921
0.386493
-0.821131
-1.03876
-0.701742
-0.51991
-0.393054
-0.276109
-0.219548
-0.17862
-0.1431
-0.137851
-0.132647
-0.132489
-0.122557
-0.102873
-0.103348
-0.108937
-0.0945249
-0.0801131
-0.0959955
-0.0821041
-0.103281
-0.114638
-0.0859729
-0.0720362
-0.0880996
-0.0992308
-0.0801584
-0.0609502
-0.0668552
-0.0676923
-0.0435068
-0.0388914
-0.0289367
0.00133483
0.0368099
0.0473529
0.0627149
0.0779412
0.0680769
0.0881221
0.103552
0.174208
0.204751
0.229842
0.244932
0.305339
0.350973
0.371652
0.382036
0.416946
0.450792
0.457828
0.442489
0.444005
0.462285
0.479706
0.451719
0.38043
0.363824
0.337579
0.244955
0.186652
0.157805
0.118552
0.0790498
0.0593892
-0.0200452
-0.0443665
-0.0638461
-0.108326
-0.152579
-0.131629
-0.120656
-0.124774
-0.118733
-0.132692
-0.141787
-0.151267
-0.175656
-0.175113
-0.154615
-0.129072
-0.138484
-0.147919
-0.132941
-0.133439
-0.144231
-0.139955
-0.120656
-0.116538
-0.122557
-0.148439
-0.139434
-0.130543
-0.116674
-0.112873
-0.119185
-0.125679
-0.122557
-0.114683
-0.131765
-0.158824
-0.155837
-0.147014
-0.141629
-0.129185
-0.149095
-0.140475
-0.105407
-0.0988235
-0.129163
-0.140068
-0.1269
-0.122217
-0.141697
-0.150407
-0.168394
-0.160905
-0.158032
-0.159864
-0.17138
-0.162489
-0.133348
-0.0840271
-0.059457
-0.0397285
-0.035
-0.0453394
0.00434391
0.039276
0.0543892
0.0842534
0.0739593
0.0339367
0.0443213
0.0397285
-0.0200679
-0.0449321
-0.0195928
-0.00920814
-0.0188688
-0.0984842
-0.158213
-0.203032
-0.232828
-0.242624
-0.212195
-0.206357
-0.225362
-0.20948
-0.233462
-0.257353
-0.235973
-0.209593
-0.233077
-0.256471
-0.289593
-0.327511
-0.26043
-0.133213
0.11914
0.526493
1.04885
1.7362
2.46357
2.65134
1.62925
0.157036
-0.875385
-0.957919
-0.650701
-0.483959
-0.382557
-0.30629
-0.230045
-0.173824
-0.162624
-0.136923
-0.116471
-0.12629
-0.13638
-0.13181
-0.137398
-0.108009
-0.103643
-0.109321
-0.100136
-0.111041
-0.0920814
-0.0782579
-0.0842534
-0.0750905
-0.0808597
-0.101629
-0.072353
-0.0630091
-0.0486878
-0.0292534
-0.0344796
-0.0292534
0.00113124
-0.0035294
-0.00834842
0.0218326
0.0570814
0.0773756
0.0928959
0.123371
0.163801
0.194253
0.204796
0.215339
0.260928
0.311742
0.36767
0.388394
0.433824
0.387941
0.410204
0.430204
0.446991
0.455543
0.428643
0.420543
0.414276
0.3731
0.332534
0.285272
0.241968
0.213258
0.149457
0.0650679
0.0105204
-0.0191176
-0.0536425
-0.0879412
-0.0920814
-0.0613575
-0.050724
-0.119842
-0.14371
-0.107647
-0.0815385
-0.110611
-0.185
-0.20414
-0.168167
-0.132557
-0.157104
-0.171629
-0.161041
-0.145407
-0.115226
-0.0854299
-0.0608145
-0.0263122
-0.0670362
-0.14267
-0.163416
-0.149434
-0.160385
-0.166448
-0.157851
-0.12914
-0.135294
-0.141787
-0.143552
-0.145475
-0.127783
-0.150136
-0.147036
-0.112828
-0.101968
-0.108824
-0.0977376
-0.143439
-0.138439
-0.123213
-0.149638
-0.150747
-0.13224
-0.127308
-0.116471
-0.120023
-0.1581
-0.19552
-0.212421
-0.184005
-0.155249
-0.116176
-0.101991
-0.0726244
-0.0180543
-0.00348415
-0.00377826
0.011086
0.0259955
0.0359502
0.055905
0.0609502
0.0211086
0.00640273
0.0166968
0.0068552
-0.0130769
-0.0128507
-0.00760181
-0.0421267
-0.111584
-0.191131
-0.220679
-0.215158
-0.204638
-0.194118
-0.198416
-0.192489
-0.236584
-0.230679
-0.224661
-0.223462
-0.232081
-0.245701
-0.279389
-0.322692
-0.335679
-0.283439
-0.206131
0.0613801
0.473597
1.00097
1.71351
2.40095
2.49867
1.68133
0.183937
-0.953439
-1.09095
-0.728665
-0.486584
-0.389932
-0.368529
-0.24733
-0.201516
-0.151244
-0.126199
-0.151267
-0.166516
-0.131742
-0.122014
-0.127489
-0.148348
-0.11914
-0.0996606
-0.0700905
-0.0405882
-0.0863801
-0.117285
-0.0981221
-0.088914
-0.069819
-0.0854525
-0.10552
-0.0852036
-0.0597511
-0.0642308
-0.0686651
-0.0278959
-0.0172624
0.0129864
0.0530091
0.0531901
0.0534842
0.103801
0.0991177
0.0946833
0.145362
0.181041
0.181742
0.227217
0.301878
0.326018
0.326674
0.35957
0.364615
0.388235
0.394751
0.422783
0.456629
0.456086
0.458733
0.460453
0.45181
0.41776
0.383484
0.354005
0.284118
0.223914
0.163756
0.113846
0.0639819
0.0292308
-0.0205656
-0.0601357
-0.0644117
-0.0638688
-0.0933936
-0.107964
-0.10733
-0.116561
-0.115656
-0.124796
-0.159072
-0.148462
-0.122941
-0.122511
-0.127149
-0.121787
-0.156357
-0.151267
-0.136719
-0.132557
-0.118348
-0.124231
-0.130204
-0.141267
-0.157489
-0.133801
-0.120407
-0.117104
-0.118801
-0.13052
-0.12276
-0.100226
-0.142851
-0.165814
-0.164005
-0.162127
-0.164977
-0.146538
-0.156267
-0.163688
-0.112986
-0.144208
-0.139887
-0.11905
-0.129819
-0.150498
-0.156606
-0.165928
-0.118914
-0.0962443
-0.118281
-0.11957
-0.0554525
-0.0360633
-0.0465384
-0.0419683
-0.0523303
-0.0125565
0.0423304
0.0571946
0.0169005
-0.00819003
-0.00314478
-0.0179864
-0.0277828
-0.0226697
-0.00257917
0.0226471
0.0228054
-0.0520362
-0.166968
-0.236855
-0.236606
-0.221312
-0.206086
-0.215814
-0.22543
-0.215113
-0.184661
-0.203982
-0.238348
-0.24776
-0.237081
-0.261629
-0.29129
-0.295362
-0.299118
-0.247986
-0.0466968
0.0498416
0.826493
1.47324
2.11511
2.42204
1.78921
0.296493
-0.991176
-1.11371
-0.736154
-0.523575
-0.416063
-0.313597
-0.24629
-0.19905
-0.1419
-0.105249
-0.129186
-0.153416
-0.132783
-0.117624
-0.0930769
-0.113846
-0.12457
-0.0701131
-0.0556335
-0.0313122
-0.061991
-0.0826697
-0.0934389
-0.0792082
-0.0899774
-0.0809503
-0.051991
-0.0429412
-0.0485747
-0.0488688
-0.0588462
-0.018914
0.0310407
0.0361086
-0.00371043
0.0214706
0.0516063
0.0817647
0.111833
0.136923
0.157149
0.182466
0.187783
0.193167
0.298643
0.334231
0.334864
0.364909
0.398688
0.430882
0.440882
0.413032
0.407285
0.410475
0.421968
0.425407
0.403869
0.35767
0.321154
0.267783
0.22371
0.189186
0.134434
0.0847059
0.0399321
-0.00497739
-0.0498416
-0.0594118
-0.0638914
-0.0985294
-0.128167
-0.12267
-0.137059
-0.13638
-0.120611
-0.135
-0.144525
-0.139072
-0.118733
-0.143484
-0.168122
-0.177692
-0.152217
-0.131787
-0.126833
-0.157398
-0.168235
-0.15414
-0.145045
-0.160928
-0.146923
-0.122919
-0.123846
-0.134932
-0.126335
-0.117986
-0.0897059
-0.0464706
-0.0285294
-0.110724
-0.148145
-0.125973
-0.118665
-0.10052
-0.102104
-0.115226
-0.100543
-0.0881222
-0.0993665
-0.103484
-0.084276
-0.0909502
-0.1231
-0.133462
-0.122783
-0.126244
-0.128733
-0.150724
-0.162466
-0.123756
-0.0545023
-0.050181
-0.0710181
-0.0168326
0.0824661
0.102036
0.0516289
0.00615384
0.000904977
0.0059276
-0.00873303
-0.00857466
0.0013801
0.00128961
-0.00866514
0.00110862
0.0259955
0.0312896
-0.0385068
-0.118529
-0.183416
-0.198326
-0.198077
-0.207602
-0.227104
-0.211765
-0.206425
-0.216154
-0.205588
-0.224706
-0.228914
-0.2331
-0.227104
-0.241063
-0.270045
-0.283643
-0.26724
-0.175792
0.0858823
0.442986
0.935113
1.56726
2.22934
2.45649
1.71869
0.230724
-0.917263
-0.995272
-0.908462
-0.506742
-0.365317
-0.263982
-0.217602
-0.171539
-0.135701
-0.125158
-0.135023
-0.135158
-0.135362
-0.110498
-0.105996
-0.146878
-0.132805
-0.0937783
-0.1
-0.106018
-0.102104
-0.0932127
-0.0841177
-0.0749774
-0.0959955
-0.0920589
-0.0782805
-0.0693665
-0.0400226
-0.0404525
-0.0510634
-0.0365837
-0.0218778
-0.0118552
0.00314479
-0.00678732
-0.0117194
0.0531674
0.103258
0.123552
0.128597
0.148643
0.188937
0.189638
0.235068
0.320385
0.340837
0.35638
0.391403
0.400226
0.422127
0.45181
0.453258
0.441516
0.409751
0.412059
0.391267
0.374819
0.35819
0.275294
0.161674
0.117262
0.107647
0.0631222
-0.0216742
-0.0614706
-0.0510633
-0.0356561
-0.045
-0.079095
-0.1031
-0.0972398
-0.0916516
-0.136154
-0.180837
-0.170407
-0.144864
-0.14448
-0.159072
-0.108778
-0.123507
-0.18319
-0.152986
-0.107964
-0.138258
-0.14362
-0.139344
-0.140317
-0.141086
-0.146968
-0.122986
-0.0790724
-0.115249
-0.156561
-0.113009
-0.0996606
-0.116403
-0.123258
-0.115113
-0.0971041
-0.0643891
-0.076991
-0.0994344
-0.160724
-0.130407
-0.118122
-0.1181
-0.120023
-0.106154
-0.0456108
-0.0367647
-0.063371
-0.0804072
-0.106833
-0.101086
-0.129502
-0.177217
-0.164593
-0.166425
-0.147805
-0.103937
-0.0901131
-0.0861086
-0.106878
-0.0623529
-0.00785068
0.00624434
0.000497736
0.0552941
0.0251131
0.0249547
0.0197737
-0.020362
-0.0103394
-0.000271492
-0.0154751
0.00914027
0.00409503
-0.0707014
-0.115498
-0.105294
-0.135339
-0.170407
-0.230362
-0.240317
-0.240158
-0.214842
-0.174434
-0.228937
-0.263439
-0.197896
-0.167534
-0.177308
-0.246765
-0.265837
-0.274661
-0.278326
-0.28681
-0.149751
0.117738
0.529932
1.03213
1.75468
2.44229
2.43962
1.56183
0.0392308
-0.943416
-0.906131
-0.609208
-0.447557
-0.271244
-0.245204
-0.27448
-0.174118
-0.103801
-0.143484
-0.163235
-0.163009
-0.117783
-0.118077
-0.138778
-0.124548
-0.110566
-0.0674887
-0.109593
-0.135792
-0.0917873
-0.0985068
-0.0850679
-0.0702715
-0.0551584
-0.025362
-0.0557919
-0.0661538
-0.116674
-0.0521719
0.00228507
-0.0533032
-0.0485747
-0.00343891
0.0168552
0.0271041
0.0673077
0.0773303
0.117489
0.132896
0.163281
0.148643
0.149005
0.199299
0.284729
0.34043
0.346471
0.34733
0.402873
0.427783
0.412421
0.459457
0.449231
0.431403
0.475498
0.478552
0.420045
0.337805
0.29552
0.24414
0.216425
0.143122
0.0793439
0.0352262
0.0358371
-0.0037104
-0.0534163
-0.0930543
-0.082353
-0.0316742
-0.0510634
-0.130362
-0.139344
-0.148552
-0.13776
-0.136968
-0.161199
-0.160475
-0.120249
-0.0754299
-0.135136
-0.179367
-0.148688
-0.148213
-0.103122
-0.083371
-0.0937557
-0.0844118
-0.0951131
-0.140928
-0.166742
-0.12233
-0.0730769
-0.0642081
-0.0202715
0.028733
-0.00235294
-0.088733
-0.100136
-0.0519005
-0.0738235
-0.181244
-0.243054
-0.168575
-0.142557
-0.184593
-0.178529
-0.109276
-0.0951131
-0.12009
-0.132104
-0.143507
-0.0897059
-0.119615
-0.163575
-0.151606
-0.0946833
-0.0623303
-0.138982
-0.180249
-0.156674
-0.138032
-0.148801
-0.0691629
-0.00466065
0.0147964
0.0744344
0.228959
0.223869
0.0338235
0.0137783
0.173982
0.12414
-0.125724
-0.210407
-0.199932
-0.11948
-0.0892081
-0.0838462
-0.0936425
-0.0783258
-0.0678733
-0.137421
-0.231833
-0.241403
-0.186063
-0.210679
-0.209977
-0.193937
-0.232919
-0.241923
-0.241018
-0.230045
-0.193891
-0.187443
-0.255498
-0.348575
-0.3669
-0.264842
-0.112466
-0.0550453
0.512353
1.01966
1.65197
2.34475
2.55776
1.79048
0.388032
-0.694683
-0.917557
-0.665724
-0.519208
-0.413054
-0.317195
-0.211312
-0.160317
-0.119638
-0.154389
-0.184186
-0.123665
-0.0928959
-0.117557
-0.132738
-0.113032
-0.113552
-0.119163
-0.15491
-0.135792
-0.0166968
0.0575113
-0.0230996
-0.133914
-0.189887
-0.190769
-0.0965611
-0.0519005
-0.056991
-0.0572625
-0.0577149
-0.0329186
-0.00812219
-0.0178507
-0.037353
0.0133258
0.064095
0.0800905
0.0910407
0.0868552
0.0726018
0.143416
0.17457
0.275407
0.275452
0.255475
0.326244
0.397398
0.433507
0.413959
0.428439
0.461561
0.487647
0.465747
0.445317
0.443145
0.383348
0.344751
0.381946
0.261403
0.144842
0.131719
0.127919
0.0939367
-0.0353167
-0.0796606
-0.0487783
-0.0577828
-0.0816968
-0.0405656
-0.0785747
-0.12638
-0.150204
-0.15914
-0.152421
-0.130792
-0.155498
-0.175792
-0.14086
-0.130498
-0.159955
-0.174412
-0.133959
-0.108665
-0.163145
-0.187964
-0.108416
-0.0692534
-0.0697285
-0.1
-0.165362
-0.121109
-0.1019
-0.0525339
-0.083371
-0.124434
-0.14052
-0.166606
-0.107941
-0.049819
-0.137172
-0.154231
-0.140837
-0.152195
-0.0812443
-0.0831674
-0.192104
-0.177873
-0.0879865
-0.0968326
-0.117149
-0.132557
-0.128982
-0.094095
-0.093371
-0.0972172
-0.150498
-0.177805
-0.149638
-0.105973
-0.137308
-0.198733
-0.20448
-0.129842
-0.095362
-0.0805204
-0.0404525
-0.0105656
0.019276
0.0238688
0.0284842
0.0439593
0.0498869
0.0354977
0.0254751
0.0352715
0.0152941
-0.0395249
-0.0742308
-0.0436878
0.00685521
-0.0575792
-0.101946
-0.231425
-0.235769
-0.225068
-0.234344
-0.238597
-0.177738
-0.1769
-0.246086
-0.270181
-0.294005
-0.242647
-0.170656
-0.223733
-0.312014
-0.37
-0.402828
-0.25543
0.0218778
0.329434
0.752195
1.40491
2.18242
2.62995
2.08258
1.78
-0.587624
-1.02493
-0.76276
-0.491109
-0.379706
-0.313507
-0.232376
-0.22181
-0.191652
-0.151403
-0.151131
-0.100747
-0.135136
-0.184796
-0.149751
-0.145091
-0.130611
-0.161244
-0.116923
-0.0727602
-0.113733
-0.129751
-0.140634
-0.136493
-0.127421
-0.0781222
-0.11862
-0.114321
-0.0700227
0.00459273
-0.0206561
-0.0907466
-0.0707693
0.0292534
-0.000226244
-0.044638
0.00104073
0.0615158
0.102014
0.107534
0.0929864
0.11862
0.20448
0.239842
0.290204
0.290837
0.346584
0.382738
0.353891
0.344412
0.40905
0.462376
0.483529
0.516923
0.506855
0.45414
0.403122
0.407398
0.378507
0.272715
0.22086
0.152896
0.119593
0.110724
0.0214706
-0.0330769
-0.0226471
-0.117104
-0.146584
-0.10586
-0.0999321
-0.0788462
-0.0628054
-0.131787
-0.155679
-0.164661
-0.133756
-0.147783
-0.196787
-0.136063
-0.115679
-0.175407
-0.174932
-0.179276
-0.168959
-0.118914
-0.159525
-0.190181
-0.145792
-0.101425
-0.112353
-0.0982805
-0.0992081
-0.135226
-0.126312
-0.137692
-0.178959
-0.164842
-0.141018
-0.137828
-0.105158
-0.122805
-0.124887
-0.165928
-0.175656
-0.133507
-0.0988009
-0.105882
-0.106109
-0.103869
-0.117873
-0.157624
-0.174434
-0.184977
-0.149253
-0.112964
-0.136403
-0.144253
-0.101471
-0.0931901
-0.10948
-0.160498
-0.171312
-0.15224
-0.138122
-0.0786425
-0.0492081
-0.0195928
0.0100905
0.0200679
0.0301131
0.0748869
0.054638
0.0196154
0.0197511
0.00990949
-0.00975114
-0.0197285
-0.0447964
-0.0346154
-0.0242308
-0.059095
-0.10405
-0.178869
-0.243416
-0.238077
-0.207579
-0.191697
-0.235656
-0.25457
-0.263597
-0.242873
-0.232059
-0.205882
-0.219344
-0.262353
-0.29543
-0.313303
-0.316063
-0.289027
-0.0870588
0.285113
0.752443
1.34509
2.10303
2.70095
2.36867
1.2062
-0.301335
-1.03398
-0.822014
-0.545204
-0.42371
-0.327421
-0.301244
-0.24052
-0.16
-0.149389
-0.129231
-0.13448
-0.149683
-0.154661
-0.139706
-0.129955
-0.135452
-0.111063
-0.101878
-0.127692
-0.123756
-0.0851357
-0.0659502
-0.0765837
-0.0925339
-0.0834389
-0.0742986
-0.0599547
-0.0452941
-0.040905
-0.0415158
-0.0465611
0.0139593
0.0745927
0.0752262
0.0257918
0.0161991
0.0566742
0.0821719
0.0674208
0.0777375
0.128258
0.183891
0.219729
0.240407
0.286176
0.301833
0.30776
0.393575
0.458303
0.491222
0.497081
0.460158
0.454977
0.45776
0.427217
0.413009
0.400339
0.409615
0.362511
0.234434
0.156086
0.102285
0.04319
0.0486199
0.0388688
-0.0207014
-0.0652489
-0.0497964
-0.0742987
-0.118462
-0.137443
-0.106448
-0.0853394
-0.0941177
-0.153032
-0.182104
-0.176222
-0.165362
-0.134548
-0.108756
-0.118348
-0.0878733
-0.0571493
-0.106742
-0.116674
-0.0770362
-0.0827828
-0.163439
-0.203914
-0.179434
-0.150226
-0.121154
-0.0822624
-0.0784389
-0.0746154
-0.120701
-0.172014
-0.158643
-0.150633
-0.143009
-0.13052
-0.127873
-0.10948
-0.0895928
-0.132692
-0.153326
-0.140769
-0.125566
-0.1169
-0.0886426
-0.0973982
-0.129502
-0.155543
-0.160339
-0.154276
-0.142285
-0.134751
-0.146742
-0.158235
-0.15448
-0.0955204
-0.0662443
-0.111765
-0.0771493
-0.0174434
-0.0326697
-0.0328733
0.00217194
0.0323529
0.0723529
0.0922624
0.0274434
0.00789591
0.0182579
0.00850678
-0.00615386
-0.0407919
-0.0603394
-0.0398643
-0.069457
-0.14905
-0.22862
-0.262783
-0.246719
-0.230882
-0.230339
-0.234638
-0.248801
-0.232805
-0.231855
-0.250928
-0.269842
-0.278439
-0.256855
-0.275158
-0.288281
-0.35638
-0.28948
-0.017172
0.370385
0.8181
1.43088
2.13355
2.5512
2.17389
0.771538
-0.630815
-1.01819
-0.730453
-0.518009
-0.411199
-0.299683
-0.248575
-0.192692
-0.161742
-0.180747
-0.169977
-0.109502
-0.0890046
-0.133688
-0.143778
-0.129118
-0.144389
-0.124615
-0.114977
-0.115679
-0.106538
-0.112466
-0.123439
-0.129231
-0.0698416
-0.0754977
-0.121018
-0.0864253
-0.0569683
-0.0375113
-0.0178959
-0.0331448
-0.0433258
-0.0182579
-0.00303167
0.00726244
0.0377602
0.0734389
0.0842308
0.09
0.12543
0.150701
0.196131
0.261561
0.286855
0.277217
0.312692
0.353235
0.373937
0.419502
0.468824
0.476222
0.476244
0.497896
0.528529
0.521493
0.488281
0.486584
0.419842
0.313914
0.221584
0.178529
0.149977
0.105995
0.0817421
0.00753393
-0.0516516
-0.0859955
-0.090362
-0.0945249
-0.103733
-0.132896
-0.151968
-0.13595
-0.109751
-0.128416
-0.167421
-0.156493
-0.145611
-0.154796
-0.148982
-0.153416
-0.142986
-0.122443
-0.12224
-0.132489
-0.163054
-0.153597
-0.104118
-0.0897511
-0.13543
-0.126041
-0.13681
-0.142738
-0.128778
-0.114842
-0.131154
-0.137647
-0.144027
-0.140724
-0.132828
-0.130452
-0.137805
-0.129027
-0.128575
-0.131335
-0.131538
-0.113824
-0.0992308
-0.10129
-0.109887
-0.125045
-0.151968
-0.142579
-0.137036
-0.155815
-0.123846
-0.13629
-0.148077
-0.169525
-0.18086
-0.161878
-0.152466
-0.137828
-0.0932579
-0.0585068
-0.0436426
-0.0338688
-0.0139141
0.00117642
0.00626694
0.0263348
0.0465611
0.0367421
0.0218552
0.0223077
0.0226923
0.0278959
0.00819004
-0.00133485
0.00432126
-0.0299095
-0.124186
-0.218733
-0.228213
-0.212624
-0.226968
-0.226086
-0.244977
-0.233688
-0.202376
-0.216041
-0.234638
-0.223032
-0.181154
-0.179434
-0.197624
-0.19052
-0.203281
-0.215792
0.0368552
0.469434
1.00226
1.7502
2.00317
2.5912
1.7243
0.26733
-0.824661
-0.991991
-0.664819
-0.493009
-0.391358
-0.304977
-0.238937
-0.1881
-0.162692
-0.172715
-0.132919
-0.118145
-0.123575
-0.134344
-0.120294
-0.110882
-0.111177
-0.121561
-0.112149
-0.117805
-0.0983937
-0.0940272
-0.109706
-0.0904751
-0.0811086
-0.0862896
-0.0409276
-0.0203167
-0.0299095
-0.0698869
-0.0597285
-0.0191855
-0.0086878
-0.0281674
-0.00751133
0.0428054
0.068009
0.0535068
0.0892534
0.119955
0.115747
0.166697
0.242511
0.287557
0.291063
0.307466
0.315973
0.356584
0.390362
0.435882
0.432579
0.420566
0.465339
0.513665
0.51586
0.512308
0.468303
0.424163
0.369661
0.290068
0.200407
0.155701
0.11086
0.050905
0.0159276
-0.0141629
-0.0440498
-0.0935973
-0.10319
-0.0978281
-0.11724
-0.136516
-0.135769
-0.119955
-0.15914
-0.158281
-0.147602
-0.162059
-0.151403
-0.155679
-0.140204
-0.149887
-0.169434
-0.174005
-0.178846
-0.129299
-0.120226
-0.121403
-0.127602
-0.148846
-0.165136
-0.196697
-0.198348
-0.17
-0.161719
-0.163665
-0.16086
-0.103054
-0.135272
-0.167783
-0.16052
-0.198416
-0.191335
-0.128167
-0.173281
-0.191018
-0.160068
-0.127986
-0.128258
-0.132195
-0.127489
-0.127647
-0.133145
-0.152127
-0.165
-0.137081
-0.10862
-0.089819
-0.0706335
-0.0362443
-0.0319231
-0.0323077
0.00737558
0.0720815
0.0819231
-0.0182805
-0.068552
-0.023552
0.00140273
-0.0238009
-0.0288688
-0.00864254
-0.00855202
0.016448
-0.0184842
-0.108371
-0.208235
-0.262919
-0.227692
-0.172421
-0.19224
-0.226968
-0.201584
-0.251199
-0.270905
-0.205498
-0.184977
-0.23448
-0.274118
-0.278416
-0.302489
-0.341584
-0.305475
-0.124163
0.222353
0.683914
1.33538
1.97697
2.37896
1.99118
0.638529
-0.74414
-1.14676
-0.834299
-0.591697
-0.444005
-0.326131
-0.283439
-0.215995
-0.158778
-0.151991
-0.150814
-0.139977
-0.124615
-0.099638
-0.0645023
-0.0945475
-0.125023
-0.0807919
-0.0566063
-0.0974661
-0.108394
-0.0992534
-0.110068
-0.0909955
-0.081991
-0.0529186
-0.0387331
-0.064638
-0.0804525
-0.0209729
-0.00597286
-0.0458371
-0.0358824
-0.0108824
0.0291402
0.0393665
0.0845927
0.104864
0.100068
0.110113
0.150226
0.180407
0.210633
0.21086
0.241176
0.306719
0.347104
0.352059
0.395362
0.446561
0.462149
0.442828
0.440701
0.47948
0.477919
0.407828
0.411109
0.413937
0.355837
0.302421
0.283439
0.18905
0.17957
0.104887
0.0299095
-0.00502262
-0.0147737
-0.049457
-0.0690271
-0.0635068
-0.0879864
-0.0874208
-0.0966742
-0.135679
-0.109661
-0.084095
-0.143688
-0.143167
-0.0976697
-0.132285
-0.176878
-0.141471
-0.136063
-0.130588
-0.130317
-0.140498
-0.136131
-0.0970588
-0.118032
-0.138914
-0.149638
-0.135453
-0.126448
-0.127851
-0.134412
-0.110747
-0.0821267
-0.0688914
-0.111041
-0.133281
-0.135656
-0.133552
-0.10638
-0.108371
-0.114027
-0.0729412
-0.0790271
-0.112081
-0.108416
-0.0765611
-0.0707918
-0.101176
-0.0881448
-0.078552
-0.102715
-0.150973
-0.158348
-0.150407
-0.157104
-0.14319
-0.098914
-0.0695023
-0.0099095
0.0147964
-0.0554072
-0.0454525
0.0194118
0.0342534
0.0344344
0.0497511
0.0447738
0.00984163
-2.26237e-05
0.0400905
0.0153394
0.000497736
-0.014276
-0.00886877
-0.0185294
-0.0883031
-0.187851
-0.22733
-0.207014
-0.221697
-0.231131
-0.22543
-0.214774
-0.223891
-0.213032
-0.197217
-0.226312
-0.270158
-0.278891
-0.247579
-0.256244
-0.304706
-0.262919
-0.106109
0.230769
0.667919
0.815271
1.86772
2.50029
2.36794
1.29575
-0.151448
-0.869005
-0.741584
-0.54414
-0.481968
-0.349977
-0.253122
-0.231765
-0.200294
-0.144095
-0.123281
-0.132964
-0.127851
-0.132873
-0.117964
-0.113167
-0.123756
-0.124548
-0.115294
-0.111109
-0.111946
-0.127692
-0.108462
-0.0792081
-0.0799548
-0.090905
-0.0718552
-0.0725113
-0.0632579
-0.0539367
-0.044276
-0.0442534
-0.033914
0.0114932
0.0466063
-0.00839365
-0.0230543
0.0422624
0.0824435
0.0976471
0.112986
0.143507
0.178937
0.224548
0.240317
0.246109
0.321742
0.342104
0.337285
0.386403
0.458733
0.479186
0.44181
0.450973
0.449231
0.43095
0.404434
0.352828
0.321674
0.289186
0.236267
0.157421
0.128122
0.113597
0.0338914
-0.0408145
-0.0703167
-0.099819
-0.109072
-0.10319
-0.10276
-0.11233
-0.136448
-0.165452
-0.169525
-0.143552
-0.162579
-0.166719
-0.170995
-0.180204
-0.149457
-0.133869
-0.158529
-0.1681
-0.157602
-0.147443
-0.147896
-0.143439
-0.133982
-0.164706
-0.155543
-0.136448
-0.142308
-0.118213
-0.114186
-0.125271
-0.141697
-0.138416
-0.120249
-0.127059
-0.144095
-0.136516
-0.103891
-0.115747
-0.13138
-0.120158
-0.118348
-0.151833
-0.147579
-0.124095
-0.11552
-0.108258
-0.109299
-0.119751
-0.124163
-0.143054
-0.136109
-0.123462
-0.160407
-0.176878
-0.167896
-0.0936426
-0.0592308
-0.0646833
-0.0702489
-0.0406561
0.019276
0.0641855
0.0440498
0.0190045
0.048914
0.053733
-0.00142536
-0.00644798
0.0385973
0.0486878
0.00395926
-0.0256561
-0.000407264
-0.0100905
-0.0846606
-0.174344
-0.239118
-0.213733
-0.168235
-0.16276
-0.24733
-0.226787
-0.186018
-0.190045
-0.224027
-0.238077
-0.187014
-0.210792
-0.284412
-0.308009
-0.271606
-0.204842
-0.132828
0.104163
0.496358
0.953937
1.57145
2.29878
2.49636
1.75905
0.271606
-0.835905
-0.913733
-0.601765
-0.525
-0.363371
-0.266833
-0.20543
-0.169231
-0.153462
-0.153077
-0.122692
-0.117534
-0.122443
-0.0924887
-0.0827602
-0.118145
-0.128665
-0.114389
-0.110181
-0.115928
-0.126923
-0.107986
-0.083914
-0.0998643
-0.0807014
-0.0414932
-0.0572851
-0.0830769
-0.0788235
-0.0445475
-0.0650905
-0.0453394
-0.0202263
-0.00509053
0.0150679
0.0153394
0.0155882
0.0409728
0.081448
0.126923
0.14733
0.162692
0.188077
0.228462
0.263982
0.29457
0.335475
0.401516
0.42724
0.442217
0.450611
0.471787
0.500385
0.500701
0.433394
0.432014
0.420566
0.385769
0.334367
0.282353
0.224163
0.155543
0.0813801
0.0369005
-0.00273754
-0.0472398
-0.0716968
-0.0511538
-0.0705882
-0.139932
-0.14405
-0.133009
-0.141946
-0.125995
-0.105
-0.124095
-0.133394
-0.117647
-0.126765
-0.175905
-0.180204
-0.149683
-0.154072
-0.168552
-0.133462
-0.113824
-0.13957
-0.120204
-0.0806109
-0.126131
-0.167172
-0.153145
-0.158869
-0.154593
-0.125679
-0.121923
-0.123009
-0.114389
-0.106199
-0.103258
-0.110294
-0.147172
-0.148914
-0.144819
-0.154118
-0.111493
-0.0962444
-0.122783
-0.128552
-0.102647
-0.113552
-0.104706
-0.101267
-0.0962444
-0.125566
-0.188959
-0.19181
-0.16414
-0.151199
-0.142692
-0.173982
-0.15491
-0.150543
-0.116063
-0.0663575
-0.0515158
-0.0467647
-0.0320362
-0.0222398
-0.00737558
0.0276018
0.0376923
0.00285066
-0.0019457
0.00321268
0.00843892
-0.0161991
-0.025905
-0.0256787
-0.0204299
-0.0600226
-0.119796
-0.189593
-0.224253
-0.218552
-0.222783
-0.222104
-0.226448
-0.240701
-0.249751
-0.24871
-0.232602
-0.21638
-0.220249
-0.263846
-0.266968
-0.3
-0.338009
-0.280724
-0.103213
0.249367
0.701923
1.26957
2.01238
2.60027
2.40776
1.32525
-0.147127
-0.894615
-0.772263
-0.500204
-0.388529
-0.302104
-0.245905
-0.199977
-0.154367
-0.128891
-0.133416
-0.142941
-0.13267
-0.12276
-0.113077
-0.13862
-0.139299
-0.119819
-0.0952037
-0.105837
-0.121652
-0.107466
-0.0932806
-0.104208
-0.0950679
-0.090905
-0.0818326
-0.0627602
-0.0535294
-0.0342082
-0.0348869
-0.0401584
-0.00986429
0.0206108
0.0257013
0.0107239
0.00606333
0.0514932
0.0719683
0.0874887
0.127896
0.148394
0.179027
0.209638
0.240204
0.280679
0.331448
0.367398
0.398213
0.433846
0.448439
0.472421
0.462964
0.470633
0.509751
0.507217
0.45724
0.383824
0.341584
0.320339
0.267738
0.244344
0.13552
0.0914479
0.0419231
-0.0177828
-0.0474434
-0.0669683
-0.086267
-0.10052
-0.104864
-0.10414
-0.113371
-0.142647
-0.176787
-0.170792
-0.15491
-0.159072
-0.153258
-0.142421
-0.141742
-0.151154
-0.150633
-0.150045
-0.129615
-0.104457
-0.109751
-0.175226
-0.170633
-0.151176
-0.1469
-0.142738
-0.148597
-0.12448
-0.12052
-0.131629
-0.0877376
-0.108959
-0.180588
-0.172489
-0.139525
-0.141697
-0.168914
-0.170701
-0.156131
-0.149593
-0.145543
-0.148416
-0.103824
-0.0850905
-0.116244
-0.129163
-0.155566
-0.151267
-0.130633
-0.149434
-0.177557
-0.16509
-0.137104
-0.15362
-0.179864
-0.160995
-0.136923
-0.127602
-0.0831448
-0.0234841
-0.00389136
-0.0242986
-0.034457
0.000633501
0.030724
0.0457919
0.0359276
0.0111312
-0.00868779
0.0165158
0.031629
0.0168778
0.0172851
0.0176697
-0.00687783
-0.0765385
-0.161154
-0.245543
-0.19991
-0.169276
-0.243665
-0.258122
-0.237353
-0.241561
-0.215815
-0.224887
-0.243756
-0.232579
-0.226222
-0.239706
-0.303077
-0.336244
-0.314276
-0.232127
0.0102941
0.11276
0.860249
1.51778
2.29534
2.67796
2.12577
0.688462
-0.699186
-0.976968
-0.674796
-0.467919
-0.356199
-0.289909
-0.218914
-0.158281
-0.162941
-0.157602
-0.157353
-0.152172
-0.126946
-0.126787
-0.12681
-0.102081
-0.0976018
-0.118394
-0.129276
-0.125113
-0.116063
-0.117104
-0.108303
-0.0995249
-0.0855656
-0.0964706
-0.102421
-0.103371
-0.0742308
-0.0698869
-0.0806335
-0.0563349
-0.01681
0.0028733
-0.00678732
-0.0116063
0.0236878
0.0540724
0.0693213
0.0898416
0.135339
0.190498
0.185679
0.176018
0.241335
0.321652
0.372104
0.387738
0.398439
0.459072
0.499095
0.492896
0.484774
0.499027
0.509864
0.462489
0.425249
0.40276
0.332104
0.260294
0.193643
0.130837
0.0972625
0.0680317
0.0135521
-0.0309502
-0.050543
-0.0850678
-0.0942986
-0.0934841
-0.127896
-0.157308
-0.166606
-0.175814
-0.174864
-0.173959
-0.178281
-0.172715
-0.147014
-0.16629
-0.180656
-0.165023
-0.159457
-0.13405
-0.148982
-0.169389
-0.145226
-0.140882
-0.151312
-0.142081
-0.148054
-0.134072
-0.110158
-0.111176
-0.137285
-0.118507
-0.129751
-0.136154
-0.12276
-0.119774
-0.117127
-0.129548
-0.156697
-0.152873
-0.133869
-0.146652
-0.131606
-0.0881674
-0.108054
-0.115611
-0.109819
-0.130385
-0.152285
-0.147873
-0.142557
-0.161697
-0.145181
-0.118054
-0.115475
-0.147647
-0.149367
-0.155792
-0.181991
-0.172873
-0.133575
-0.089095
-0.0644344
-0.0397285
-0.015
-0.0102715
0.00954751
0.0343891
0.079276
0.0842534
0.0342986
0.00429864
0.0142534
0.0342986
0.0394118
-0.010362
-0.0552036
-0.0600905
-0.089819
-0.119412
-0.258982
-0.228462
-0.228009
-0.242511
-0.221855
-0.236199
-0.250543
-0.244615
-0.238416
-0.237308
-0.231222
-0.254774
-0.283077
-0.306222
-0.314276
-0.297285
-0.170068
0.137285
0.574751
1.1224
1.87016
2.56303
2.54593
1.52376
1.10631
-0.871448
-0.889412
-0.602715
-0.446448
-0.325475
-0.24957
-0.218914
-0.188484
-0.158122
-0.162873
-0.152692
-0.122534
-0.132602
-0.122896
-0.113281
-0.133891
-0.134547
-0.110385
-0.106403
-0.112443
-0.103371
-0.0995249
-0.100724
-0.0866516
-0.0775792
-0.0734615
-0.0543438
-0.0452489
-0.0410407
-0.0617195
-0.0624887
-0.0330543
-0.00321266
0.0070362
0.0174887
0.0279638
0.0333937
0.0488688
0.0892534
0.119593
0.145113
0.185611
0.221041
0.241357
0.266697
0.32733
0.363213
0.393982
0.419661
0.43009
0.464231
0.491448
0.501335
0.508077
0.506403
0.498665
0.479864
0.397805
0.336018
0.300091
0.24276
0.149548
0.085724
0.0414027
-0.00312218
-0.0428959
-0.0826245
-0.0971493
-0.101538
-0.125747
-0.135023
-0.149321
-0.143326
-0.15224
-0.161109
-0.165158
-0.139321
-0.138484
-0.162715
-0.176991
-0.171041
-0.150271
-0.149909
-0.159593
-0.149389
-0.134299
-0.164977
-0.155656
-0.131335
-0.137104
-0.12276
-0.103643
-0.119729
-0.125769
-0.111946
-0.118258
-0.134593
-0.111018
-0.0976245
-0.104638
-0.106991
-0.0992082
-0.0909729
-0.121991
-0.166154
-0.16767
-0.165882
-0.196131
-0.196674
-0.147014
-0.139344
-0.175679
-0.177081
-0.152308
-0.126833
-0.145181
-0.147964
-0.145317
-0.152262
-0.163869
-0.160249
-0.156335
-0.142081
-0.122738
-0.1131
-0.0732353
-0.0634389
-0.0236651
0.0112444
0.0212896
0.0213349
0.0514027
0.0465385
0.00169683
0.00703621
0.0225113
0.00791856
-0.00671945
-0.00631221
-0.0258371
-0.015362
-0.0499321
-0.14448
-0.218846
-0.238258
-0.242692
-0.257081
-0.246448
-0.235498
-0.229367
-0.253235
-0.241968
-0.220498
-0.203982
-0.232376
-0.290611
-0.323665
-0.311471
-0.279118
-0.186742
0.0707014
0.483416
1.00636
1.68941
2.43256
2.68077
1.8238
0.321561
-0.821041
-0.97871
-0.661538
-0.494706
-0.35819
-0.251946
-0.230973
-0.165249
-0.134706
-0.134231
-0.138801
-0.153507
-0.113348
-0.103394
-0.148778
-0.144389
-0.11009
-0.0658597
-0.0917194
-0.122353
-0.0981221
-0.069095
-0.115181
-0.126154
-0.0820588
-0.0778054
-0.0835746
-0.0892986
-0.059819
-0.0304977
-0.0311765
-0.0263801
-0.0311086
0.00441176
0.0350452
0.0304525
0.0658824
0.0965385
0.107172
0.102647
0.113213
0.178891
0.244502
0.230068
0.255724
0.396471
0.422149
0.382964
0.398507
0.433394
0.476561
0.507692
0.521448
0.5219
0.504525
0.517828
0.511584
0.372127
0.326177
0.264751
0.207014
0.163665
0.109751
0.0555656
0.0111991
-0.018371
-0.0729185
-0.112353
-0.116652
-0.110973
-0.115113
-0.139072
-0.143032
-0.137059
-0.145882
-0.149706
-0.173801
-0.192986
-0.172172
-0.141312
-0.140498
-0.149751
-0.169095
-0.158462
-0.132986
-0.142896
-0.123281
-0.108824
-0.109457
-0.110204
-0.166154
-0.16733
-0.138235
-0.144163
-0.150294
-0.12638
-0.127376
-0.138665
-0.12052
-0.142738
-0.149887
-0.132059
-0.139118
-0.165204
-0.18448
-0.191561
-0.190882
-0.187127
-0.132217
-0.0760181
-0.0766516
-0.132692
-0.144502
-0.134661
-0.163959
-0.172489
-0.160407
-0.152873
-0.154842
-0.181448
-0.187828
-0.164163
-0.16
-0.125588
-0.0659276
-0.0113122
-0.00171944
0.00303168
0.0178507
-0.00723981
0.0228959
0.0429864
0.0531674
0.0333937
0.0386652
0.00393666
-0.000837091
-0.000633471
-0.0304298
-0.0250679
-0.0146606
-0.0942986
-0.203869
-0.243484
-0.247941
-0.21224
-0.221584
-0.255905
-0.254932
-0.233824
-0.227579
-0.236267
-0.224842
-0.21319
-0.221584
-0.229977
-0.24276
-0.315385
-0.258145
-0.115747
0.226833
0.669593
1.24244
1.98036
2.57844
2.43649
1.26459
-0.202308
-0.989751
-0.882443
-0.585498
-0.453824
-0.337195
-0.270882
-0.224955
-0.164163
-0.148416
-0.163009
-0.152873
-0.137896
-0.138009
-0.143258
-0.133801
-0.119434
-0.135136
-0.140973
-0.126923
-0.103032
-0.0892534
-0.115362
-0.121267
-0.107059
-0.107828
-0.0936878
-0.0943891
-0.104977
-0.0756335
-0.0608824
-0.0456561
-0.0351584
0.0204751
0.0808597
0.0261538
0.00647058
0.0618552
0.0722398
0.0677149
0.103167
0.168643
0.214253
0.209774
0.245271
0.311041
0.351946
0.362624
0.397805
0.467036
0.524729
0.510204
0.462986
0.457828
0.496742
0.497647
0.445023
0.423235
0.392873
0.366063
0.288235
0.244932
0.196131
0.14681
0.132127
0.00742082
-0.00730769
-0.0518326
-0.0860181
-0.0749548
-0.0740272
-0.0431448
-0.0872172
-0.166403
-0.130498
-0.11948
-0.173484
-0.192738
-0.146946
-0.131267
-0.130634
-0.135045
-0.139615
-0.119095
-0.108529
-0.118439
-0.113914
-0.114593
-0.120317
-0.115882
-0.0865611
-0.122557
-0.143665
-0.179729
-0.185814
-0.147081
-0.133394
-0.139819
-0.116516
-0.113462
-0.125498
-0.137986
-0.160566
-0.16767
-0.163213
-0.146968
-0.138326
-0.156425
-0.146765
-0.122873
-0.119525
-0.142986
-0.144842
-0.135995
-0.140679
-0.179548
-0.167557
-0.14
-0.157149
-0.178665
-0.159615
-0.140453
-0.111176
-0.0867647
-0.0622398
-0.0225339
-0.00773755
0.0121041
0.0319231
0.0517647
0.0618099
0.0669231
0.0621041
0.0473303
0.0225792
0.00782803
0.00794116
-0.0169231
-0.0166064
-0.0112896
-0.0808371
-0.170204
-0.229525
-0.259005
-0.258371
-0.237217
-0.211177
-0.230475
-0.23457
-0.228484
-0.222376
-0.236222
-0.244864
-0.243281
-0.241719
-0.279977
-0.312873
-0.285566
-0.19319
0.009095
0.346629
0.834728
1.47781
2.18066
2.38871
1.90201
0.470091
-0.802217
-1.13962
-0.822014
-0.579593
-0.46267
-0.350769
-0.25905
-0.182851
-0.152059
-0.141742
-0.151448
-0.166561
-0.166855
-0.127285
-0.112851
-0.108235
-0.108529
-0.0989366
-0.104344
-0.0899321
-0.0555656
-0.0611991
-0.0717647
-0.0673303
-0.0576244
-0.0522851
-0.0667421
-0.0662217
-0.0406335
-0.025
-0.0195476
-0.0140724
-0.0135068
0.00199091
0.0376018
0.0630995
0.0735746
0.0839366
0.114434
0.135204
0.171154
0.222195
0.268122
0.273009
0.296312
0.367308
0.395339
0.380407
0.413733
0.444683
0.457285
0.445679
0.47491
0.527715
0.564796
0.526154
0.477127
0.447964
0.398597
0.323688
0.263575
0.243688
0.163824
0.0539367
0.0140724
-0.000814468
-0.0156335
-0.0403394
-0.0850905
-0.0946606
-0.0890271
-0.0983031
-0.107557
-0.136719
-0.125882
-0.12509
-0.159412
-0.168824
-0.153281
-0.122738
-0.11233
-0.152149
-0.162036
-0.161923
-0.187036
-0.182624
-0.138575
-0.109661
-0.16595
-0.197285
-0.14362
-0.135068
-0.166629
-0.178484
-0.155498
-0.13767
-0.145
-0.147557
-0.155317
-0.173348
-0.181606
-0.189774
-0.137602
-0.124593
-0.190158
-0.193507
-0.178914
-0.211131
-0.207195
-0.140136
-0.104208
-0.113824
-0.154887
-0.14914
-0.122195
-0.16457
-0.176335
-0.11267
-0.0385294
-0.0592081
-0.0695475
-0.0246832
-0.0200452
0.0195928
0.049638
0.0397285
-0.025181
-0.0802036
-0.0451584
0.0050905
-0.0396154
-0.0593213
-0.0291855
-0.0141403
-0.0738688
-0.218484
-0.268054
-0.242647
-0.247172
-0.266652
-0.221199
-0.225724
-0.250249
-0.229887
-0.224502
-0.233937
-0.248213
-0.257511
-0.291833
-0.311041
-0.335385
-0.359864
-0.308824
-0.0721041
0.269774
0.771855
1.40928
2.06172
2.4541
1.89158
0.429163
-0.87319
-1.05563
-0.722964
-0.56
-0.416878
-0.323869
-0.275995
-0.228416
-0.141018
-0.078914
-0.0971041
-0.115498
-0.129548
-0.114276
-0.0892308
-0.0743665
-0.0746833
-0.0401584
-0.0408145
-0.0715385
-0.0723303
-0.0580317
-0.0587104
-0.0495928
-0.0354073
-0.0161765
-0.0120362
-0.0278733
-0.0436652
-0.0141177
0.0108823
0.0260859
0.0312217
0.0113122
0.0263122
0.0463122
0.0464479
0.0917421
0.121923
0.146946
0.152127
0.172308
0.242489
0.282783
0.303348
0.329027
0.379661
0.425
0.44414
0.456584
0.456697
0.465995
0.470204
0.477941
0.463235
0.450226
0.4481
0.401629
0.328688
0.250294
0.201561
0.18233
0.0976471
0.0728054
0.0380543
0.0131222
0.00807691
-0.021629
-0.0310407
-0.0956335
-0.150272
-0.114661
-0.114005
-0.163303
-0.157511
-0.151719
-0.126199
-0.130995
-0.180634
-0.175091
-0.139751
-0.109502
-0.0991629
-0.143824
-0.158756
-0.164457
-0.175566
-0.191561
-0.177466
-0.148462
-0.14948
-0.145769
-0.122262
-0.113484
-0.119796
-0.131403
-0.118213
-0.105023
-0.102104
-0.0545928
0.00746606
-0.0606335
-0.168643
-0.200905
-0.221629
-0.220045
-0.185814
-0.168801
-0.140045
-0.113824
-0.114231
-0.115611
-0.12276
-0.143122
-0.147466
-0.16595
-0.188733
-0.15595
-0.167783
-0.179095
-0.175091
-0.150973
-0.0865611
-0.0471719
-0.0376471
-0.0128281
0.0121267
0.0220362
0.0171041
0.0222172
0.0423077
0.0123982
-0.00260182
0.0123077
0.0073982
-0.00253392
-0.017466
-0.0321719
-0.0268099
-0.0716289
-0.161335
-0.245837
-0.240249
-0.229661
-0.234321
-0.229027
-0.213529
-0.218054
-0.247489
-0.241719
-0.220724
-0.209706
-0.23871
-0.272308
-0.305611
-0.308891
-0.302081
-0.235091
0.0271041
0.389389
0.901697
1.07903
2.26152
2.60412
1.97665
0.49405
-0.793462
-0.975815
-0.653394
-0.491335
-0.379661
-0.273167
-0.206787
-0.160928
-0.150113
-0.14948
-0.134005
-0.143439
-0.133145
-0.11319
-0.113643
-0.124321
-0.129864
-0.100498
-0.0913801
-0.102376
-0.108597
-0.094819
-0.0958824
-0.0870136
-0.0880996
-0.0890724
-0.0799548
-0.0657692
-0.0666516
-0.0425113
-0.00316744
-0.00330319
-0.0283485
-0.0285973
0.0214027
0.0765158
0.0968778
0.0572172
0.0825566
0.137919
0.168258
0.15862
0.183959
0.254457
0.330294
0.341448
0.372308
0.442738
0.442828
0.431629
0.478733
0.509027
0.506516
0.490656
0.478394
0.483846
0.465475
0.402738
0.341629
0.294389
0.231674
0.152873
0.113665
0.084095
0.0744344
0.0297285
-0.0551132
-0.0647964
-0.0792082
-0.118552
-0.132738
-0.121833
-0.121176
-0.130634
-0.154774
-0.153756
-0.117964
-0.0972398
-0.126516
-0.105928
-0.0854751
-0.130091
-0.159729
-0.134276
-0.129072
-0.149321
-0.155023
-0.150747
-0.116538
-0.0924435
-0.118416
-0.114231
-0.090181
-0.10638
-0.132557
-0.133778
-0.110068
-0.131584
-0.158484
-0.145814
-0.143213
-0.135633
-0.137873
-0.139231
-0.129095
-0.126742
-0.143801
-0.145611
-0.101018
-0.0693666
-0.0994118
-0.145294
-0.152059
-0.152376
-0.151765
-0.165249
-0.163077
-0.135407
-0.152172
-0.148552
-0.139751
-0.165701
-0.136425
-0.0718099
-0.0470588
-0.0523303
-0.0475339
-0.0276697
-0.0226697
0.00728507
0.0623077
0.0874434
0.0476244
0.0126923
0.00778281
0.0178733
0.0281448
0.0234842
-0.0061312
-0.0258145
-0.075362
-0.199729
-0.234186
-0.173688
-0.198303
-0.222783
-0.272014
-0.241086
-0.230317
-0.239661
-0.243959
-0.232919
-0.211719
-0.240204
-0.263213
-0.265973
-0.263756
-0.271471
-0.223937
0.0436199
0.421176
0.853891
1.48667
2.2495
2.58231
1.98543
0.628552
-0.613688
-0.986267
-0.734072
-0.642081
-0.420407
-0.29405
-0.222828
-0.211742
-0.195656
-0.139842
-0.109502
-0.12948
-0.134864
-0.145566
-0.141312
-0.0772172
-0.0582579
-0.124186
-0.140158
-0.121131
-0.122149
-0.107851
-0.0833484
-0.0637104
-0.0641629
-0.074819
-0.0904299
-0.0809276
-0.0715158
-0.0570136
-0.0471493
-0.0219457
-0.00156108
0.0189593
-0.000384592
0.025181
0.0507466
0.0512896
0.0817647
0.107217
0.12767
0.178032
0.238439
0.248982
0.259683
0.285475
0.351176
0.381629
0.400769
0.442964
0.4581
0.480498
0.489502
0.472579
0.463869
0.471403
0.474321
0.433348
0.346018
0.307738
0.264027
0.185
0.110566
0.0708823
0.0312669
-0.0284389
-0.0930769
-0.102489
-0.0967195
-0.121018
-0.140294
-0.139299
-0.118394
-0.142443
-0.171199
-0.164864
-0.138643
-0.132692
-0.132104
-0.171358
-0.17543
-0.169615
-0.15414
-0.158733
-0.158416
-0.138756
-0.154253
-0.129457
-0.109955
-0.11086
-0.127014
-0.132941
-0.0838688
-0.0398642
-0.0861312
-0.132624
-0.17905
-0.215543
-0.197308
-0.184389
-0.171674
-0.159118
-0.166561
-0.178032
-0.162986
-0.141109
-0.141357
-0.133371
-0.194118
-0.172579
-0.107127
-0.102285
-0.124005
-0.134299
-0.133937
-0.147353
-0.159932
-0.161878
-0.173665
-0.160204
-0.141267
-0.0818326
-0.00721721
0.0224887
0.0171041
0.0618552
0.0919683
0.0570588
0.0418552
0.0419005
0.0871041
0.0370588
-0.0380995
-0.0480996
-0.0078733
-0.00755655
-0.0472398
-0.0471493
-0.0221493
-0.0617421
-0.146244
-0.215928
-0.220566
-0.225136
-0.279593
-0.253959
-0.228235
-0.237557
-0.247036
-0.241244
-0.215136
-0.213891
-0.247557
-0.261063
-0.289593
-0.297941
-0.276086
-0.218914
0.0832579
0.51552
0.953009
1.55061
2.33828
2.57118
1.8341
0.416968
-0.770181
-1.00742
-0.699864
-0.497511
-0.395407
-0.293529
-0.216991
-0.155792
-0.159819
-0.163937
-0.148348
-0.133326
-0.148643
-0.139186
-0.139864
-0.180679
-0.156652
-0.137602
-0.14862
-0.144774
-0.160928
-0.136787
-0.0625339
-0.0883258
-0.119299
-0.100204
-0.055905
-0.0614706
-0.0919909
-0.0723529
-0.0722624
-0.0769457
-0.0364932
0.0289593
0.0344797
0.0149095
0.0252941
0.0308598
0.0865385
0.147059
0.152511
0.13776
0.172919
0.238371
0.283959
0.309525
0.355
0.404955
0.443688
0.465747
0.455701
0.492692
0.533665
0.521471
0.498213
0.491742
0.465249
0.404299
0.351833
0.303665
0.244977
0.17586
0.151471
0.111742
0.0619457
-0.017715
-0.0771267
-0.101267
-0.090362
-0.114412
-0.128258
-0.102082
-0.100996
-0.170023
-0.18414
-0.128122
-0.0873982
-0.0970136
-0.126629
-0.146041
-0.155498
-0.120045
-0.0897512
-0.16948
-0.174208
-0.124253
-0.109796
-0.105453
-0.111154
-0.152172
-0.148213
-0.114276
-0.0804525
-0.111742
-0.158054
-0.169412
-0.14095
-0.117783
-0.104774
-0.137036
-0.15957
-0.16724
-0.139706
-0.141109
-0.145747
-0.148529
-0.128643
-0.150294
-0.151018
-0.135226
-0.120837
-0.10681
-0.113824
-0.16414
-0.153235
-0.151561
-0.159095
-0.160995
-0.152466
-0.173643
-0.169615
-0.110453
-0.0461086
0.00832579
0.0129186
0.0226018
0.0572398
0.0720362
0.0619231
0.0616968
0.0665837
0.0265158
0.00660634
0.0169683
0.0171493
-0.00271494
-0.0424887
-0.0571946
-0.0718778
-0.106629
-0.186199
-0.250814
-0.255543
-0.235045
-0.249231
-0.243416
-0.237738
-0.226968
-0.206154
-0.215204
-0.243982
-0.242692
-0.256471
-0.300045
-0.313326
-0.291493
-0.254525
-0.142262
0.120204
0.507783
0.995543
1.64833
1.87613
2.50916
1.65731
0.225294
-0.861765
-0.993937
-0.661448
-0.499027
-0.39181
-0.304932
-0.243371
-0.176923
-0.145724
-0.154887
-0.149525
-0.134457
-0.114751
-0.130136
-0.130747
-0.106471
-0.122195
-0.113032
-0.0941629
-0.0801358
-0.0657466
-0.0662444
-0.07681
-0.0824208
-0.0730091
-0.0936878
-0.0591403
-0.0290272
-0.0688235
-0.0835068
-0.0430769
-0.0225339
-0.0168778
-0.00124436
0.0291855
0.0595927
0.075181
0.0909728
0.101561
0.1369
0.177285
0.207919
0.228688
0.259593
0.310362
0.360588
0.369412
0.431697
0.466697
0.483529
0.47724
0.485769
0.503371
0.533032
0.532511
0.531946
0.524932
0.457059
0.388416
0.319367
0.245113
0.180769
0.146131
0.0763348
0.0263575
0.0114932
-0.0131222
-0.0474434
-0.0713801
-0.0904751
-0.119638
-0.128575
-0.127443
-0.111403
-0.130407
-0.154389
-0.163507
-0.147805
-0.132059
-0.151335
-0.150679
-0.120158
-0.129864
-0.144683
-0.16457
-0.154887
-0.135566
-0.146471
-0.15233
-0.148326
-0.139434
-0.150543
-0.156652
-0.132828
-0.134186
-0.145747
-0.147511
-0.159683
-0.162262
-0.144977
-0.15267
-0.175407
-0.172647
-0.158756
-0.173416
-0.181041
-0.135679
-0.129231
-0.145
-0.119615
-0.11543
-0.126086
-0.122149
-0.166312
-0.17448
-0.161968
-0.163778
-0.165068
-0.150815
-0.121358
-0.0969457
-0.0923077
-0.037534
-0.00766971
0.0171945
0.0271719
0.0523529
0.0774887
0.0726923
0.0229185
-0.0019231
0.0134615
0.0190497
-0.000543013
-0.0252715
-0.0149548
-0.0296833
-0.124163
-0.223801
-0.253416
-0.227941
-0.237421
-0.2569
-0.256335
-0.250656
-0.239887
-0.244005
-0.252964
-0.236855
-0.225837
-0.244751
-0.268462
-0.271968
-0.285362
-0.283665
-0.181765
0.125452
0.497738
1.0052
1.70274
2.39038
2.44808
1.52097
-0.0461086
-1.09805
-1.07011
-0.72733
-0.534683
-0.407376
-0.300249
-0.248507
-0.232376
-0.166697
-0.12129
-0.101244
-0.121471
-0.116719
-0.1169
-0.147149
-0.107579
-0.0831448
-0.0988009
-0.0994796
-0.090181
-0.0808824
-0.0815158
-0.0921719
-0.0723756
-0.072172
-0.0669231
-0.0716742
-0.0814253
-0.0461538
-0.0358145
-0.0555204
-0.0404525
-0.025362
0.0198869
0.0301131
0.045543
0.0761991
0.0819005
0.0926018
0.128416
0.158846
0.172896
0.215181
0.285045
0.322104
0.326471
0.330611
0.365204
0.365091
0.379434
0.448213
0.485407
0.477036
0.463281
0.479163
0.474683
0.41
0.390181
0.345362
0.255566
0.19552
0.150498
0.0854525
0.0304978
-0.0244344
-0.0395475
-0.039457
-0.0841855
-0.0989366
-0.0983937
-0.112851
-0.137353
-0.15681
-0.160882
-0.164887
-0.148982
-0.118371
-0.153032
-0.197783
-0.167466
-0.142172
-0.142036
-0.152127
-0.172466
-0.108009
-0.15405
-0.19043
-0.161742
-0.143145
-0.149796
-0.161629
-0.15362
-0.150769
-0.1731
-0.175611
-0.148235
-0.131018
-0.138959
-0.157421
-0.165769
-0.159027
-0.157489
-0.180453
-0.186923
-0.161674
-0.133937
-0.127873
-0.123484
-0.138597
-0.112602
-0.113507
-0.0990045
-0.0742081
-0.0577828
-0.0551584
-0.0866969
-0.072715
-0.0135068
0.0206787
0.045181
0.0550452
0.0650678
0.055
0.014819
-0.00520367
0.00966061
0.0197285
0.00990947
0.00488685
0.00997736
0.0251584
-0.00966065
-0.0294344
-0.139321
-0.214095
-0.208914
-0.228846
-0.22862
-0.203326
-0.228009
-0.232738
-0.202579
-0.197398
-0.212081
-0.216584
-0.266086
-0.310498
-0.309751
-0.31914
-0.348597
-0.237805
0.0683032
0.44948
0.985837
1.59749
2.19434
2.26629
2.16326
-0.12957
-1.1074
-0.965181
-0.627715
-0.510068
-0.382353
-0.299457
-0.241516
-0.173801
-0.136425
-0.139231
-0.132376
-0.116018
-0.125023
-0.104276
-0.123959
-0.128937
-0.0741856
-0.0895702
-0.105113
-0.095905
-0.106584
-0.0772625
-0.0430996
-0.0440724
-0.104887
-0.0955883
-0.0815385
-0.0673982
-0.0328733
0.00196829
-0.00809959
-0.0233258
-0.0134389
0.0467647
0.0871041
0.0373529
0.0478054
0.0930317
0.103122
0.113303
0.148484
0.188665
0.228959
0.274434
0.310023
0.340339
0.380204
0.423914
0.435792
0.520362
0.481742
0.434796
0.46733
0.448643
0.421516
0.414367
0.372851
0.334819
0.286222
0.232489
0.163213
0.118801
0.0792534
0.0397738
0.0202715
-0.0541176
-0.113394
-0.122851
-0.122511
-0.101991
-0.106199
-0.140136
-0.153982
-0.152919
-0.121968
-0.156199
-0.160634
-0.165023
-0.164344
-0.133733
-0.15819
-0.167715
-0.157262
-0.166878
-0.151516
-0.156787
-0.147443
-0.118167
-0.15905
-0.184977
-0.155882
-0.136968
-0.133258
-0.124525
-0.140792
-0.137195
-0.128756
-0.135769
-0.143213
-0.110747
-0.0885294
-0.111561
-0.154276
-0.155792
-0.150543
-0.138009
-0.132941
-0.130181
-0.112195
-0.104706
-0.107511
-0.11457
-0.110837
-0.12052
-0.149321
-0.20724
-0.204389
-0.161018
-0.15224
-0.133145
-0.103937
-0.0845928
-0.0650453
-0.0554072
-0.0256109
-0.0158145
-0.0109729
0.00400452
0.038914
0.0488914
0.0089819
0.00898188
0.0290724
0.0343213
-0.0204073
-0.0504525
-0.000565633
-0.00545251
-0.060181
-0.16491
-0.229525
-0.164163
-0.163778
-0.233326
-0.272715
-0.272104
-0.251697
-0.246131
-0.250339
-0.239525
-0.218575
-0.222534
-0.256357
-0.285091
-0.303643
-0.261991
-0.160226
0.126719
0.554027
1.06154
1.75434
2.48692
2.61432
1.7869
0.319321
-0.783303
-0.89595
-0.533733
-0.406742
-0.380068
-0.28362
-0.232172
-0.200928
-0.195271
-0.159864
-0.164457
-0.18457
-0.175181
-0.115928
-0.0968326
-0.12267
-0.158552
-0.169683
-0.140928
-0.126923
-0.127715
-0.10371
-0.0997738
-0.105837
-0.1019
-0.0927149
-0.0735068
-0.0541629
-0.0744796
-0.0895249
-0.0593892
-0.0494797
-0.0295023
-0.0141629
-0.00393667
0.016086
0.0311765
0.0712217
0.0963575
0.101787
0.117172
0.147466
0.197919
0.248575
0.26914
0.314593
0.339502
0.377828
0.41543
0.39871
0.418484
0.455882
0.44448
0.458778
0.46491
0.449299
0.41276
0.379932
0.36638
0.287217
0.217873
0.128122
0.0680996
0.0431448
0.00830319
-0.0214027
-0.0460407
-0.075724
-0.105339
-0.119864
-0.139389
-0.153823
-0.128145
-0.127398
-0.156878
-0.17129
-0.160611
-0.149864
-0.149208
-0.153597
-0.142986
-0.117489
-0.151946
-0.171538
-0.13638
-0.12681
-0.132647
-0.15319
-0.15871
-0.134615
-0.0957919
-0.101991
-0.128326
-0.134864
-0.131425
-0.153009
-0.139819
-0.131787
-0.113914
-0.111086
-0.12371
-0.121493
-0.123824
-0.159887
-0.189186
-0.16129
-0.135317
-0.121131
-0.106493
-0.0754525
-0.090905
-0.101199
-0.12181
-0.11543
-0.09819
-0.105656
-0.177443
-0.178801
-0.0898416
-0.075724
-0.0963348
-0.0568778
-0.00739818
0.0122172
0.0470815
0.0519683
0.0568778
0.0768099
0.0867873
0.0318552
0.0169004
0.0269231
0.0370814
0.0322172
0.0323077
0.00728504
-0.0224434
-0.061991
-0.126561
-0.196154
-0.22086
-0.175453
-0.180068
-0.229638
-0.244186
-0.22362
-0.207941
-0.177353
-0.191606
-0.245498
-0.249548
-0.223597
-0.247398
-0.29595
-0.279276
-0.217557
-0.070724
0.26129
0.383529
1.34079
2.12299
2.66029
2.3979
1.13552
-0.361719
-1.07885
-0.871086
-0.583529
-0.411109
-0.278959
-0.262376
-0.226267
-0.160724
-0.130475
-0.145294
-0.15543
-0.140769
-0.111244
-0.106697
-0.117217
-0.0878733
-0.0985747
-0.119367
-0.120068
-0.0356561
-0.0413122
-0.102014
-0.117557
-0.0776697
-0.0623077
-0.116855
-0.121516
-0.0811539
-0.0558598
-0.0555883
-0.0301131
-0.00466066
-0.00418554
-0.0087783
0.00649318
0.0267647
0.032285
0.0830995
0.133914
0.134683
0.150317
0.220045
0.248326
0.244683
0.218733
0.289593
0.352873
0.341923
0.340905
0.376471
0.400158
0.413235
0.435226
0.461697
0.427783
0.393688
0.359253
0.314706
0.235113
0.170453
0.130814
0.0761765
0.0312444
-0.00873301
-0.038371
-0.0628733
-0.082466
-0.106923
-0.126154
-0.120362
-0.104434
-0.133462
-0.172579
-0.191606
-0.18052
-0.159774
-0.154186
-0.15862
-0.148009
-0.142308
-0.111652
-0.166222
-0.186063
-0.161109
-0.176403
-0.16724
-0.163348
-0.149231
-0.140181
-0.131561
-0.1481
-0.154661
-0.121312
-0.1181
-0.175136
-0.137466
-0.124977
-0.152624
-0.16052
-0.163665
-0.156697
-0.13957
-0.156923
-0.167828
-0.133032
-0.123733
-0.110792
-0.115113
-0.11052
-0.116358
-0.13871
-0.139095
-0.138303
-0.146018
-0.102964
-0.0592081
-0.0251584
0.00918553
0.0138462
0.00368779
0.0385973
0.0534615
0.0584389
0.0235294
0.00864253
0.0237783
0.0139819
0.0191176
0.0242081
-0.000701375
-0.015181
-0.0197738
-0.0446833
-0.129638
-0.234389
-0.259072
-0.223982
-0.20405
-0.223891
-0.238597
-0.248394
-0.233054
-0.242579
-0.247149
-0.221674
-0.196063
-0.21043
-0.279819
-0.304005
-0.297964
-0.261901
-0.0808145
0.255588
0.692172
1.22364
1.935
2.49688
2.33412
1.24631
-0.241448
-0.958982
-0.796539
-0.533982
-0.411267
-0.318507
-0.250837
-0.188235
-0.165792
-0.16871
-0.142059
-0.125769
-0.12991
-0.13457
-0.124525
-0.109751
-0.125271
-0.12595
-0.116606
-0.117308
-0.1031
-0.0986652
-0.104118
-0.0799095
-0.0809503
-0.0968326
-0.0777828
-0.058733
-0.0444118
-0.0449095
-0.0700679
-0.059819
-0.0343892
-0.00432131
0.000633448
-0.0092308
0.0408144
0.0759728
0.0710181
0.0810633
0.126471
0.146833
0.171923
0.207262
0.268009
0.308756
0.31905
0.353914
0.407624
0.435814
0.436041
0.418303
0.43233
0.450362
0.451176
0.413303
0.376448
0.355249
0.287398
0.263665
0.199615
0.140272
0.0907466
0.0360181
-0.00889143
-0.00864255
-0.0331448
-0.0826244
-0.112081
-0.116471
-0.125837
-0.15509
-0.154299
-0.163552
-0.157783
-0.157149
-0.171493
-0.155588
-0.149864
-0.159321
-0.158688
-0.16819
-0.147828
-0.137421
-0.142217
-0.147602
-0.148371
-0.154118
-0.124796
-0.135588
-0.141538
-0.122602
-0.128824
-0.135158
-0.126606
-0.142986
-0.15948
-0.146154
-0.137964
-0.135113
-0.137489
-0.145068
-0.137896
-0.140068
-0.150633
-0.124389
-0.115905
-0.144389
-0.140272
-0.121742
-0.123258
-0.141425
-0.122715
-0.143145
-0.162104
-0.150113
-0.167466
-0.189344
-0.190792
-0.156878
-0.142715
-0.128371
-0.0739367
-0.014276
0.00545247
0.0252715
0.060181
0.07
0.044819
0.0296833
0.0296606
-0.015181
-0.0251584
0.0197511
0.0347511
-0.0200905
0.0050905
0.0251358
-0.0297511
-0.0744344
-0.139231
-0.224163
-0.234005
-0.20871
-0.203348
-0.217941
-0.212557
-0.226968
-0.196176
-0.180407
-0.24957
-0.228552
-0.182421
-0.241199
-0.294842
-0.288371
-0.241742
-0.104864
0.167195
0.259502
0.911968
1.5693
2.29649
2.539
1.91163
0.50914
-0.783349
-0.920905
-0.54862
-0.36672
-0.299864
-0.243303
-0.222104
-0.171109
-0.125339
-0.164842
-0.174434
-0.134276
-0.104525
-0.0850453
-0.0856787
-0.121516
-0.0974887
-0.0734389
-0.0744796
-0.080543
-0.101403
-0.142285
-0.113213
-0.0690045
-0.0847738
-0.0805882
-0.0665611
-0.0822851
-0.0626697
-0.0176244
-0.0373303
-0.0670136
-0.0467647
-0.00140271
0.0138462
0.0240272
0.0492534
0.0895475
0.104887
0.0851358
0.135317
0.200543
0.216041
0.221787
0.247647
0.298529
0.388824
0.422851
0.400113
0.43
0.456901
0.485611
0.458394
0.414367
0.436946
0.419683
0.3931
0.365339
0.302172
0.213167
0.158846
0.119253
0.0844344
0.0244796
-0.0353846
-0.0500905
-0.0547059
-0.109186
-0.128462
-0.13767
-0.141765
-0.135701
-0.134638
-0.133778
-0.157986
-0.182195
-0.146629
-0.126131
-0.120407
-0.154593
-0.174072
-0.123552
-0.117941
-0.147579
-0.122579
-0.117941
-0.128665
-0.134412
-0.120113
-0.12595
-0.132014
-0.128167
-0.139412
-0.140498
-0.146697
-0.143348
-0.150023
-0.146652
-0.14371
-0.111154
-0.108801
-0.156403
-0.163529
-0.164502
-0.170204
-0.1331
-0.10819
-0.145045
-0.130769
-0.0893439
-0.124344
-0.155
-0.151041
-0.140113
-0.158122
-0.160588
-0.142443
-0.149005
-0.155249
-0.141131
-0.121991
-0.092715
-0.0532579
-0.023552
-0.00361991
0.0313575
0.0311538
0.0261312
0.036267
0.046448
0.00169683
-0.00821267
0.0166742
-0.00825793
-0.0231222
-0.0131674
0.0119909
-0.0227149
-0.0875566
-0.187376
-0.247014
-0.251674
-0.241448
-0.236086
-0.220498
-0.20991
-0.199389
-0.218778
-0.233077
-0.202285
-0.201471
-0.22543
-0.269118
-0.312828
-0.331561
-0.335045
-0.208258
0.0838461
0.476109
0.993529
1.681
2.39353
2.56622
1.85882
0.411244
-0.731131
-0.893575
-0.606199
-0.528982
-0.357036
-0.270385
-0.224005
-0.192941
-0.162081
-0.146584
-0.166606
-0.17181
-0.147059
-0.13267
-0.128416
-0.134186
-0.135023
-0.12595
-0.106946
-0.107873
-0.108846
-0.104932
-0.100928
-0.106787
-0.112466
-0.103348
-0.0792082
-0.079638
-0.0796607
-0.0445023
-0.0292081
-0.033914
-0.0386878
-0.0234842
0.0117647
0.0467873
0.0716968
0.0771041
0.0726244
0.112873
0.142941
0.168326
0.203824
0.239367
0.270023
0.320498
0.354955
0.382489
0.392738
0.414887
0.433394
0.45552
0.455475
0.441991
0.44448
0.463507
0.421018
0.367376
0.303394
0.249163
0.19457
0.114638
0.0696606
0.0497737
0.0148869
-0.03
-0.0698416
-0.0695928
-0.0942082
-0.123778
-0.133258
-0.127489
-0.141674
-0.151086
-0.160588
-0.179819
-0.164186
-0.15871
-0.168213
-0.138009
-0.11276
-0.152308
-0.1669
-0.151765
-0.13681
-0.132443
-0.148575
-0.154706
-0.165814
-0.172036
-0.15819
-0.134412
-0.130747
-0.112195
-0.118982
-0.145837
-0.147738
-0.144819
-0.127217
-0.120113
-0.153303
-0.166652
-0.149593
-0.151244
-0.206109
-0.178733
-0.153462
-0.140294
-0.126312
-0.115204
-0.135566
-0.145928
-0.141742
-0.140973
-0.14948
-0.176946
-0.173869
-0.145362
-0.136629
-0.117715
-0.0635747
-0.0392308
-0.0347738
-0.0103167
-0.000837106
-0.00606335
0.00377828
0.0284389
0.0432353
0.02819
0.0130769
0.0130317
0.0280543
0.0180996
-0.0168552
-0.00692308
-0.0319005
-0.0767195
-0.161652
-0.231516
-0.236312
-0.231176
-0.226018
-0.225837
-0.220453
-0.174977
-0.154412
-0.258733
-0.2931
-0.232602
-0.196833
-0.260792
-0.289706
-0.293575
-0.312262
-0.235656
-0.00382352
0.378032
0.880113
1.56731
2.36959
2.71199
2.10968
0.617376
-0.695
-0.997421
-0.694796
-0.462217
-0.374842
-0.302896
-0.236199
-0.159661
-0.128575
-0.152828
-0.157262
-0.142014
-0.132081
-0.122353
-0.11276
-0.0933937
-0.0942308
-0.115158
-0.126109
-0.0821719
-0.0530769
-0.103937
-0.120068
-0.0961086
-0.0770136
-0.0378959
-0.0635973
-0.0991855
-0.0647964
-0.0404072
-0.0652715
-0.0349774
0.0152263
0.0104978
0.0157466
0.0459729
0.0462217
0.0714254
0.106697
0.112036
0.172624
0.218258
0.228824
0.244434
0.270045
0.335679
0.381267
0.411018
0.44405
0.445136
0.43362
0.443507
0.475882
0.534842
0.514955
0.44086
0.425158
0.388665
0.325905
0.262511
0.178643
0.119502
0.0850679
0.0354977
0.0158145
0.00610861
-0.0285068
-0.0927828
-0.121946
-0.0962217
-0.0853846
-0.14457
-0.163688
-0.122692
-0.141652
-0.15552
-0.139434
-0.153552
-0.162738
-0.161855
-0.165995
-0.145339
-0.154706
-0.164163
-0.138869
-0.154027
-0.134525
-0.105317
-0.116176
-0.1269
-0.157466
-0.143167
-0.128846
-0.12948
-0.115769
-0.0923982
-0.113801
-0.145181
-0.132059
-0.109186
-0.116584
-0.154321
-0.156878
-0.128552
-0.148552
-0.15638
-0.141222
-0.127489
-0.14733
-0.130068
-0.124389
-0.11948
-0.12086
-0.160656
-0.174208
-0.147081
-0.149276
-0.170905
-0.152014
-0.122851
-0.103756
-0.0695701
-0.0450905
-0.0404525
-0.010724
0.0140272
0.0286878
0.0384389
0.0485068
0.0586199
0.0140724
-0.00531673
0.0349774
0.0301584
0.00540725
-0.00932126
-0.018733
-0.0181674
-0.0526923
-0.0671946
-0.216697
-0.236222
-0.210656
-0.239955
-0.239186
-0.243439
-0.252557
-0.226697
-0.215814
-0.224729
-0.258597
-0.272195
-0.280588
-0.288914
-0.282149
-0.265294
-0.243281
-0.0860633
0.286357
0.738959
1.31656
2.05907
2.64176
2.31468
2.06785
-0.309005
-1.05124
-0.893484
-0.615815
-0.463529
-0.351584
-0.295023
-0.253891
-0.218167
-0.162941
-0.147828
-0.14767
-0.167738
-0.168077
-0.138529
-0.138959
-0.124502
-0.145317
-0.161063
-0.146493
-0.152036
-0.157715
-0.128303
-0.113937
-0.114638
-0.120113
-0.110226
-0.0948869
-0.0995023
-0.0892081
-0.0736878
-0.0682353
-0.00780541
0.0128055
-0.0115384
-0.0459502
-0.0106335
0.029819
0.040543
0.0813122
0.122059
0.133032
0.164027
0.209819
0.235113
0.289027
0.340995
0.370272
0.396222
0.394389
0.402647
0.420724
0.430995
0.460294
0.498801
0.460973
0.422715
0.403959
0.354819
0.310385
0.245747
0.166176
0.106561
0.0667647
0.0370362
0.0273982
0.00278281
-0.0467873
-0.0711765
-0.0804751
-0.0747964
-0.0341176
-0.0532353
-0.142149
-0.161131
-0.190158
-0.194344
-0.173597
-0.162715
-0.1519
-0.13629
-0.165769
-0.185453
-0.200204
-0.17
-0.14491
-0.165656
-0.156561
-0.137376
-0.158371
-0.149502
-0.150701
-0.147081
-0.128507
-0.140113
-0.146968
-0.14914
-0.151516
-0.159186
-0.167081
-0.165023
-0.137919
-0.14086
-0.158303
-0.164118
-0.157851
-0.138914
-0.151584
-0.146697
-0.123054
-0.120226
-0.112964
-0.138801
-0.163688
-0.147262
-0.139819
-0.141493
-0.107783
-0.0537783
0.00556562
0.0101584
-0.0100905
0.00486425
-0.000248898
-0.00545252
0.0145249
0.0495701
0.0497285
0.0147511
-0.0152715
-0.0102263
0.00481898
-0.000135783
-0.00493216
0.000316713
-0.049457
-0.134276
-0.214163
-0.233959
-0.223756
-0.248575
-0.248235
-0.222896
-0.23233
-0.251765
-0.24638
-0.216154
-0.230769
-0.275136
-0.284434
-0.263462
-0.287308
-0.311131
-0.294819
-0.168371
0.163122
0.590023
1.15219
1.88941
2.5369
2.49932
1.42663
-0.150724
-1.0329
-0.884955
-0.577036
-0.474095
-0.35129
-0.258643
-0.226403
-0.189661
-0.173303
-0.162353
-0.141765
-0.13638
-0.126244
-0.111176
-0.0863122
-0.101855
-0.117489
-0.0830091
-0.0584615
-0.0888462
-0.124321
-0.100045
-0.0807014
-0.091448
-0.0972851
-0.087896
-0.0783485
-0.0582127
-0.0528055
-0.0174661
-0.00214937
-0.0270136
-0.0167195
0.0186425
0.0338687
0.0392081
0.0497058
0.0800905
0.0905203
0.120928
0.156561
0.207443
0.253235
0.288643
0.317964
0.37043
0.405679
0.413077
0.407014
0.424638
0.460385
0.462602
0.455317
0.444185
0.436878
0.453869
0.400271
0.331176
0.286878
0.227557
0.172941
0.158122
0.0833258
-0.00149321
-0.031267
-0.0559955
-0.0955656
-0.0947285
-0.113801
-0.158077
-0.16233
-0.141516
-0.150701
-0.16491
-0.174027
-0.1631
-0.167285
-0.166719
-0.17129
-0.175837
-0.180272
-0.174729
-0.169344
-0.164299
-0.139593
-0.145294
-0.151199
-0.137104
-0.158077
-0.154095
-0.145181
-0.126471
-0.112964
-0.114638
-0.116425
-0.133303
-0.140498
-0.162873
-0.165385
-0.163145
-0.166176
-0.154208
-0.141833
-0.178032
-0.182285
-0.154005
-0.172489
-0.138009
-0.0834842
-0.128688
-0.16086
-0.166787
-0.13181
-0.180136
-0.192738
-0.179751
-0.141357
-0.0776018
-0.0583937
-0.0489367
-0.0294344
-0.0248416
-0.000113122
0.00495475
0.0252263
0.0656109
0.0609502
0.0260634
0.0163122
0.041629
0.0419005
0.00701358
-0.0278054
-0.0373756
-0.0220814
-0.0518552
-0.0765837
-0.196357
-0.241109
-0.255769
-0.270272
-0.244774
-0.249434
-0.239072
-0.228462
-0.242738
-0.257036
-0.25129
-0.250475
-0.244683
-0.288688
-0.322511
-0.311154
-0.229593
0.0121719
0.424118
0.911267
1.53853
2.31075
2.63299
1.94548
1.60812
-0.714118
-0.961131
-0.68319
-0.545407
-0.417625
-0.290136
-0.248077
-0.231403
-0.185136
-0.159163
-0.143326
-0.127941
-0.138077
-0.113462
-0.0939819
-0.124683
-0.140339
-0.115996
-0.106855
-0.12767
-0.133281
-0.108846
-0.0945701
-0.105385
-0.11595
-0.0910407
-0.0557919
-0.0455204
-0.0754072
-0.0753167
-0.0350905
-0.00979636
-0.0195701
-0.00929862
0.0160181
0.0263122
0.016629
0.0270136
0.067534
0.1031
0.128824
0.174706
0.230362
0.235
0.257579
0.282557
0.324321
0.342715
0.364932
0.370837
0.403688
0.422036
0.421063
0.423665
0.445566
0.436787
0.38776
0.358643
0.319072
0.264299
0.209434
0.139683
0.0796606
0.0695475
0.0695023
0.0196833
-0.0448416
-0.084276
-0.0836199
-0.0829412
-0.10724
-0.17138
-0.200588
-0.199774
-0.203756
-0.167738
-0.161946
-0.151267
-0.170543
-0.169955
-0.159706
-0.194638
-0.174344
-0.163891
-0.163846
-0.144163
-0.130091
-0.146267
-0.147557
-0.133937
-0.12552
-0.12233
-0.14414
-0.15595
-0.148032
-0.15052
-0.138145
-0.125792
-0.143643
-0.151855
-0.145204
-0.148484
-0.161516
-0.17371
-0.164231
-0.147262
-0.117353
-0.108959
-0.123801
-0.106606
-0.115747
-0.180113
-0.190317
-0.168982
-0.156946
-0.148959
-0.125158
-0.086086
-0.0569683
-0.0476245
-0.0330091
-0.00816743
0.0216968
0.0463348
0.051086
0.0511765
0.0413122
0.0214253
0.0214706
0.00644794
-0.018552
-0.0385294
-0.0183937
-0.00821269
-0.0531448
-0.163122
-0.237986
-0.247715
-0.217353
-0.217127
-0.242081
-0.251878
-0.231493
-0.216109
-0.230837
-0.230407
-0.219774
-0.254186
-0.278575
-0.277828
-0.291923
-0.31086
-0.25957
-0.0329864
0.408552
0.980136
1.67197
2.41907
2.68615
1.87326
0.355588
-0.84181
-1.02416
-0.711516
-0.528869
-0.401267
-0.318937
-0.251991
-0.200294
-0.183778
-0.16267
-0.146923
-0.131471
-0.12138
-0.121425
-0.131516
-0.131742
-0.132104
-0.142602
-0.1281
-0.128507
-0.138937
-0.119683
-0.105611
-0.11138
-0.116742
-0.101606
-0.0864027
-0.0712896
-0.041267
-0.00108597
0.00409503
-0.0559502
-0.0758145
-0.0155656
0.0397285
0.0550679
0.0654299
0.0758824
0.0814932
0.152172
0.197919
0.208281
0.217466
0.259819
0.330249
0.357964
0.352285
0.390272
0.416041
0.407896
0.405294
0.434389
0.492172
0.53448
0.47086
0.446833
0.447602
0.378235
0.343733
0.299163
0.234502
0.169615
0.104548
0.084457
-0.000520356
-0.0554977
-0.0753846
-0.07
-0.0745475
-0.109095
-0.143552
-0.133054
-0.0924887
-0.0916968
-0.145837
-0.185068
-0.194389
-0.153824
-0.128258
-0.152715
-0.162376
-0.162217
-0.157036
-0.141923
-0.142172
-0.143032
-0.139163
-0.150385
-0.151674
-0.113032
-0.109548
-0.126199
-0.138077
-0.105091
-0.11733
-0.154729
-0.157262
-0.15509
-0.148167
-0.151312
-0.164683
-0.173235
-0.186629
-0.17405
-0.15948
-0.182353
-0.186946
-0.142919
-0.102376
-0.130181
-0.154547
-0.154027
-0.164095
-0.167647
-0.140271
-0.0921267
-0.0583937
-0.0342534
-0.034819
-0.000203636
0.0245701
0.0193891
0.039276
0.0592986
0.0693665
0.0493439
0.0141855
0.0039819
0.00377828
-0.0162217
-0.0363349
-0.0314706
-0.0215158
-0.0565611
-0.151719
-0.22724
-0.237398
-0.206923
-0.206516
-0.24138
-0.230837
-0.214932
-0.234299
-0.248914
-0.258462
-0.247715
-0.236878
-0.271041
-0.305068
-0.30405
-0.307805
-0.21638
0.0251358
0.421719
0.858484
1.46052
2.22776
2.54005
1.91244
0.565045
-0.647262
-1.01966
-0.736968
-0.639163
-0.421312
-0.313869
-0.241697
-0.209661
-0.202986
-0.176538
-0.170385
-0.179661
-0.144344
-0.114253
-0.124118
-0.114367
-0.109864
-0.130317
-0.115701
-0.106063
-0.111584
-0.0770815
-0.0621267
-0.0865837
-0.0959729
-0.075724
-0.065543
-0.0603394
-0.0600226
-0.0696606
-0.0494117
-0.0291176
-0.0137783
0.0116064
0.0469231
0.0722625
0.0578733
0.0686425
0.114389
0.130068
0.140385
0.159321
0.226154
0.26724
0.293167
0.316244
0.344887
0.368756
0.399706
0.419276
0.458326
0.480928
0.49776
0.508869
0.509751
0.515543
0.480973
0.426222
0.356561
0.282014
0.212308
0.142421
0.0874887
0.0625339
0.0375339
-0.00721721
-0.0567421
-0.0811991
-0.095543
-0.119977
-0.134276
-0.128371
-0.127534
-0.146629
-0.155634
-0.144751
-0.114005
-0.103371
-0.112783
-0.142353
-0.117127
-0.121991
-0.121946
-0.106833
-0.0868778
-0.0124661
-0.0787104
-0.205113
-0.17638
-0.0877149
-0.139412
-0.216267
-0.218077
-0.185023
-0.142353
-0.154842
-0.162579
-0.15543
-0.178507
-0.1869
-0.170498
-0.168982
-0.181968
-0.188778
-0.183846
-0.166697
-0.171538
-0.167783
-0.132398
-0.134457
-0.157353
-0.145588
-0.145226
-0.118371
-0.0910181
-0.0677828
-0.0340724
-0.00479637
0.00470591
0.0193213
0.0390724
0.0688009
0.0934616
0.0783711
0.0485068
0.0485521
0.0486199
0.0186199
0.00843894
-0.00124431
-0.000746593
-0.0404977
-0.130339
-0.220249
-0.235023
-0.209706
-0.234502
-0.249299
-0.234186
-0.21905
-0.218801
-0.238507
-0.248054
-0.252466
-0.221946
-0.226357
-0.285543
-0.314774
-0.319095
-0.303303
-0.182376
0.12862
0.579819
0.73629
1.91281
2.53457
2.37652
1.22339
-0.334729
-1.12265
-1.00554
-0.693416
-0.526335
-0.374412
-0.307466
-0.270566
-0.213824
-0.181991
-0.165271
-0.15871
-0.157579
-0.141719
-0.126154
-0.125905
-0.115769
-0.140837
-0.141086
-0.121357
-0.121244
-0.10086
-0.0955203
-0.115204
-0.105045
-0.0999773
-0.0997737
-0.0645249
-0.0541855
-0.0637556
-0.0634615
-0.0283484
-0.00325792
-0.00269231
0.0230769
0.0188462
0.019638
0.0449321
0.114072
0.135995
0.129842
0.135475
0.168643
0.202738
0.201833
0.212579
0.286561
0.314887
0.381878
0.418145
0.433959
0.469457
0.514842
0.485068
0.46509
0.445
0.454909
0.399819
0.334751
0.304661
0.25457
0.164502
0.104231
0.0688009
0.00350676
-0.046629
-0.0615837
-0.0416969
-0.0416742
-0.096448
-0.116177
-0.135882
-0.140453
-0.129842
-0.12414
-0.143552
-0.163054
-0.152489
-0.146991
-0.126765
-0.106652
-0.201719
-0.232036
-0.182579
-0.128281
-0.0992986
-0.155882
-0.187896
-0.144842
-0.136946
-0.114276
-0.121855
-0.159548
-0.152353
-0.170385
-0.188575
-0.151855
-0.134932
-0.162964
-0.171403
-0.145068
-0.128756
-0.147036
-0.154276
-0.179774
-0.168009
-0.13043
-0.142353
-0.136267
-0.0708824
-0.0356788
-0.0519457
-0.0466968
-0.0209502
0.0061991
0.0541177
0.0576923
0.0666742
0.105996
0.050543
0.0200679
-0.0152262
0.0047285
-0.00549773
-0.010905
0.00386878
0.00377828
0.023914
0.0188235
-0.0264027
-0.136584
-0.211719
-0.226968
-0.237149
-0.197081
-0.176878
-0.226946
-0.247036
-0.256946
-0.24681
-0.206719
-0.176652
-0.201471
-0.281086
-0.330656
-0.330317
-0.320068
-0.189729
0.140792
0.566674
1.12274
1.8638
2.49982
2.246
1.06747
-0.401041
-1.07946
-0.887557
-0.600543
-0.443326
-0.330996
-0.278665
-0.256199
-0.198801
-0.146606
-0.12948
-0.132466
-0.125385
-0.113891
-0.118258
-0.123145
-0.102873
-0.0673077
-0.0566968
-0.0712444
-0.101131
-0.111267
-0.0464932
-0.0518552
-0.0621267
-0.041991
-0.0363801
-0.050905
-0.0705204
-0.060181
-0.00981902
-0.00454751
-0.0493892
-0.0341177
0.0262443
0.0215837
0.0520362
0.0971946
0.147127
0.142217
0.122421
0.157308
0.236833
0.246018
0.254231
0.285611
0.350045
0.381335
0.394389
0.412851
0.430747
0.445362
0.433733
0.421403
0.452602
0.473529
0.473778
0.398937
0.289321
0.214955
0.165701
0.141674
0.102805
0.058552
0.0540045
0.0446154
-0.0847738
-0.104253
-0.0986878
-0.0980317
-0.10233
-0.0962896
-0.120204
-0.159163
-0.153032
-0.117127
-0.141267
-0.190679
-0.150023
-0.0943891
-0.118778
-0.148303
-0.187986
-0.162624
-0.132172
-0.121991
-0.132602
-0.0886425
-0.0997059
-0.175814
-0.196991
-0.133281
-0.129774
-0.136403
-0.13819
-0.140091
-0.137014
-0.129027
-0.151403
-0.164231
-0.12233
-0.110566
-0.133869
-0.151674
-0.162941
-0.17724
-0.174118
-0.142579
-0.122873
-0.134004
-0.130294
-0.143032
-0.148439
-0.152715
-0.135543
-0.127466
-0.113665
-0.109434
-0.0501131
-0.0355882
-0.040724
-0.0357014
-0.040724
0.034276
0.159434
0.244502
0.159593
0.0048416
-0.0646607
-0.0641177
-0.0536878
-0.0485294
-0.0433937
0.0071493
-0.0123303
-0.156946
-0.28138
-0.270792
-0.255294
-0.234842
-0.234389
-0.233778
-0.228145
-0.242828
-0.257443
-0.231674
-0.236018
-0.265226
-0.244276
-0.228122
-0.196946
-0.0957919
-0.0693439
-0.0225792
0.23905
0.655724
1.11256
1.80462
2.48701
2.40964
1.4174
-0.0797738
-0.866923
-0.689095
-0.386425
-0.328824
-0.146041
-0.103281
-0.16595
-0.224231
-0.273009
-0.312149
-0.311493
-0.246199
-0.186177
-0.166244
-0.136358
-0.13181
-0.132195
-0.122579
-0.102986
-0.128394
-0.13371
-0.114321
-0.0950227
-0.100317
-0.120045
-0.0945249
-0.0893665
-0.0943213
-0.0937783
-0.0481448
-0.0126245
-0.00230772
-0.0268779
-0.0112896
0.0542534
0.0746606
0.0653846
0.0661086
0.121719
0.167398
0.16319
0.173756
0.198416
0.232647
0.273462
0.316335
0.36086
0.368439
0.368167
0.394457
0.422285
0.446561
0.439434
0.431357
0.452647
0.438552
0.374434
0.305045
0.265317
0.220701
0.131018
0.0711991
0.0363801
-0.00834844
-0.0579864
-0.102602
-0.10224
-0.0916742
-0.116086
-0.135453
-0.129796
-0.12914
-0.153077
-0.136606
-0.144842
-0.158326
-0.177511
-0.177217
-0.166968
-0.136719
-0.141584
-0.166403
-0.166154
-0.146131
-0.166674
-0.167738
-0.163869
-0.175091
-0.16638
-0.152738
-0.154231
-0.13086
-0.132602
-0.159434
-0.141516
-0.143824
-0.136493
-0.134186
-0.146855
-0.164683
-0.19724
-0.189412
-0.151425
-0.152579
-0.151878
-0.128824
-0.157443
-0.172896
-0.163462
-0.1481
-0.139253
-0.153824
-0.137376
-0.0943213
-0.115769
-0.111199
-0.0914027
-0.0669005
-0.0326245
-0.00339366
0.0156787
0.0546154
0.0689819
0.0837783
0.0836878
0.0286878
-0.00635748
-0.00147059
0.00348414
-0.00142536
-0.0164253
0.023552
0.0035294
-0.0813349
-0.171086
-0.251041
-0.220905
-0.155814
-0.210792
-0.255566
-0.260317
-0.254977
-0.254525
-0.259163
-0.238688
-0.217896
-0.242149
-0.251471
-0.300679
-0.334729
-0.293688
-0.237534
-0.041267
0.0551357
0.811674
1.46842
2.22043
2.63274
2.14989
0.747036
-0.680498
-1.0179
-0.720158
-0.51733
-0.389615
-0.301968
-0.269389
-0.197263
-0.140543
-0.164186
-0.1581
-0.127443
-0.127149
-0.127172
-0.137511
-0.1281
-0.118846
-0.104593
-0.0952037
-0.110996
-0.11181
-0.117308
-0.132783
-0.0983937
-0.0789141
-0.109276
-0.109321
-0.0641629
-0.0539819
-0.0438462
-0.0135973
-0.0183258
0.0168325
0.0470362
0.0273529
0.0175339
0.0426697
0.0779638
0.113258
0.128778
0.159547
0.195339
0.206154
0.211493
0.290566
0.332896
0.377851
0.394615
0.39276
0.444683
0.474955
0.411471
0.423665
0.497398
0.504932
0.441606
0.397805
0.378462
0.323914
0.228869
0.168733
0.133914
0.0843213
0.0297059
-0.0248642
-0.0695701
-0.0792308
-0.0788688
-0.0885294
-0.127919
-0.132104
-0.10129
-0.13043
-0.164547
-0.168529
-0.157534
-0.141946
-0.126584
-0.131041
-0.140362
-0.144887
-0.144615
-0.124186
-0.138846
-0.168937
-0.14448
-0.140407
-0.126312
-0.117059
-0.163213
-0.124706
-0.111267
-0.127919
-0.134774
-0.146787
-0.153801
-0.125882
-0.123326
-0.150995
-0.134072
-0.112398
-0.14552
-0.163529
-0.17086
-0.167805
-0.166403
-0.172104
-0.174163
-0.109231
-0.0911538
-0.129163
-0.138326
-0.153801
-0.187715
-0.175588
-0.14276
-0.144186
-0.110226
-0.0909502
-0.0513574
-0.0367647
-0.0320814
-0.0122172
0.0226245
0.0474208
0.0522398
0.0420362
0.0419231
0.0220588
0.0373982
0.0225339
-0.0424208
-0.0473756
-0.0423756
-0.0473303
-0.0921946
-0.177217
-0.242262
-0.246968
-0.226787
-0.221606
-0.231199
-0.230814
-0.240317
-0.244661
-0.234231
-0.223982
-0.253394
-0.262466
-0.301493
-0.34052
-0.34448
-0.323303
-0.216946
0.039457
0.446244
0.97319
1.69036
2.49767
2.76002
2.00753
0.600272
-0.642149
-0.939638
-0.671991
-0.479095
-0.351335
-0.263914
-0.241674
-0.129819
-0.0985294
-0.157692
-0.217127
-0.19181
-0.156742
-0.146946
-0.152421
-0.138122
-0.108891
-0.134548
-0.150339
-0.131244
-0.102036
-0.0929185
-0.10862
-0.104525
-0.0704751
-0.0560633
-0.0911312
-0.115792
-0.0754072
-0.045181
-0.04
-0.0396606
-0.0293891
-0.0192534
-0.0140271
0.0111312
0.041448
0.0768326
0.107036
0.117443
0.143167
0.189027
0.219864
0.240317
0.274977
0.328235
0.365973
0.399434
0.409253
0.391561
0.409977
0.448824
0.459525
0.478575
0.496719
0.44371
0.415068
0.341086
0.281923
0.212443
0.162624
0.112647
0.0826923
0.0528733
-0.0268326
-0.0815837
-0.0812217
-0.095905
-0.120475
-0.134796
-0.144231
-0.138665
-0.127805
-0.141765
-0.125769
-0.134842
-0.173914
-0.208281
-0.17776
-0.15724
-0.161968
-0.166719
-0.14138
-0.141222
-0.13638
-0.132014
-0.162941
-0.128914
-0.119909
-0.140995
-0.14224
-0.133552
-0.14
-0.111697
-0.0835973
-0.135611
-0.177783
-0.155091
-0.142896
-0.131018
-0.129186
-0.162534
-0.170611
-0.177624
-0.167851
-0.165656
-0.165181
-0.156086
-0.115724
-0.118439
-0.142127
-0.121244
-0.0865158
-0.140362
-0.178281
-0.150249
-0.131403
-0.102466
-0.0730995
-0.0333937
-0.0087104
-0.00423076
-0.004638
-2.262e-05
0.0145023
0.0543213
0.0693213
0.0343665
0.0243891
0.0443213
0.0493213
0.0392986
-0.0356335
0.00454751
0.0247059
-0.0400453
-0.139774
-0.234864
-0.255045
-0.224842
-0.214457
-0.229186
-0.228982
-0.228733
-0.223462
-0.2031
-0.222534
-0.226878
-0.231041
-0.235023
-0.289186
-0.333394
-0.332285
-0.255882
-0.084276
0.257489
0.379457
1.30145
2.12864
2.71093
2.43817
1.22568
-0.291425
-1.0236
-0.820747
-0.57276
-0.440181
-0.307738
-0.255588
-0.223914
-0.152579
-0.126425
-0.160543
-0.175068
-0.164774
-0.154932
-0.145498
-0.116154
-0.101923
-0.142964
-0.113801
-0.0945701
-0.12543
-0.141199
-0.126878
-0.122398
-0.123077
-0.0788688
-0.0396154
-0.0550226
-0.0647964
-0.0645023
-0.0793213
-0.0440271
-0.0187556
0.00149322
0.00178733
0.00701357
0.0322625
0.0576471
0.0830317
0.0984842
0.119027
0.169615
0.225588
0.261652
0.267081
0.286606
0.354706
0.380882
0.379344
0.429299
0.461471
0.470385
0.474683
0.465294
0.459186
0.467421
0.449389
0.375973
0.287127
0.243054
0.19862
0.149005
0.134118
0.049276
-0.045362
-0.0450227
-0.0295475
-0.0739593
-0.128235
-0.142466
-0.141629
-0.110769
-0.08
-0.149253
-0.173348
-0.15233
-0.171606
-0.166018
-0.160294
-0.124615
-0.133891
-0.173371
-0.162851
-0.147353
-0.137127
-0.0924661
-0.0984163
-0.144502
-0.155339
-0.126267
-0.112398
-0.113575
-0.109842
-0.126222
-0.147624
-0.139299
-0.146154
-0.15819
-0.110453
-0.0781448
-0.106154
-0.144276
-0.172262
-0.174593
-0.165407
-0.130814
-0.132285
-0.124842
-0.109548
-0.130475
-0.166765
-0.144728
-0.140701
-0.16052
-0.12905
-0.131742
-0.143462
-0.0997738
-0.0958145
-0.106357
-0.096629
-0.0369457
-0.0273077
-0.00766972
0.0270588
0.0469005
0.0569457
0.0921267
0.0321041
0.00721719
0.0324887
0.0226471
-0.0123529
-0.0322851
-0.00717194
-0.0221267
-0.0669457
-0.111471
-0.231086
-0.250792
-0.230453
-0.230294
-0.224977
-0.21448
-0.218914
-0.233303
-0.202624
-0.221923
-0.241086
-0.255113
-0.264095
-0.277941
-0.331561
-0.319932
-0.228122
-0.0663575
0.275498
0.71767
1.33491
2.11715
2.70484
2.31774
1.12568
-0.256335
-0.978303
-0.835453
-0.552715
-0.434932
-0.347421
-0.320317
-0.213439
-0.131833
-0.120634
-0.164729
-0.179412
-0.154638
-0.154955
-0.150294
-0.140928
-0.126923
-0.137986
-0.144005
-0.119796
-0.100272
-0.0960181
-0.106878
-0.0775792
-0.0582353
-0.0688688
-0.0543665
-0.0744344
-0.104095
-0.0637557
-0.0384616
-0.0431448
-0.0177602
0.0226923
0.0331222
0.00841629
0.0386199
0.0691403
0.0797059
0.100294
0.130995
0.156719
0.197443
0.233122
0.268643
0.313394
0.353009
0.374457
0.393077
0.428281
0.440995
0.435385
0.460837
0.513167
0.477986
0.431787
0.429208
0.400905
0.356946
0.287692
0.233167
0.193394
0.138756
0.0540724
0.0142081
-0.0154299
-0.0549774
-0.0896154
-0.114253
-0.118733
-0.108167
-0.117466
-0.131652
-0.145882
-0.160023
-0.153869
-0.153009
-0.167308
-0.171471
-0.150792
-0.150317
-0.155
-0.139638
-0.124344
-0.149276
-0.14448
-0.135385
-0.146471
-0.122466
-0.123439
-0.139457
-0.13552
-0.14681
-0.158371
-0.139932
-0.146719
-0.153665
-0.151018
-0.163643
-0.166335
-0.169389
-0.177624
-0.165611
-0.167986
-0.168891
-0.152828
-0.144027
-0.176765
-0.166742
-0.148349
-0.145068
-0.167738
-0.143416
-0.118213
-0.151516
-0.16905
-0.170928
-0.167443
-0.153371
-0.113937
-0.0643892
-0.0199774
0.0047737
0.0243891
0.044095
0.0640271
0.088914
0.0887782
0.0786877
0.0587556
0.0190045
0.00920811
0.00932124
-0.00545251
-0.0350226
-0.034638
-0.059276
-0.11862
-0.218167
-0.257941
-0.237534
-0.226968
-0.231516
-0.201018
-0.200317
-0.214525
-0.203846
-0.243077
-0.237149
-0.241222
-0.260249
-0.279208
-0.298009
-0.276493
-0.244819
-0.0830995
-0.00124434
0.735815
1.33805
2.06043
2.58799
2.22066
0.893416
-0.58871
-1.1407
-0.912919
-0.600181
-0.467511
-0.360204
-0.268235
-0.196629
-0.155294
-0.149344
-0.138688
-0.108529
-0.113688
-0.129005
-0.119525
-0.110136
-0.0857693
-0.0864028
-0.0968779
-0.0873756
-0.0580091
-0.0686426
-0.0995023
-0.0952037
-0.0852263
-0.0898643
-0.0645702
-0.0543892
-0.0390951
-0.0237331
-0.0233937
-0.0180543
-0.00269232
0.0327602
0.0531901
0.0534842
0.0489593
0.0645701
0.085181
0.130928
0.176719
0.207443
0.23776
0.251674
0.323688
0.368032
0.359253
0.372715
0.411538
0.440226
0.466109
0.485815
0.494751
0.507398
0.524457
0.500724
0.471493
0.407081
0.337602
0.277805
0.223122
0.173507
0.118688
0.0588914
0.00400455
-0.0209728
-0.0208371
-0.0354977
-0.0500226
-0.139276
-0.0834615
-0.102579
-0.146606
-0.125543
-0.104389
-0.123281
-0.162262
-0.176403
-0.145701
-0.119977
-0.154412
-0.169095
-0.138959
-0.143824
-0.193869
-0.169208
-0.150136
-0.15138
-0.162557
-0.143801
-0.130226
-0.136538
-0.147941
-0.149683
-0.141493
-0.148552
-0.140792
-0.133326
-0.121041
-0.133914
-0.167059
-0.170226
-0.148235
-0.13543
-0.142127
-0.155656
-0.156222
-0.143258
-0.132851
-0.138733
-0.130452
-0.113756
-0.109321
-0.153665
-0.146448
-0.0983936
-0.0697511
-0.0606335
-0.0560633
-0.0112896
-0.00144794
0.0235521
0.0535747
0.0585973
0.0637557
0.0490046
0.029276
0.0245475
-0.00015834
-0.00488685
0.0104525
-0.00402714
0.0314027
0.00171946
-0.147941
-0.247602
-0.237285
-0.191855
-0.216425
-0.23586
-0.215249
-0.199728
-0.229208
-0.243688
-0.227919
-0.207014
-0.221109
-0.250294
-0.264615
-0.288801
-0.307692
-0.301493
-0.190226
0.116199
0.532783
1.12968
1.81172
2.42373
2.34591
1.26833
-0.304186
-1.14661
-0.973937
-0.671267
-0.53362
-0.396018
-0.283665
-0.231584
-0.214955
-0.16371
-0.157783
-0.142217
-0.126968
-0.146833
-0.126833
-0.101991
-0.112195
-0.11733
-0.097647
-0.1131
-0.103959
-0.0995249
-0.100045
-0.100701
-0.0956561
-0.0853846
-0.0752262
-0.0602036
-0.0651584
-0.08
-0.044819
-0.00475112
0.00520363
0.00520365
0.020181
0.025
0.0551132
0.0854525
0.0909503
0.116538
0.151968
0.156561
0.174593
0.230724
0.249434
0.254977
0.287964
0.337285
0.34767
0.364276
0.408484
0.436493
0.433394
0.414774
0.385679
0.421222
0.366538
0.306697
0.291674
0.206652
0.166652
0.136606
0.0815385
0.0365384
0.00133483
-0.0538688
-0.0788009
-0.0936425
-0.123575
-0.128507
-0.138145
-0.162805
-0.137443
-0.141946
-0.186335
-0.195792
-0.190362
-0.165068
-0.169661
-0.174434
-0.179457
-0.189457
-0.179502
-0.18448
-0.184774
-0.175792
-0.177262
-0.178824
-0.170317
-0.187059
-0.183982
-0.165973
-0.163032
-0.150385
-0.173032
-0.185769
-0.188575
-0.176629
-0.134864
-0.148167
-0.171652
-0.150294
-0.138982
-0.147127
-0.168801
-0.163484
-0.140136
-0.128416
-0.128756
-0.124163
-0.0991629
-0.0961086
-0.106765
-0.106493
-0.0945928
-0.0719909
-0.043733
-0.0149321
0.0192082
0.0335068
0.0429865
0.0675114
0.0871267
0.0568326
0.0265159
0.00624438
-0.00895925
-0.0241402
0.00065612
0.015543
0.0153846
0.00531676
-0.0247059
-0.0397964
-0.174909
-0.20509
-0.200181
-0.210226
-0.230249
-0.225249
-0.205294
-0.215317
-0.205249
-0.185045
-0.184819
-0.19957
-0.239208
-0.268643
-0.302941
-0.332262
-0.276471
-0.0755656
0.265453
0.676448
1.21262
1.92412
2.48584
2.20271
1.97973
-0.483213
-1.06606
-0.828733
-0.581335
-0.438959
-0.316652
-0.239434
-0.202014
-0.169887
-0.1231
-0.121425
-0.140362
-0.124751
-0.099276
-0.104005
-0.0991855
-0.0896606
-0.100407
-0.0913122
-0.0623529
-0.0583258
-0.0792534
-0.0652489
-0.0463801
-0.0473303
-0.0681448
-0.0490497
-0.0400905
-0.0310859
-0.061561
-0.0465837
0.00343896
0.013258
0.00807696
0.0280091
0.0679412
0.0778733
0.0778281
0.107783
0.13776
0.167783
0.187692
0.222828
0.253122
0.288529
0.339072
0.374321
0.408665
0.446448
0.452285
0.445814
0.451109
0.453914
0.458167
0.442896
0.424005
0.402805
0.330995
0.268077
0.229751
0.16595
0.101652
0.0622398
0.0377149
0.00312215
-0.0565837
-0.076267
-0.0858598
-0.0952941
-0.119548
-0.138756
-0.127828
-0.131833
-0.135837
-0.139751
-0.153846
-0.14319
-0.132534
-0.146923
-0.146471
-0.14586
-0.150204
-0.159706
-0.164367
-0.149231
-0.144253
-0.124864
-0.135543
-0.136267
-0.127104
-0.138167
-0.144434
-0.11586
-0.0971267
-0.118258
-0.124502
-0.116041
-0.137805
-0.154729
-0.157036
-0.149774
-0.152783
-0.145769
-0.167873
-0.143507
-0.122353
-0.163824
-0.192262
-0.173213
-0.135362
-0.118462
-0.127715
-0.134593
-0.130045
-0.134253
-0.142421
-0.154683
-0.166312
-0.157511
-0.143462
-0.134095
-0.0845928
-0.0250453
-0.0253846
-0.0356109
0.0191629
0.0490045
0.0539366
0.0638688
0.0789593
0.0342534
0.0195701
0.0247059
0.0298643
0.015181
-0.0195249
-0.044276
-0.0239367
-0.0286425
-0.118371
-0.223235
-0.238077
-0.197624
-0.207149
-0.221833
-0.226448
-0.225792
-0.220045
-0.219095
-0.223032
-0.2219
-0.210566
-0.254072
-0.267579
-0.286018
-0.299321
-0.252398
-0.060362
0.286787
0.734253
1.29179
1.99925
2.53188
2.23957
1.04733
-0.36491
-0.977376
-0.834842
-0.567557
-0.470679
-0.373982
-0.267489
-0.221357
-0.190452
-0.179796
-0.149638
-0.139909
-0.135317
-0.14086
-0.151516
-0.12733
-0.143348
-0.149502
-0.125724
-0.126697
-0.117511
-0.0933937
-0.114299
-0.120068
-0.100814
-0.11138
-0.107014
-0.0725565
-0.0476697
-0.032466
-0.0121719
-0.0168099
-0.031267
-0.015905
-0.000610836
0.0297964
0.0801358
0.135543
0.091086
0.0716969
0.117308
0.182986
0.218733
0.214412
0.269842
0.329842
0.358846
0.406131
0.40638
0.415814
0.420136
0.418484
0.450407
0.45862
0.441765
0.430882
0.433801
0.430769
0.352059
0.322919
0.233733
0.154412
0.0898416
0.0300452
0.00513573
-0.019638
-0.0491629
-0.078552
-0.0878281
-0.0870815
-0.0913122
-0.100362
-0.109299
-0.118235
-0.142172
-0.156244
-0.155611
-0.134774
