ekg
0
-0.00500001
-0.006
-0.00428572
-0.0122222
-0.0204545
-0.0123077
0.0186667
0.0179412
0.01
-0.00380952
-0.011087
0.0024
0.0111111
0.015
-0.00532259
-0.0112121
0.00357141
0.0240541
0.0284615
0.0289024
0.0197674
0.0204444
0.0156383
0.0158163
0.0154902
0.0157547
0.0160909
0.0174562
0.00745764
0.00754099
0.0177778
0.018
0.0129851
0.00333333
-0.00161973
-0.00678083
0.0119333
0.0144805
-0.00316456
-0.0202469
-0.0278313
-0.025
-0.0267242
-0.028427
-0.0196704
-0.0207527
-0.026421
-0.0158763
-0.00434343
-0.00836634
-0.0173787
-0.0214762
-0.0102337
-0.028945
-0.0477928
-0.0465929
-0.0166957
-0.00487181
-0.0194958
-0.047438
-0.0697155
-0.11636
-0.145748
-0.153062
-0.148435
-0.147143
-0.157778
-0.143723
-0.134964
-0.131099
-0.127273
-0.108448
-0.084932
-0.0515101
-0.033245
0.00503268
0.00812903
0.00111465
-0.0108805
-0.00304348
0.0197239
0.0275758
0.025479
0.00849112
0.00652047
0.00973988
0.0183143
0.0171751
0.0164804
0.00107734
0.0111475
0.0164054
0.0117647
0.00201058
-0.023089
-0.058886
-0.0855385
-0.0830965
-0.0613568
-0.0500249
-0.0593103
-0.0536829
-0.0533817
-0.0531579
-0.0630806
-0.0829108
-0.0825814
-0.0725115
-0.0673973
-0.0772624
-0.0821946
-0.0721719
-0.0421719
0.0327828
0.117715
0.232489
0.422285
0.70733
0.987466
1.18758
1.4426
1.95256
2.4026
2.27272
2.18785
1.71285
1.45285
1.00799
0.423235
-0.111629
-0.316561
-0.256516
-0.176471
-0.161493
-0.156516
-0.156493
-0.141471
-0.146471
-0.156471
-0.161493
-0.171471
-0.156448
-0.176516
-0.166652
-0.156787
-0.156946
-0.157104
-0.157149
-0.152195
-0.15233
-0.162534
-0.15776
-0.152919
-0.153054
-0.14819
-0.153281
-0.158348
-0.158416
-0.153439
-0.148439
-0.153484
-0.148552
-0.153597
-0.17362
-0.173733
-0.173891
-0.18405
-0.194072
-0.189118
-0.204208
-0.209344
-0.229434
-0.249548
-0.264638
-0.274661
-0.304683
-0.324683
-0.349751
-0.359774
-0.384819
-0.414887
-0.434932
-0.444887
-0.459728
-0.469434
-0.47414
-0.473665
-0.468167
-0.457692
-0.437285
-0.401923
-0.376516
-0.341154
-0.285814
-0.245498
-0.215158
-0.184819
-0.144389
-0.128937
-0.123507
-0.0682127
-0.0628959
-0.067647
-0.0474434
-0.0273756
-0.0225113
-0.0228507
-0.0134389
-0.00909499
0.000271529
-0.00536195
-0.0260407
-0.0366515
-0.0321945
-0.0127375
-0.00348412
-0.0143439
-0.0151357
-0.0157692
-0.0213801
-0.0471267
-0.0579185
-0.0586425
-0.0491855
-0.0443212
-0.0141403
-0.00841627
-0.0266968
-0.0435972
-0.0391628
-0.0237556
-0.00714932
-0.0031448
0.00289592
0.0133258
0.033371
0.0363122
0.0280995
0.0278959
0.0600226
0.0747285
0.0685294
0.0676244
0.0770136
0.0764706
0.0659955
0.0654977
0.0698643
0.0688235
0.0623303
0.050181
0.0570136
0.0725565
0.0768325
0.0602714
0.0523982
0.0370588
0.0202489
0.0143213
0.00977376
0.00135746
-0.00567874
-0.0204525
-0.0274887
-0.0286878
-0.0281448
-0.0330091
-0.0381448
-0.0383485
-0.0334389
-0.0284389
-0.0334842
-0.0434616
-0.0384389
-0.0385294
-0.0485973
-0.0486878
-0.0488236
-0.0290046
-0.0241856
-0.0244571
-0.0297512
-0.0351358
-0.0405883
-0.0461539
-0.0417421
-0.0524208
-0.0532127
-0.0541177
-0.0450679
-0.0411765
-0.0473982
-0.0537783
-0.060181
-0.061629
-0.0481222
-0.0546154
-0.0611086
-0.0675792
-0.0689367
-0.0552263
-0.0463349
-0.0322399
-0.0329639
-0.0483485
-0.0585295
-0.0585068
-0.0732806
-0.0828507
-0.0823077
-0.0715837
-0.0704751
-0.054276
-0.0530543
-0.0367195
-0.0201131
-0.0134389
0.0132805
0.0301131
0.0470136
0.0589593
0.0609276
0.0528054
0.0395701
0.0412217
0.077828
0.0843665
0.0706787
0.0468099
0.0477602
0.068552
0.074095
0.069457
0.0596833
0.0447737
0.0597737
0.0549095
0.0250452
0.00502262
-0.0101131
-0.0252941
-0.0354751
-0.0555883
-0.0556787
-0.0507919
-0.0509276
-0.061086
-0.0662217
-0.0714027
-0.0666064
-0.0667195
-0.0717421
-0.07681
-0.0618778
-0.0619005
-0.0718552
-0.0667873
-0.0217194
0.0632806
0.153235
0.293145
0.508054
0.808032
1.0681
1.26324
1.56335
2.10848
2.43362
2.23873
1.93882
1.68894
1.374
0.879027
0.279027
0.0940272
-0.285973
-0.200973
-0.145995
-0.131041
-0.151131
-0.166244
-0.161312
-0.17138
-0.176493
-0.171606
-0.176719
-0.171878
-0.172014
-0.172195
-0.167308
-0.162398
-0.162511
-0.16267
-0.167828
-0.157986
-0.163145
-0.173258
-0.168416
-0.168529
-0.168597
-0.15871
-0.163869
-0.14905
-0.154208
-0.159389
-0.159525
-0.16457
-0.164661
-0.164819
-0.18
-0.175181
-0.180294
-0.200339
-0.205317
-0.225294
-0.230272
-0.245272
-0.260339
-0.26543
-0.275566
-0.310747
-0.340905
-0.356063
-0.366109
-0.371154
-0.411154
-0.421041
-0.430882
-0.445588
-0.455272
-0.454955
-0.464593
-0.464208
-0.448824
-0.418529
-0.388213
-0.36276
-0.32233
-0.281968
-0.241719
-0.211425
-0.181018
-0.150588
-0.120181
-0.0798417
-0.0545475
-0.0541855
-0.0488462
-0.0336426
-0.0285521
-0.0185747
-0.00866518
-0.0137557
-0.0238462
-0.0239819
-0.0191403
-0.00436654
-0.0147512
-0.0202941
-0.0209276
-0.0115611
-0.0171946
-0.0129186
-0.0136878
-0.0143891
-0.0300226
-0.0456787
-0.0464254
-0.0270136
-0.0171493
-0.0118326
-0.0208597
-0.023914
-0.0206109
-0.0211313
-0.0207693
-0.0190498
-0.0148643
-0.00416296
0.0157239
0.0243438
0.041923
0.0582127
0.0573529
0.0538235
0.0544796
0.053371
0.0526245
0.0521041
0.0616742
0.0712217
0.065724
0.0602488
0.0597284
0.0641629
0.0636425
0.0631221
0.0576017
0.0670814
0.0714026
0.0703845
0.0740723
0.077285
0.0698416
0.0612216
0.0514479
0.0409049
0.0343891
0.0159501
-0.00447972
0.00522617
0.0111085
0.00294109
-0.0142987
-0.0211766
-0.0343892
-0.0402716
-0.0350906
-0.0250001
-0.025249
-0.0255657
-0.025724
-0.0308824
-0.0311087
-0.0313575
-0.0467195
-0.0521041
-0.037534
-0.048077
-0.04862
-0.0391856
-0.0349548
-0.0358371
-0.0467647
-0.0477602
-0.0437557
-0.0549548
-0.061267
-0.0676018
-0.0589819
-0.0453846
-0.0467421
-0.0532127
-0.0647285
-0.0611765
-0.0674887
-0.0636425
-0.0546154
-0.0554072
-0.0560633
-0.0665158
-0.0718099
-0.0719683
-0.0719683
-0.0668552
-0.0714932
-0.0709728
-0.0704072
-0.0697285
-0.063914
-0.053009
-0.0520136
-0.0608371
-0.079638
-0.0684842
-0.0571493
-0.0407466
-0.014276
0.0172172
0.0338009
0.0404525
0.0422172
0.0589819
0.0657919
0.0676471
0.054457
0.0511086
0.0776018
0.0889593
0.0752715
0.0664027
0.0623982
0.0632127
0.0638914
0.0644344
0.064819
0.0650679
0.065181
0.0552489
0.0402941
0.0202941
0.000248864
-0.0297285
-0.0496606
-0.0596154
-0.0645928
-0.0546154
-0.0496833
-0.0447511
-0.0497738
-0.0647059
-0.069638
-0.069638
-0.0697059
-0.0647285
-0.069638
-0.0746154
-0.0695475
-0.069457
-0.0343665
0.0458145
0.11595
0.221041
0.366154
0.621312
0.886584
1.0517
1.25686
1.6871
2.12719
2.09717
1.84717
1.63233
1.44251
1.35762
0.542715
0.0277828
-0.212127
-0.192081
-0.116968
-0.116742
-0.146561
-0.15138
-0.156222
-0.156063
-0.15095
-0.150905
-0.156018
-0.146041
-0.151063
-0.156063
-0.146041
-0.150973
-0.155769
-0.150634
-0.155588
-0.150634
-0.135679
-0.140701
-0.145701
-0.150611
-0.160543
-0.145475
-0.135339
-0.135294
-0.135339
-0.140475
-0.155475
-0.155272
-0.145045
-0.149887
-0.154706
-0.15448
-0.159367
-0.154299
-0.169344
-0.179344
-0.18914
-0.208914
-0.223733
-0.238688
-0.24862
-0.278529
-0.288439
-0.288462
-0.328552
-0.338507
-0.338326
-0.353054
-0.377557
-0.392036
-0.406538
-0.411086
-0.415543
-0.424977
-0.41448
-0.394005
-0.373462
-0.342783
-0.312081
-0.261561
-0.226086
-0.195588
-0.170045
-0.13948
-0.108824
-0.0831222
-0.0576018
-0.0521493
-0.0466968
-0.0263122
-0.0162217
-0.0213801
-0.0215837
-0.0219683
-0.0225339
-0.0130995
-0.00364251
-0.00402712
-0.0144796
-0.0250452
-0.0156561
-0.00619905
0.00328058
-0.00726242
-0.0277375
-0.0133258
-0.0239819
-0.0345927
-0.0250226
-0.0403167
-0.0302715
-0.0147058
-0.0135972
-0.0268325
-0.0538235
-0.0195701
-0.0294796
-0.0434163
-0.0104525
0.0144797
0.0393665
0.0280543
0.0307466
0.0425565
0.0540271
0.0518551
0.042466
0.0569909
0.051561
0.0264479
0.0364027
0.0359728
0.0351357
0.0339366
0.0423077
0.0398416
0.0659955
0.0559276
0.0399321
0.0275113
0.0226697
0.00610857
-0.035
-0.039819
-0.0283937
-0.0105883
-0.0255883
-0.0378054
-0.0476697
-0.0566742
-0.0361312
-0.0360633
-0.0559502
-0.0457692
-0.020724
-0.00570136
-0.0307014
-0.0656109
-0.0704751
-0.0552036
-0.0700679
-0.0849774
-0.0598643
-0.049819
-0.0197059
-0.0347511
-0.079819
-0.0848643
-0.075
-0.0402036
-0.0354299
-0.0407693
-0.0511991
-0.0467874
-0.0223982
-0.0431448
-0.0589141
-0.0547059
-0.075543
-0.0664706
-0.0574435
-0.0485294
-0.0547059
-0.0557919
-0.0418552
-0.0528055
-0.0737331
-0.0795476
-0.0751131
-0.0504978
-0.0506335
-0.0603846
-0.0699095
-0.0743439
-0.0936199
-0.102692
-0.061448
-0.0450453
-0.053552
-0.0519231
-0.00502264
0.0320588
0.014095
0.0361312
0.068371
0.0656108
0.0727828
0.0449547
0.0670588
0.0889819
0.0858145
0.0674661
0.0639593
0.0703846
0.0616063
0.0824434
0.0931674
0.0886878
0.0490498
0.0543213
0.0594344
0.014638
-0.00013575
0
-0.0200226
-0.030181
-0.0502036
-0.0603846
-0.0506787
-0.0457918
-0.0658597
-0.0507918
-0.0457466
-0.040724
-0.0506561
-0.0605204
-0.0854751
-0.0854977
-0.0754072
-0.0703846
-0.0854072
-0.0303393
0.0545702
0.12948
0.224389
0.414389
0.71948
0.984706
1.19982
1.50984
2.03993
2.43005
2.32507
2.03495
1.76484
1.45486
0.975
0.375
-0.15
-0.345023
-0.250113
-0.155113
-0.150113
-0.155271
-0.125475
-0.120588
-0.120611
-0.155724
-0.166018
-0.18638
-0.161629
-0.156923
-0.162398
-0.152783
-0.163077
-0.143213
-0.148371
-0.163733
-0.16414
-0.164502
-0.174683
-0.159864
-0.170068
-0.145271
-0.140452
-0.150566
-0.155769
-0.151018
-0.156199
-0.161516
-0.166833
-0.157036
-0.142172
-0.16733
-0.182489
-0.197534
-0.182602
-0.187805
-0.213054
-0.223235
-0.228326
-0.278439
-0.298575
-0.293733
-0.298891
-0.314118
-0.359367
-0.369457
-0.384457
-0.409525
-0.449638
-0.47957
-0.474321
-0.474095
-0.518778
-0.518326
-0.492896
-0.482443
-0.467172
-0.436878
-0.426539
-0.376267
-0.331176
-0.306176
-0.271222
-0.206335
-0.166493
-0.131629
-0.106765
-0.0769231
-0.0570815
-0.067353
-0.0577828
-0.0382127
-0.0186199
-0.0191403
-0.0197059
-0.000362009
0.00395926
-0.0116742
-0.00728507
-0.0229864
-0.0384842
-0.0388914
-0.0441855
-0.0544344
-0.0396833
-0.0349774
-0.045181
-0.0353168
-0.0504525
-0.0607014
-0.0256335
-0.0252036
-0.0244344
-0.0332579
-0.0512444
-0.0478055
-0.0231448
-0.00751132
-0.0204299
-0.0109502
0.0151584
0.0255204
0.0392308
0.0362218
0.0410634
0.062534
0.0500226
0.0392308
0.0365612
0.027534
0.0165385
0.0201584
0.0298417
0.0256788
0.0124661
0.00101815
0.000113167
0.00882358
-0.00108592
-0.00570131
0.0193439
0.0241403
0.0141403
0.00923082
-0.000588186
-0.000497684
0.00445706
0.00443444
-0.000542939
0.00443444
0.00445707
-0.00556555
-0.00563343
0.00441182
0.00452494
-0.000316694
-0.0102715
-0.000339314
0.00963806
-0.00545245
-0.0104751
-0.010362
-0.0104072
-0.0204977
-0.0256787
-0.0158371
-0.0110407
-0.0212896
-0.0165611
-0.0117873
-0.0171946
-0.0227602
-0.0283484
-0.033914
-0.039457
-0.035181
-0.0409728
-0.03681
-0.0276923
-0.0236878
-0.029819
-0.0458597
-0.0468326
-0.0479186
-0.0489366
-0.0497511
-0.0404525
-0.0259502
-0.0162443
-0.00647058
0.0136199
0.0289819
0.0444797
0.0501584
0.0811086
0.0872625
0.0836426
0.0500226
0.0564253
0.0877828
0.0789819
0.0650453
0.0609955
0.0668326
0.0675566
0.0681448
0.063733
0.0642534
0.0645701
0.0648416
0.0349774
0.0200226
4.52325e-05
-0.0200226
-0.0301584
-0.0452036
-0.0651584
-0.0701131
-0.0651358
-0.0553168
-0.070543
-0.065543
-0.0654978
-0.0604525
-0.0554751
-0.0656109
-0.0708371
-0.0710407
-0.0811086
-0.0811991
-0.0513349
0.0086199
0.0836199
0.193643
0.358688
0.623733
0.903869
1.10398
1.32403
1.7191
2.24919
2.33928
2.09939
1.87455
1.66973
1.27993
1.1252
0.0955204
-0.229186
-0.269005
-0.188846
-0.138529
-0.173235
-0.203009
-0.202783
-0.187647
-0.172579
-0.177511
-0.187353
-0.187149
-0.181968
-0.18181
-0.146674
-0.166584
-0.191516
-0.206448
-0.176357
-0.156199
-0.170973
-0.160747
-0.165634
-0.180588
-0.170588
-0.175543
-0.17052
-0.160543
-0.155498
-0.17043
-0.175385
-0.190294
-0.200136
-0.185
-0.174887
-0.184751
-0.204729
-0.209796
-0.204864
-0.209887
-0.224796
-0.239638
-0.23948
-0.254367
-0.269344
-0.289344
-0.304299
-0.324208
-0.339072
-0.368914
-0.383756
-0.388665
-0.40862
-0.423552
-0.428462
-0.433281
-0.428122
-0.432941
-0.447783
-0.422624
-0.397534
-0.367466
-0.34233
-0.302262
-0.257195
-0.212081
-0.186968
-0.156878
-0.136787
-0.116765
-0.0867648
-0.0717648
-0.0566969
-0.0516516
-0.046629
-0.0315837
-0.026448
-0.031267
-0.0461086
-0.0560407
-0.0310407
-0.0110407
-0.0109276
-0.0258371
-0.0357014
-0.0355656
-0.0304299
-0.0252489
-0.00511315
0.00999998
-0.00986427
-0.0247964
-0.0147059
-0.0195928
-0.0294118
-0.0292534
-0.0439593
-0.0435747
-0.0431222
-0.0477602
-0.0375113
-0.0371946
-0.0417873
-0.0413349
-0.0309955
-0.0203846
-0.0195701
-0.0287556
-0.0481221
-0.0509276
-0.0357013
-0.0202262
-0.0199095
-0.0293891
-0.019095
-0.0140271
-0.0191855
-0.00929861
0.00570139
0.0107466
-0.00923073
-0.0242534
-0.0142081
-0.00916287
-0.0141629
-0.00398189
0.011086
0.0110407
0.000927605
-0.0240498
-0.028914
-0.0188461
-0.00875565
0.00126696
0.0112443
0.00128958
-0.00366516
0.00142536
-0.00346155
-0.00325792
-0.00819004
-0.0132579
-0.0233711
-0.0235068
-0.0235747
-0.0335747
-0.0136199
0.00133484
0.00633483
-0.00864255
-0.0286425
-0.0336652
-0.0286425
-0.023552
-0.0184389
-0.0133258
-0.0232579
-0.0331448
-0.0430091
-0.0378507
-0.0227602
0.00237555
0.0225792
0.0377375
0.0479637
0.0432353
0.0534842
0.0787783
0.0890498
0.084276
0.0645022
0.0747511
0.0900452
0.0952489
0.0804072
0.0655882
0.0708371
0.0760407
0.0761991
0.086267
0.0913575
0.0915385
0.0766742
0.0517647
0.0417647
0.0167421
-0.0232127
-0.0431222
-0.0530769
-0.0531674
-0.0433032
-0.0383032
-0.0532127
-0.0631222
-0.0680996
-0.06819
-0.0632805
-0.0683032
-0.0682579
-0.0680996
-0.0728959
-0.0677828
-0.0726923
-0.0475339
-0.0024208
0.0776471
0.15767
0.302647
0.552647
0.852647
1.07762
1.2826
1.65749
2.17735
2.29233
1.99238
1.72247
1.51749
1.1674
0.667217
0.0719457
-0.308235
-0.313326
-0.278461
-0.178642
-0.163824
-0.143959
-0.154118
-0.164208
-0.159231
-0.159231
-0.159344
-0.17457
-0.169751
-0.159864
-0.165023
-0.160226
-0.160385
-0.160543
-0.160633
-0.165814
-0.166041
-0.161244
-0.151335
-0.15638
-0.161425
-0.166516
-0.171606
-0.166652
-0.181742
-0.166855
-0.141946
-0.147014
-0.152149
-0.152353
-0.157557
-0.157738
-0.177783
-0.192738
-0.19267
-0.192715
-0.202896
-0.228145
-0.243371
-0.263575
-0.278801
-0.289027
-0.314367
-0.339819
-0.360385
-0.376018
-0.401561
-0.421968
-0.43224
-0.462466
-0.477715
-0.477941
-0.483077
-0.4831
-0.488077
-0.463077
-0.44319
-0.423281
-0.378281
-0.328258
-0.288303
-0.258348
-0.22319
-0.182964
-0.142557
-0.127036
-0.116471
-0.0908597
-0.0652715
-0.0397738
-0.0293665
-0.029095
-0.0339819
-0.0288914
-0.0138688
-0.0139141
-0.0188914
-0.0187783
-0.0187557
-0.018801
-0.00384619
-0.00400456
-0.0143892
-0.0250906
-0.0313123
-0.0282806
-0.0314028
-0.0458372
-0.0556788
-0.0569005
-0.0647059
-0.0645023
-0.0793666
-0.0924888
-0.0983485
-0.101923
-0.0927376
-0.0702263
-0.063371
-0.0776018
-0.071199
-0.0614932
-0.03819
-0.0157692
-0.00988682
0.00873306
0.00466065
-0.00106329
0.00821272
0.00764713
0.0175566
0.012534
0.0125114
0.00742087
0.00737562
0.00733037
0.0122851
0.0221494
0.0219684
0.0118779
0.0167874
0.0367195
0.0416969
0.0416064
0.0164933
0.0113801
0.0162444
0.0211539
0.00604079
0.00592767
0.0158598
0.0158145
0.0107693
0.0056788
0.0105883
0.0154978
0.00549781
-0.00438906
0.00070142
0.0158598
0.0161313
0.00140276
-0.00825787
-0.0129185
-0.0126018
-0.0021719
0.00837106
0.0189367
0.019457
0.0199548
0.0304977
0.036086
0.0516742
0.0671267
0.0824886
0.102828
0.0980769
0.0931447
0.0830316
0.0877827
0.102262
0.0915158
0.0805882
0.0795475
0.0782805
0.0768778
0.0804977
0.0840724
0.0775566
0.0761765
0.0749547
0.0588462
0.0178507
0.00701357
-0.0336878
-0.0491855
-0.0546154
-0.0650453
-0.0753846
-0.0806335
-0.0707466
-0.0658145
-0.0708824
-0.0859728
-0.0810181
-0.0660181
-0.0710181
-0.0859955
-0.0809502
-0.0758824
-0.0808371
-0.0557692
-0.000678733
0.0644118
0.179434
0.344412
0.594457
0.889525
0.974593
1.30462
1.69959
2.21952
2.3145
2.0745
1.8245
1.61955
1.23455
0.704548
0.119638
-0.225294
-0.250294
-0.175339
-0.135453
-0.145543
-0.155566
-0.155588
-0.155566
-0.170543
-0.175543
-0.175475
-0.180362
-0.180226
-0.160113
-0.154977
-0.17491
-0.169842
-0.169729
-0.149593
-0.154412
-0.169299
-0.159253
-0.169118
-0.173869
-0.158665
-0.153462
-0.153326
-0.15319
-0.163009
-0.152783
-0.142579
-0.157398
-0.16724
-0.172127
-0.166991
-0.161878
-0.176742
-0.181561
-0.181403
-0.18129
-0.201109
-0.225882
-0.230701
-0.245611
-0.265611
-0.275701
-0.300769
-0.325792
-0.34086
-0.355973
-0.366176
-0.396471
-0.421719
-0.431878
-0.426923
-0.431968
-0.446991
-0.441923
-0.426765
-0.406561
-0.386448
-0.356448
-0.32138
-0.281357
-0.261222
-0.211041
-0.185837
-0.165543
-0.135181
-0.0947964
-0.0793213
-0.063733
-0.0480543
-0.0424208
-0.0419683
-0.0315611
-0.0363348
-0.0361538
-0.0260407
-0.0209955
-0.0158824
-0.0207692
-0.0206787
-0.0205882
-0.0204751
-0.025362
-0.0202715
-0.0202262
-0.0303846
-0.0359955
-0.0420588
-0.038733
-0.0315385
-0.040543
-0.0551584
-0.0552489
-0.0564706
-0.0741855
-0.0861086
-0.100566
-0.0984842
-0.0840271
-0.0714253
-0.0644118
-0.0662443
-0.0605882
-0.0609049
-0.0426018
-0.0261991
-0.0221946
-0.0158371
-0.0260407
-0.0213348
-0.00619911
0.00407239
0.00423077
0.0043439
0.00945701
0.00459277
0.00466064
-0.000316747
-0.0102715
-0.00529411
-0.00533937
-0.0102489
-0.000135735
-9.04873e-05
-0.0100452
-0.00999998
-0.00984161
0.00540727
0.0105204
-0.00443437
-0.00943437
0.00558825
0.00567874
-0.00423076
-0.00918549
-0.0141629
-0.0191176
-0.0290045
-0.0237104
-0.00846152
0.00174209
-0.00803167
-0.00764706
-0.00719458
-0.01181
-0.0163801
-0.015905
-0.025362
-0.0197511
-0.00909504
-0.00348417
0.00708144
0.0226471
0.0182579
0.0188461
0.0394344
0.0600679
0.080724
0.10129
0.101697
0.0869683
0.0771267
0.0921493
0.102059
0.101765
0.0763348
0.0607692
0.0700679
0.0992986
0.0985747
0.0978959
0.0622172
0.0515158
0.0460407
0.0256109
0.0151584
0.014819
-0.0102489
-0.0353168
-0.0554072
-0.0604072
-0.0603394
-0.0602715
-0.0602036
-0.0651584
-0.0550905
-0.0499547
-0.0747964
-0.079638
-0.0645475
-0.0594118
-0.0692534
-0.084095
-0.0739593
-0.0488009
-0.00861991
0.0764932
0.181584
0.321697
0.566787
0.856968
1.04715
1.21731
1.58242
2.07747
2.15249
1.90256
1.6476
1.45262
1.15265
0.69776
0.537919
-0.252036
-0.287081
-0.187172
-0.152172
-0.152104
-0.152104
-0.152104
-0.157172
-0.17724
-0.16724
-0.152127
-0.151991
-0.151923
-0.1569
-0.156923
-0.151923
-0.156923
-0.146946
-0.141946
-0.151923
-0.1519
-0.156833
-0.151719
-0.151629
-0.156606
-0.181606
-0.166561
-0.141516
-0.141493
-0.151471
-0.15138
-0.146267
-0.136199
-0.131199
-0.146199
-0.151176
-0.181176
-0.186176
-0.186131
-0.196041
-0.225905
-0.235837
-0.235882
-0.251041
-0.261312
-0.276674
-0.312172
-0.347692
-0.343167
-0.348552
-0.368824
-0.389072
-0.409412
-0.434774
-0.460045
-0.480158
-0.470113
-0.464977
-0.459955
-0.445023
-0.410113
-0.390045
-0.359887
-0.324706
-0.279593
-0.229389
-0.19405
-0.173462
-0.147805
-0.107149
-0.0816516
-0.0811991
-0.065724
-0.0402941
-0.0348642
-0.0545022
-0.0393213
-0.019276
-0.0242308
-0.0342081
-0.0342308
-0.0242081
-0.0241403
-0.0291855
-0.0344796
-0.0350226
-0.0309955
-0.0226018
-0.0350905
-0.0429412
-0.0478733
-0.0536199
-0.0606335
-0.0748869
-0.0804073
-0.0897964
-0.107534
-0.10362
-0.117353
-0.122783
-0.124751
-0.103733
-0.0754072
-0.0701131
-0.0747737
-0.0706335
-0.0525339
-0.030362
-0.0345927
-0.0408371
-0.0227828
-0.00825787
-0.00891399
-0.019095
-0.024095
-0.00909497
-0.00409498
0.000905
0.00583712
0.00570139
-0.00941174
-0.0145022
0.000429899
0.0153394
0.0202263
0.0151131
0.01
0.00486426
0.00477377
-0.000294104
-0.00536198
-0.00542985
-0.0155203
-0.0205656
-0.00565609
-0.000791833
0.00402716
0.00895928
-0.00099548
-0.0059276
-0.00581448
-0.0106561
-0.0104525
-0.000113115
-0.00477375
-0.0143891
-0.0189593
-0.0136199
-0.00816744
-0.00762445
-0.0270815
-0.0115837
0.0139819
0.0346606
0.0553394
0.0760181
0.0966516
0.107172
0.107489
0.0927828
0.0780317
0.0880995
0.102964
0.107602
0.107081
0.0912217
0.0750678
0.0737556
0.0973303
0.100837
0.094276
0.0726923
0.0611765
0.054819
0.043552
0.0073982
-0.013552
-0.0393213
-0.055
-0.0556109
-0.0560634
-0.0563801
-0.0666742
-0.0768778
-0.0869683
-0.0720588
-0.0572624
-0.0524208
-0.0724661
-0.0725113
-0.0625565
-0.0725792
-0.0826018
-0.0625792
0.0024887
0.0625113
0.132421
0.267308
0.47724
0.562195
1.01217
1.17717
1.46719
1.98724
2.30724
2.14219
1.88213
1.65699
1.38186
0.941674
0.366516
-0.123643
-0.268733
-0.208756
-0.143801
-0.128869
-0.153959
-0.144118
-0.134253
-0.144412
-0.149593
-0.159706
-0.154774
-0.159819
-0.16491
-0.165045
-0.165113
-0.165113
-0.155045
-0.160023
-0.155068
-0.145204
-0.150362
-0.145475
-0.14552
-0.145475
-0.140407
-0.140362
-0.140339
-0.140294
-0.150204
-0.150136
-0.150113
-0.155158
-0.145294
-0.140385
-0.155453
-0.165453
-0.165407
-0.170362
-0.190362
-0.20043
-0.205475
-0.225498
-0.220475
-0.245453
-0.260498
-0.270566
-0.300611
-0.320634
-0.330656
-0.350769
-0.375814
-0.400769
-0.415656
-0.425407
-0.430023
-0.439593
-0.42914
-0.418688
-0.413303
-0.3931
-0.367896
-0.33767
-0.327489
-0.27733
-0.23233
-0.187466
-0.157602
-0.137602
-0.107534
-0.0675113
-0.0626471
-0.0678507
-0.0530317
-0.0332127
-0.0285068
-0.0339593
-0.0345476
-0.0252263
-0.0208371
-0.0264027
-0.0320362
-0.0376697
-0.0382127
-0.0336878
-0.0290046
-0.0241856
-0.0292308
-0.0342987
-0.0443665
-0.0494118
-0.0394797
-0.0495928
-0.0646154
-0.0593213
-0.0337783
-0.0229186
-0.0214254
-0.0339593
-0.0410634
-0.0411539
-0.0404978
-0.0385747
-0.0243439
0.000927567
0.0151131
0.0275792
0.0433937
0.0468326
0.0371719
0.0291176
0.0229185
0.0193665
0.00909505
-0.0109502
-0.019819
-0.00285065
-9.04799e-05
-0.010724
-0.0191176
-0.0200679
-0.0147285
-0.0194796
-0.0196154
-0.0148643
-0.015
-0.0250679
-0.0351357
-0.020181
-0.00513574
-4.52474e-05
-1.49012e-08
0.00502262
0.0051131
-0.0097964
-0.0197285
-0.0196607
-0.0195701
-0.024457
-0.0393665
-0.0393213
-0.0292987
-0.0242987
-0.0093213
-0.00438918
-0.00441181
-0.0144344
-0.0195249
-0.0296154
-0.0246833
-0.00981905
-0.0199774
-0.0252037
-0.0255204
-0.0307467
-0.0261539
-0.0266743
-0.0271041
-0.0275792
-0.0281448
-0.0288236
-0.0295476
-0.0253394
-0.0211765
-0.0320136
-0.0427602
-0.0334163
-0.0290272
-0.0295249
-0.0299548
-0.00531676
0.00450225
0.0144796
0.029638
0.0349321
0.0554977
0.0712669
0.0722398
0.0683484
0.0594796
0.0656787
0.0819909
0.0882353
0.0793891
0.0704525
0.0614027
0.0772172
0.082828
0.0883032
0.0737556
0.0641403
0.079457
0.0696833
0.0397511
0.0147511
-0.00520361
-0.0200905
-0.0449774
-0.0599774
-0.0600226
-0.0550905
-0.060181
-0.0602262
-0.0602941
-0.0653846
-0.0604977
-0.0604751
-0.0653393
-0.0702036
-0.0802488
-0.0754298
-0.075543
-0.0656335
-0.0557466
0.0341403
0.109072
0.229118
0.369299
0.61957
0.864774
1.03986
1.24489
1.61993
2.06002
2.07511
1.83016
1.6202
1.45534
1.1105
0.605634
0.0607692
-0.23414
-0.209027
-0.128869
-0.108778
-0.13371
-0.148643
-0.14862
-0.143552
-0.168416
-0.173258
-0.153077
-0.152851
-0.162602
-0.162443
-0.157353
-0.152308
-0.15733
-0.162353
-0.157376
-0.157466
-0.152557
-0.147602
-0.147602
-0.127534
-0.132421
-0.14733
-0.142285
-0.14224
-0.15224
-0.157195
-0.162081
-0.151968
-0.151878
-0.166833
-0.151787
-0.141629
-0.171448
-0.191335
-0.191312
-0.176222
-0.186086
-0.195973
-0.21086
-0.225747
-0.255611
-0.280498
-0.300339
-0.315181
-0.320023
-0.32991
-0.349661
-0.359344
-0.368982
-0.388575
-0.398167
-0.397715
-0.397285
-0.396901
-0.381606
-0.366448
-0.351335
-0.331244
-0.316154
-0.281041
-0.235905
-0.200837
-0.16086
-0.130815
-0.115611
-0.0954073
-0.0852489
-0.0700679
-0.0399548
-0.025
-0.0302263
-0.0405204
-0.0357466
-0.0160408
-0.0113575
-0.0165611
-0.0166064
-0.0165611
-0.0214933
-0.0314706
-0.0213801
-0.0262896
-0.0411313
-0.0409503
-0.0158824
0.004095
-0.0159276
-0.0259276
-0.0258371
-0.0206788
-0.0150226
-0.0340046
-0.0575113
-0.0654073
-0.0474435
-0.0285521
-0.0141177
-0.0140724
-0.0129412
-0.00597285
-0.000361934
0.00314489
0.00972854
0.0135973
0.0085068
-0.00404978
-0.00273755
-0.0114932
-0.0340498
-0.0245701
-0.0175113
-0.0179412
-0.0169683
-0.0359955
-0.0356108
-0.0255203
-0.0254298
-0.0353393
-0.0352715
-0.0152488
-0.0152488
-0.0152262
-0.000113048
6.79493e-05
-0.00486417
-0.00484157
-0.00481891
-0.00477367
-0.00968321
-0.00959271
-0.0144344
-0.00927598
-0.00918549
-0.0140724
-0.0140271
-0.0189819
-0.0189367
-0.0289367
-0.0288914
-0.0188235
-0.0238236
-0.0437783
-0.0487104
-0.0337557
-0.0138009
-0.0288009
-0.0387783
-0.0338009
-0.0288688
-0.0239819
-0.039095
-0.044276
-0.0445023
-0.0397285
-0.0400226
-0.0302715
-0.0354525
-0.0405656
-0.0407014
-0.0358597
-0.0309728
-0.0209955
-0.000904955
0.00929868
0.0246154
0.0451358
0.0607693
0.0814706
0.0872851
0.0731901
0.0591855
0.0652715
0.101448
0.0926697
0.0638688
0.0499321
0.050905
0.0616968
0.0673982
0.0730543
0.0886425
0.0841177
0.0543892
0.0445701
0.0347285
0.00988689
-0.02
-0.0449095
-0.0497964
-0.0396606
-0.0596606
-0.0546833
-0.0697511
-0.0798869
-0.0599547
-0.0499095
-0.044819
-0.0497964
-0.0597511
-0.0646833
-0.0846154
-0.0895249
-0.0744796
-0.0695249
-0.00970588
0.0301131
0.085
0.154955
0.289977
0.544977
0.859955
1.07993
1.29493
1.72993
2.25993
2.29989
2.0048
1.7248
1.48482
1.1148
0.564819
-0.0151358
-0.340091
-0.340023
-0.205068
-0.165204
-0.170317
-0.150407
-0.145566
-0.145769
-0.140814
-0.14086
-0.155973
-0.176063
-0.156199
-0.141312
-0.141335
-0.141335
-0.146335
-0.14638
-0.141448
-0.146516
-0.146538
-0.146561
-0.131584
-0.141629
-0.146697
-0.141765
-0.14181
-0.146833
-0.146833
-0.141855
-0.136991
-0.142104
-0.162104
-0.172014
-0.162036
-0.162149
-0.16224
-0.167285
-0.182285
-0.197308
-0.212443
-0.23267
-0.232873
-0.248032
-0.273077
-0.308122
-0.313167
-0.318167
-0.34819
-0.378213
-0.403213
-0.4281
-0.452941
-0.482715
-0.492398
-0.492014
-0.496538
-0.501109
-0.485747
-0.460385
-0.444909
-0.414321
-0.378846
-0.333529
-0.293281
-0.243009
-0.207738
-0.167534
-0.137353
-0.117195
-0.0821267
-0.0572172
-0.032466
-0.0278054
-0.0232805
-0.0188687
-0.0245022
-0.0352036
-0.0159276
-0.0016968
0.00262447
0.00194575
-0.0137782
-0.0144796
-0.00520359
-0.0109049
-0.0266063
-0.0323755
-0.0280995
-0.0287782
-0.0394117
-0.0448868
-0.0252036
-0.0101583
-0.00988683
-0.0143438
-0.0334841
-0.0320135
-0.0244117
-0.020362
-0.0202941
-0.00923074
0.00377831
0.0241403
0.0397059
0.0389594
0.0419684
0.0438462
0.0540272
0.0617421
0.0617195
0.0548643
0.0576471
0.0754525
0.0776245
0.0684842
0.0682806
0.072353
0.0502715
0.0409955
0.0449774
0.0436879
0.0442082
0.025792
-0.00151571
-0.0119456
-0.0149094
-0.0105655
-0.00524877
-0.010113
-0.0152714
-0.0154976
-0.020656
-0.0156786
-0.0157465
-0.0158596
-0.0309049
-0.0359275
-0.0309501
-0.0309502
-0.0259728
-0.036018
-0.0460633
-0.0462217
-0.0364705
-0.0266741
-0.0268551
-0.0320814
-0.0373076
-0.0476018
-0.0279185
-0.00825787
-0.00868773
-0.0191628
-0.0347511
-0.0404524
-0.0462443
-0.057104
-0.048009
-0.0440045
-0.0401131
-0.0463348
-0.0476696
-0.0490724
-0.0505882
-0.0521719
-0.0537104
-0.0402262
-0.0417873
-0.0581901
-0.0794344
-0.0705882
-0.0564027
-0.051991
-0.0523077
-0.0573982
-0.047172
-0.0267421
-0.0160634
0.00484161
0.0209276
0.0272624
0.0537556
0.0653393
0.0719683
0.0686651
0.055362
0.0669457
0.083371
0.0747964
0.0611086
0.0472624
0.0483258
0.0641629
0.0797964
0.0802941
0.075724
0.0809502
0.0660633
0.0361765
0.0212217
0.00113121
-0.0290724
-0.0492987
-0.0594344
-0.0645249
-0.064638
-0.0648416
-0.0600452
-0.0652489
-0.0703846
-0.075543
-0.0707466
-0.0609276
-0.0660407
-0.0711765
-0.0763575
-0.0665385
-0.0617421
-0.0668779
-0.0420136
0.037828
0.117692
0.247557
0.427489
0.712489
0.967557
1.13267
1.38778
1.87778
2.26276
2.30778
1.88787
1.67305
1.44324
1.0283
0.483258
-0.0318778
-0.246946
-0.2019
-0.1419
-0.126968
-0.142059
-0.157149
-0.157217
-0.15233
-0.162443
-0.167579
-0.172692
-0.177805
-0.167986
-0.158145
-0.163348
-0.15862
-0.148914
-0.149163
-0.154366
-0.144593
-0.149864
-0.150113
-0.160385
-0.170588
-0.170724
-0.160837
-0.15095
-0.151154
-0.166403
-0.156652
-0.151946
-0.162217
-0.167466
-0.16767
-0.167828
-0.178009
-0.183258
-0.178529
-0.188733
-0.198937
-0.194072
-0.214186
-0.224344
-0.229593
-0.274842
-0.290091
-0.305317
-0.315453
-0.335611
-0.345769
-0.36086
-0.38086
-0.400837
-0.420747
-0.430543
-0.425181
-0.429774
-0.439389
-0.434027
-0.413733
-0.388439
-0.368032
-0.327624
-0.287262
-0.266991
-0.231787
-0.186538
-0.146199
-0.13586
-0.105543
-0.0852036
-0.0799321
-0.0647738
-0.0447285
-0.024819
-2.26423e-05
-0.00529414
-0.0156109
-0.0159729
-0.0163801
-0.0168779
-0.0124435
-0.0280996
-0.0287783
-0.0145249
-0.0152715
-0.0209276
-0.0116516
-0.0124887
-0.0183258
-0.0190046
-0.0296381
-0.0252942
-0.0208598
-0.0311313
-0.0260634
-0.0203168
-0.0287331
-0.0458598
-0.04681
-0.0318778
-0.0157014
-0.00226241
0.0130317
0.0186652
0.0174208
0.0151358
0.0267647
0.0515159
0.0739141
0.0640272
0.0431222
0.0474435
0.0570362
0.0616516
0.0562444
0.0557919
0.0653394
0.0649321
0.0544797
0.0438914
0.0480543
0.0618778
0.0603168
0.0581448
0.06
0.0606335
0.0555204
0.0496833
0.0475792
0.0433937
0.0232806
0.00909504
0.00520363
0.00260182
-0.00891403
-0.0233258
-0.0201131
-0.0150679
-0.0197964
-0.019819
-0.0150678
-0.0153167
-0.0204298
-0.035543
-0.0307239
-0.0159502
-0.0111312
-0.0263574
-0.0266063
-0.0268552
-0.0320588
-0.0373529
-0.0377375
-0.0282126
-0.0137556
-0.0143665
-0.0350905
-0.0358823
-0.0267873
-0.0227828
-0.0338688
-0.0199774
-0.0211765
-0.0424887
-0.0538462
-0.0552263
-0.0466064
-0.0479865
-0.0493439
-0.0406335
-0.0517195
-0.0626923
-0.0685068
-0.0641177
-0.0495702
-0.044819
-0.0498869
-0.0498416
-0.0496833
-0.0492534
-0.0486652
-0.0530543
-0.042353
-0.0313575
-0.0352263
-0.0389819
-0.0377149
-0.0313801
-0.0199321
0.00162896
0.0233032
0.0400226
0.0416968
0.0534163
0.0602036
0.0520362
0.0638235
0.0855204
0.0820814
0.0585294
0.0548643
0.0559502
0.0618552
0.0776923
0.0833484
0.063914
0.0594118
0.059819
0.0550226
0.0251584
0.00522623
-0.00477377
-0.0298643
-0.0599321
-0.065
-0.0500905
-0.0402263
-0.0402941
-0.0652941
-0.0752263
-0.065181
-0.0702263
-0.070181
-0.060181
-0.070181
-0.075181
-0.0752263
-0.0802262
-0.0802036
-0.0552036
-0.00522625
0.0647285
0.159728
0.304842
0.514955
0.790091
0.965272
1.12554
1.40081
1.871
2.07113
1.86627
1.79143
1.49661
1.25679
0.801946
0.231991
-0.173009
-0.238009
-0.162941
-0.107828
-0.117692
-0.152579
-0.152489
-0.137489
-0.137489
-0.152421
-0.137308
-0.142217
-0.152081
-0.157014
-0.157036
-0.147127
-0.132195
-0.162262
-0.162217
-0.152127
-0.147104
-0.142172
-0.132285
-0.12733
-0.142376
-0.14233
-0.137308
-0.137308
-0.127308
-0.132262
-0.142172
-0.142172
-0.137217
-0.157217
-0.162285
-0.157376
-0.162398
-0.177376
-0.187353
-0.182353
-0.167376
-0.182398
-0.212466
-0.227489
-0.227421
-0.23233
-0.277217
-0.287104
-0.287081
-0.297059
-0.321991
-0.3469
-0.371742
-0.396448
-0.401109
-0.405815
-0.415543
-0.415204
-0.424796
-0.419389
-0.388914
-0.358258
-0.337692
-0.31233
-0.267014
-0.221652
-0.201267
-0.170837
-0.145362
-0.125023
-0.114819
-0.0896607
-0.0796154
-0.0547511
-0.03
-0.00531676
-0.00574663
-0.0112896
-0.0168326
-0.017353
-0.0278507
-0.0233032
-0.0188688
-0.024457
-0.0250227
-0.0406109
-0.0212217
-0.0167874
-0.0223982
-0.0130091
-0.0135521
-0.0190498
-0.0245023
-0.0297512
-0.0196833
-0.0142308
-0.0383484
-0.03681
-0.034276
-0.0354299
-0.0507692
-0.0454525
-0.0138914
0.00981901
0.0094796
0.00819002
0.0165611
0.0285973
0.0345475
0.0534615
0.069819
0.074276
0.0531447
0.0420588
0.0408597
0.0441176
0.0411538
0.041742
0.0413122
0.0350226
0.0220135
0.00160629
-0.0197286
-0.0149548
-0.00884621
-0.00676475
-0.018258
-0.012353
-0.0238462
-0.0335747
-0.037896
-0.0176471
0.00239817
-0.00753396
-0.0174887
-0.022534
-0.0174435
-0.032353
-0.0423077
-0.052172
-0.0520362
-0.0319457
-0.0219005
-0.02181
-0.0167873
-0.0218326
-0.0418778
-0.0469457
-0.0320136
-0.0221719
-0.0223303
-0.0224208
-0.0125565
-0.022828
-0.0431674
-0.053552
-0.0489593
-0.0395701
-0.0252262
-0.030905
-0.0416063
-0.0423303
-0.0481674
-0.0591176
-0.050181
-0.0263122
-0.0224435
-0.0285521
-0.0396154
-0.0506335
-0.0565838
-0.0773756
-0.0630317
-0.0434389
-0.0386199
-0.0485973
-0.0482806
-0.0427602
-0.0470362
-0.036086
-0.00997739
0.00126697
0.0227828
0.0344118
0.0411765
0.0480769
0.050181
0.0472851
0.0442534
0.0561312
0.0630091
0.0546833
0.0561991
0.0525566
0.0587104
0.0596606
0.0653167
0.0659502
0.0664932
0.0618778
0.0472398
0.0324661
0.0226471
0.00273755
-0.0173077
-0.0323756
-0.0323756
-0.0324435
-0.0425113
-0.0575792
-0.0626697
-0.0478959
-0.0481674
-0.0533258
-0.0633937
-0.0584389
-0.0585521
-0.0586878
-0.0588236
-0.0639367
-0.0689593
-0.0539367
0.0111086
0.0761312
0.156154
0.266131
0.501063
0.821041
1.06106
1.25113
1.6162
2.16131
2.36136
2.10627
1.80618
1.59113
1.28622
0.771312
0.166403
-0.223597
-0.303643
-0.203665
-0.153643
-0.148575
-0.138529
-0.133484
-0.163507
-0.158529
-0.148597
-0.15871
-0.163959
-0.164231
-0.154389
-0.15948
-0.16457
-0.154683
-0.149819
-0.150023
-0.165226
-0.155362
-0.150452
-0.150475
-0.15552
-0.155566
-0.155679
-0.145837
-0.146063
-0.14629
-0.146448
-0.141471
-0.146471
-0.166516
-0.166606
-0.166719
-0.166878
-0.157014
-0.162014
-0.176946
-0.186855
-0.20681
-0.216833
-0.2219
-0.222127
-0.257308
-0.282376
-0.282443
-0.302443
-0.327398
-0.34233
-0.36733
-0.38233
-0.402262
-0.437195
-0.452014
-0.456765
-0.461448
-0.481063
-0.480679
-0.455294
-0.439932
-0.43957
-0.404253
-0.363937
-0.323507
-0.2831
-0.237715
-0.18733
-0.161923
-0.136561
-0.106244
-0.0909502
-0.0606108
-0.0553394
-0.0401131
-0.0150226
-9.04948e-05
-0.0102262
-0.0204072
-0.0206109
-0.0208823
-0.0212896
-0.0117647
-0.00226244
-0.00280542
-0.00843889
-0.0241629
-0.0198642
-0.0154751
-0.0110633
-0.0167421
-0.022466
-0.0180769
-0.0185973
-0.0338009
-0.043733
-0.0333031
-0.0174208
-0.0254298
-0.0269683
-0.0274434
-0.0220588
-0.0299774
-0.0153846
0.0152262
0.0398416
0.0532127
0.0406561
0.0416742
0.0554072
0.0664253
0.0656561
0.0544796
0.0637556
0.0732805
0.0678506
0.0574434
0.0671267
0.0716289
0.066086
0.0656108
0.0851357
0.0895927
0.0837556
0.0775339
0.0757692
0.0833032
0.079638
0.0697285
0.0590498
0.0524208
0.0439367
0.0183937
0.013009
0.0138009
0.0106335
-0.00667422
-0.00733033
-0.00556563
-0.0113122
-0.025905
-0.0355657
-0.0354525
-0.0254978
-0.025543
-0.0256109
-0.0207014
-0.025724
-0.0357693
-0.0459503
-0.0461086
-0.0413349
-0.0366064
-0.0219005
-0.0171946
-0.0225792
-0.0180996
-0.0436426
-0.0542308
-0.0549774
-0.0458371
-0.0368326
-0.0279412
-0.019095
-0.0252941
-0.0315837
-0.0429186
-0.0542534
-0.0556788
-0.062172
-0.063552
-0.0548643
-0.0411991
-0.0523529
-0.0783032
-0.0791177
-0.0696606
-0.0699774
-0.0700453
-0.0598869
-0.0495702
-0.049095
-0.0735068
-0.0727376
-0.0718778
-0.0608145
-0.0445928
-0.0433032
-0.0319231
-0.0254751
-0.0190045
-0.00239821
0.00934388
0.0312443
0.0432127
0.060181
0.0721493
0.0740498
0.0559276
0.0527602
0.0745701
0.0813348
0.0529412
0.0492534
0.0454299
0.0514706
0.0522851
0.0629864
0.0535747
0.0490272
0.0543665
0.0545701
0.0447511
0.0348869
0.00997737
-0.0249548
-0.0498416
-0.0596833
-0.0495701
-0.0595701
-0.0645475
-0.0594796
-0.0493665
-0.0492534
-0.0541403
-0.0590271
-0.0539367
-0.0688688
-0.0587557
-0.0435973
-0.0484842
-0.0584842
-0.0483258
0.0169005
0.112149
0.227421
0.37767
0.652919
0.933258
1.10364
1.29891
1.7191
2.17932
2.1445
1.87964
1.6498
1.46
1.1052
0.570362
0.0204977
-0.234321
-0.214072
-0.168824
-0.153643
-0.153484
-0.148371
-0.143281
-0.1481
-0.147941
-0.132919
-0.147896
-0.152873
-0.152873
-0.152896
-0.152783
-0.167534
-0.162398
-0.157308
-0.167353
-0.157421
-0.147534
-0.142602
-0.132421
-0.142217
-0.167036
-0.1619
-0.156765
-0.161787
-0.161923
-0.146991
-0.147059
-0.147127
-0.142104
-0.146946
-0.15181
-0.141787
-0.161855
-0.1669
-0.1719
-0.196878
-0.20681
-0.211629
-0.221471
-0.231493
-0.246516
-0.276561
-0.286538
-0.286357
-0.31629
-0.341222
-0.346086
-0.375837
-0.405543
-0.430181
-0.434661
-0.43414
-0.438575
-0.437964
-0.427353
-0.41181
-0.401267
-0.395634
-0.364977
-0.294457
-0.264095
-0.248756
-0.208371
-0.173032
-0.132602
-0.11233
-0.092172
-0.0670136
-0.0619683
-0.0670136
-0.0521946
-0.0274208
-0.0227149
-0.0282127
-0.0388688
-0.0193665
-0.0148869
-0.0153846
-0.0258371
-0.0362896
-0.0267421
-0.0172398
-0.0177149
-0.0231448
-0.0235747
-0.0290271
-0.0243891
0.000407249
-0.0147511
-0.0247285
-0.0342986
-0.0434389
-0.0370588
-0.0250679
-0.0417647
-0.0521041
-0.0267195
-0.000475101
-0.00235295
0.0028507
0.0278507
0.0416742
0.0445249
0.0414932
0.0618552
0.0747059
0.0598416
0.0285068
0.016923
0.03
0.0421493
0.0477375
0.0471267
0.0256334
0.0175565
0.0269457
0.00513571
-0.0067195
-0.00626701
-0.00457017
-0.0264027
-0.0558598
-0.0375792
-0.0221946
-0.0161991
-0.0207014
-0.0105204
-0.0103847
-0.055362
-0.050362
-0.0352489
-0.0301358
-0.035
-0.00997739
0.00497737
-0.00993213
-0.0147511
-0.0146154
-0.0244796
-0.0393665
-0.0442308
-0.044095
-0.0239367
-0.0188462
-0.0288462
-0.0338914
-0.0340724
-0.0493665
-0.044638
-0.0298869
-0.0302036
-0.0254978
-0.0309276
-0.0514254
-0.0268779
-0.0174661
-0.0280769
-0.0488461
-0.0448643
-0.0509276
-0.0670362
-0.0581448
-0.054276
-0.0553394
-0.0562896
-0.0621493
-0.0678507
-0.0684389
-0.068914
-0.0692534
-0.0392308
-0.0389819
-0.0434615
-0.0325113
-0.0412896
-0.0148869
0.00667423
0.0134616
0.0404299
0.0523303
0.0742987
0.061448
0.0435747
0.0656109
0.0925566
0.0693439
0.066086
0.0576697
0.0540272
0.0650679
0.0659502
0.0717195
0.0624661
0.0580543
0.0434842
0.0587557
0.0539593
0.0141855
-0.00561083
-0.0356335
-0.0607013
-0.0607918
-0.0608371
-0.0458145
-0.0608145
-0.0808597
-0.0709276
-0.0659502
-0.0608823
-0.0608823
-0.0508823
-0.0558597
-0.070905
-0.0659502
-0.0659728
-0.045905
0.00420815
0.0742534
0.149186
0.269118
0.489072
0.834095
1.10423
1.30439
1.64948
2.2095
2.48959
2.48457
1.9695
1.69455
1.36971
0.844796
0.224751
-0.235249
-0.365181
-0.26509
-0.184955
-0.164796
-0.134706
-0.119842
-0.154977
-0.180023
-0.180023
-0.150023
-0.139955
-0.169955
-0.175045
-0.165091
-0.165158
-0.155362
-0.165588
-0.170701
-0.165792
-0.170837
-0.155882
-0.150973
-0.146063
-0.131199
-0.141448
-0.156652
-0.151742
-0.171833
-0.171855
-0.166855
-0.176855
-0.176855
-0.196878
-0.166968
-0.142104
-0.162127
-0.177195
-0.182376
-0.177489
-0.197602
-0.222738
-0.232896
-0.253009
-0.268122
-0.288235
-0.288303
-0.298348
-0.318303
-0.363303
-0.418348
-0.443281
-0.443235
-0.458122
-0.487851
-0.502511
-0.482059
-0.501674
-0.526177
-0.495724
-0.470362
-0.454977
-0.429502
-0.399027
-0.358507
-0.308145
-0.247919
-0.222715
-0.187534
-0.172376
-0.137376
-0.107443
-0.0726018
-0.0626697
-0.0627602
-0.0330091
0.00162893
0.0011312
-0.00447966
-0.0250679
-0.0355883
-0.0210634
-0.0316516
-0.042353
-0.0330091
-0.0336426
-0.0292534
-0.0348416
-0.025362
-0.00585975
-0.0112896
-0.0265837
-0.0317421
-0.0317195
-0.0314706
-0.035905
-0.0449774
-0.0335294
-0.0311086
-0.0421494
-0.0369457
-0.030724
-0.0079412
0.00726243
0.0336878
0.0551357
0.0493439
0.0423529
0.0487783
0.0577602
0.0684615
0.0666516
0.0635068
0.0448416
0.0451131
0.0542986
0.0527375
0.0498416
0.0342308
0.016991
0.000475116
0.000407234
0.0215837
0.0190271
-0.00126698
0.0013122
0.0211991
0.0117647
-0.0180317
-0.0231674
-0.0133258
-0.00841631
-0.00843893
-0.0134615
-0.00343892
0.00671946
0.00187782
-0.00800905
-0.00789593
-0.0178507
-0.0278507
-0.0478507
-0.0228733
-0.00789593
-0.00305429
-0.0130995
-0.0330543
-0.0280543
-0.0180769
-0.0231448
-0.0182127
-0.0133937
-0.00871043
-0.0240724
-0.0295249
-0.0299774
-0.0404751
-0.0460181
-0.036629
-0.027353
-0.0232579
-0.0393892
-0.0456109
-0.0368326
-0.0530091
-0.0642987
-0.0656787
-0.0419457
-0.04819
-0.054457
-0.0555656
-0.0414706
-0.0371946
-0.0626923
-0.0780317
-0.0531674
-0.0279412
-0.0122851
-0.00642533
0.0046154
0.0307919
0.0421946
0.0487557
0.0454977
0.0473077
0.0441403
0.0510634
0.0529638
0.0547738
0.051448
0.0378733
0.0440724
0.0551584
0.0610633
0.0617647
0.0623303
0.0627375
0.0580769
0.053371
0.0435973
0.0138009
-0.0109955
-0.0408145
-0.0607692
-0.0607692
-0.0607919
-0.0658145
-0.0608371
-0.0558145
-0.0508145
-0.0558371
-0.080905
-0.0810634
-0.0561765
-0.0462443
-0.0561765
-0.0760407
-0.0859955
-0.0610181
-0.0459502
0.0591177
0.154208
0.319367
0.534502
0.849525
1.10955
1.30466
1.61484
2.18005
2.51518
2.35532
2.06548
1.80066
1.49093
0.986199
0.361357
-0.148462
-0.28819
-0.217964
-0.147783
-0.137602
-0.157398
-0.157149
-0.151855
-0.156652
-0.171516
-0.181357
-0.186222
-0.181086
-0.186018
-0.176018
-0.171041
-0.176041
-0.175973
-0.165882
-0.160747
-0.155634
-0.165633
-0.175611
-0.170566
-0.165498
-0.160452
-0.15543
-0.155362
-0.155272
-0.170181
-0.180158
-0.170204
-0.165249
-0.160272
-0.165249
-0.170204
-0.175204
-0.175226
-0.200181
-0.205272
-0.200385
-0.205453
-0.230407
-0.250407
-0.255362
-0.275272
-0.300181
-0.32509
-0.33009
-0.335091
-0.365
-0.399842
-0.419615
-0.424299
-0.438937
-0.453529
-0.458077
-0.462602
-0.467149
-0.471742
-0.461335
-0.42086
-0.400407
-0.374955
-0.339548
-0.299231
-0.258846
-0.228371
-0.192896
-0.152443
-0.116991
-0.0965385
-0.0911765
-0.0658371
-0.040362
-0.0450452
-0.0548869
-0.0298869
-0.0200226
-0.0152263
-0.0204751
-0.0307466
-0.0310407
-0.0264027
-0.0368326
-0.0273529
-0.00798641
-0.00361991
-0.00909501
-0.0245249
-0.0300679
-0.0257014
-0.0264027
-0.0468552
-0.0421719
-0.0370362
-0.0516289
-0.0454977
-0.033371
-0.0246833
-0.0248416
-0.0291629
-0.0219684
-0.00210413
0.00432124
0.00506784
0.0196606
0.0381448
0.0502488
0.0650452
0.0669456
0.0665384
0.0655429
0.0448642
0.039457
0.0441176
0.0387783
0.0284615
0.0431674
0.0678507
0.0724434
0.0719909
0.0614253
0.0758144
0.0796832
0.0731674
0.0460407
0.0529864
0.0586425
0.0483484
0.0373077
0.0350226
0.0254072
0.0194344
-0.000769265
0.000271462
0.00237554
-0.00923081
-0.0338688
-0.0410634
-0.0263123
-0.0210408
-0.0259955
-0.0211539
-0.021267
-0.021267
-0.026267
-0.0263575
-0.0314254
-0.0165159
-0.0216064
-0.0316969
-0.03181
-0.0270363
-0.042353
-0.0527602
-0.038258
-0.0338236
-0.0394571
-0.0551584
-0.0509503
-0.04181
-0.0428055
-0.0589367
-0.0601131
-0.0463575
-0.0476471
-0.048914
-0.0502489
-0.0415837
-0.0479186
-0.0592986
-0.0554299
-0.056448
-0.0523303
-0.048009
-0.0585747
-0.0689593
-0.0641177
-0.0591176
-0.0589367
-0.0586199
-0.0430995
-0.0424661
-0.0816968
-0.0757466
-0.0647059
-0.0586425
-0.0474208
-0.0310407
-0.0195249
-0.0179864
-0.00651585
0.0150905
0.0368326
0.0535973
0.0554751
0.0574434
0.0494344
0.0513801
0.0682127
0.0699321
0.0765158
0.0480317
0.0343439
0.0404525
0.0764706
0.0823077
0.0779864
0.0485294
0.0539819
0.0642986
0.0395475
0.0147285
0.00486422
-0.0050679
-0.0400453
-0.0600905
-0.0651132
-0.0601131
-0.0450226
-0.0449548
-0.0549774
-0.0550226
-0.0450226
-0.0500226
-0.07
-0.0750453
-0.075181
-0.0752715
-0.0703394
-0.0703167
-0.050181
-0.0350905
0.0750226
0.170136
0.310317
0.510453
0.795588
1.01568
1.18577
1.46584
1.97088
2.26091
2.09602
1.82611
1.59622
1.31638
0.881516
0.341674
-0.103235
-0.228145
-0.168054
-0.117964
-0.122851
-0.152783
-0.157715
-0.142647
-0.147557
-0.167511
-0.172398
-0.167308
-0.16724
-0.167217
-0.167217
-0.152285
-0.152443
-0.162557
-0.172602
-0.162579
-0.147692
-0.162851
-0.167941
-0.158009
-0.153077
-0.153122
-0.158145
-0.168213
-0.158281
-0.163326
-0.168394
-0.148462
-0.163484
-0.168416
-0.173416
-0.183484
-0.168507
-0.168552
-0.188643
-0.18871
-0.18871
-0.183665
-0.208665
-0.228665
-0.233597
-0.248643
-0.273665
-0.288733
-0.298801
-0.323778
-0.348643
-0.358507
-0.353371
-0.383145
-0.407851
-0.422557
-0.437172
-0.436697
-0.436177
-0.430747
-0.420362
-0.39991
-0.364412
-0.348914
-0.323575
-0.273281
-0.247941
-0.222466
-0.181991
-0.141516
-0.116177
-0.0907919
-0.0854073
-0.0701584
-0.0500226
-0.0399095
-0.039819
-0.0199095
-0.0151358
-0.0154752
-0.0259503
-0.0213801
-0.00185523
0.0025113
-0.0281674
-0.0338009
-0.0343892
-0.0250226
-0.0157692
-0.0115837
0.0076923
-0.00794119
-0.0335068
-0.0340498
-0.0245702
-0.0195928
-0.0391855
-0.0531448
-0.0411991
-0.0178733
-0.0184842
-0.0132579
0.00332579
0.017353
0.0127829
0.0174887
0.0310181
0.0385294
0.0447964
0.0240724
0.0358823
0.0507013
0.0549548
0.0494797
0.0492308
0.0589367
0.0585068
0.0530769
0.0476923
0.0523303
0.0518553
0.0511087
0.0450679
0.0539367
0.0620815
0.0594797
0.0657693
0.0659955
0.0505204
0.0240272
0.0305883
0.0355656
0.0208824
0.00730773
-0.0154751
-0.0273755
-0.0225565
-0.0153846
-0.0160407
-0.0207239
-0.00558819
-0.0107918
-0.0309728
-0.0460859
-0.0312443
-0.0114027
-0.0164932
-0.0214932
-0.0215158
-0.0216063
-0.0317194
-0.0418552
-0.0319457
-0.0171267
-0.0324208
-0.0478281
-0.0482353
-0.0287104
-0.024276
-0.0348643
-0.0456109
-0.0365385
-0.0375113
-0.0484842
-0.0445475
-0.0256787
-0.0318778
-0.0531674
-0.064457
-0.0557692
-0.046991
-0.0481675
-0.0593213
-0.0552941
-0.0511312
-0.0568552
-0.0623529
-0.057647
-0.0527375
-0.0577149
-0.0575113
-0.0621719
-0.0516742
-0.0460407
-0.0452489
-0.0493213
-0.0532127
-0.0470136
-0.0356561
-0.0142308
0.0223303
0.028914
0.0405656
0.0673529
0.0792081
0.0809502
0.0676697
0.0593439
0.0810634
0.0978281
0.0795023
0.0661539
0.052534
0.0686878
0.0797059
0.0805656
0.081267
0.0818552
0.0822625
0.0626018
0.0479412
0.0331675
0.0133258
-0.0215158
-0.0413801
-0.0463122
-0.0563122
-0.0613348
-0.0663574
-0.0613801
-0.0564479
-0.0615158
-0.0615837
-0.0616516
-0.0616289
-0.0565837
-0.0565384
-0.0615158
-0.0564932
-0.0665158
-0.0615837
-0.00658368
0.0634616
0.0835068
0.243529
0.408575
0.668688
0.903937
1.04923
1.26439
1.70443
2.06964
1.97995
1.7302
1.56543
1.37559
0.995679
0.470814
-0.0190045
-0.223846
-0.188756
-0.118575
-0.103416
-0.133281
-0.128235
-0.133235
-0.158145
-0.162986
-0.157828
-0.162715
-0.157647
-0.15267
-0.157783
-0.162873
-0.157896
-0.137919
-0.152964
-0.163032
-0.158032
-0.163009
-0.153009
-0.138054
-0.138077
-0.133077
-0.143077
-0.1531
-0.1531
-0.148054
-0.148009
-0.143032
-0.1581
-0.158122
-0.143122
-0.148167
-0.163167
-0.1631
-0.163054
-0.183032
-0.203009
-0.187964
-0.187919
-0.192851
-0.202873
-0.227896
-0.247851
-0.257805
-0.28776
-0.307647
-0.322489
-0.332353
-0.362172
-0.3769
-0.386561
-0.396086
-0.405475
-0.409864
-0.409299
-0.398756
-0.398235
-0.397715
-0.372195
-0.346697
-0.301154
-0.275679
-0.245136
-0.199593
-0.159072
-0.153462
-0.127828
-0.102376
-0.0821267
-0.0620362
-0.0470815
-0.0372625
-0.0276697
-0.0281674
-0.0187557
-0.0093439
-0.00986426
-0.0104977
-0.0262217
-0.0169005
-0.00253395
0.0019457
-0.0235294
-0.0290045
-0.019457
-0.0149095
-0.0204525
-0.0160181
-0.0015837
-0.0170136
-0.0271041
-0.03181
-0.0162443
-0.00981901
-0.0226244
-0.0392986
-0.0399321
-0.0148643
-0.00377829
-0.0157466
-0.016086
0.00319007
0.0114027
0.0188688
0.0354072
0.0402036
0.042647
0.0479638
0.0573529
0.0518552
0.0515611
0.0360407
0.0400678
0.0636877
0.0615384
0.0381448
0.0285747
0.0332127
0.03681
0.0384842
0.0381674
0.0324434
0.0234842
0.000610851
-0.0163122
-0.0167195
-0.0147964
-0.0154299
-0.0197285
-0.0192081
-0.0140498
-0.018914
-0.028733
-0.0186425
-0.00357465
-0.0184163
-0.0383032
-0.0332353
-0.0131222
-0.0130543
-0.0180091
-0.0179185
-0.0228733
-0.0328733
-0.0328507
-0.0328054
-0.0278733
-0.0280091
-0.0330769
-0.03819
-0.0233484
-0.0135068
-0.0237557
-0.0241177
-0.0295701
-0.0501358
-0.0557692
-0.0415385
-0.0323529
-0.0182579
-0.0291855
-0.0501357
-0.0561991
-0.0472624
-0.0383031
-0.0493213
-0.0552941
-0.0362896
-0.0221719
-0.037828
-0.0632805
-0.0635068
-0.0635973
-0.0535294
-0.0481674
-0.0674887
-0.071629
-0.0304751
-0.00411768
0.0173303
0.033914
0.0456787
0.0625113
0.0645022
0.0815837
0.073733
0.0558597
0.0778959
0.104887
0.101765
0.0885746
0.0652489
0.0567421
0.0579638
0.0589366
0.0597511
0.075543
0.0861538
0.0766516
0.0520362
0.0322624
0.0174434
-0.0224208
-0.0522851
-0.0570815
-0.0469683
-0.0420588
-0.0521946
-0.0622625
-0.0522624
-0.0473756
-0.0525566
-0.0676697
-0.0677828
-0.0528959
-0.048009
-0.0530995
-0.0730995
-0.0730317
-0.0629864
-0.0379864
0.0270136
0.0970362
0.192081
0.357149
0.607195
0.862149
1.04215
1.26724
1.69738
2.14256
2.22778
1.83301
1.59821
1.40837
1.05851
0.533665
-0.00122168
-0.301109
-0.250995
-0.155973
-0.150973
-0.155973
-0.145973
-0.15095
-0.170882
-0.155905
-0.146063
-0.151199
-0.156244
-0.15129
-0.14638
-0.141471
-0.146606
-0.151787
-0.156946
-0.152081
-0.15724
-0.157421
-0.147579
-0.142715
-0.152783
-0.157873
-0.153009
-0.143122
-0.148258
-0.153462
-0.13862
-0.138665
-0.148688
-0.158688
-0.163778
-0.148982
-0.15914
-0.169208
-0.174231
-0.174299
-0.169389
-0.194412
-0.219299
-0.239186
-0.244163
-0.249253
-0.254434
-0.274593
-0.304615
-0.339706
-0.379796
-0.399729
-0.399593
-0.409434
-0.434208
-0.438891
-0.463439
-0.482987
-0.487602
-0.472308
-0.452059
-0.441765
-0.431403
-0.406063
-0.360837
-0.31586
-0.281041
-0.231222
-0.18629
-0.176335
-0.141425
-0.111539
-0.0716516
-0.0517647
-0.0519231
-0.0472172
-0.0327602
-0.043439
-0.0391177
-0.0147738
-0.010362
-0.00590503
-0.0164254
-0.0119005
-0.00733038
-0.0126019
-0.0128281
-0.0129865
-0.00307696
-0.00812221
-0.0281222
-0.0381901
-0.0233258
-0.018439
-0.0183937
-0.0380544
-0.0373982
-0.0163349
-0.00950231
-0.00651588
-0.0173982
-0.0224887
-0.0165838
-0.0089367
0.000384599
0.0147737
0.0266969
0.026629
0.0243666
0.0250906
0.036991
0.0301584
0.0145702
0.0227829
0.0222399
0.00800912
-0.0101809
-0.0121493
-0.0121266
-0.00959272
0.000203654
0.00070142
0.00085976
0.00076925
0.00563351
0.00558827
0.0105657
0.0105204
0.00549775
0.000452504
0.0104525
0.0154299
0.00536197
-0.00470591
-0.00477379
0.010181
0.0101131
0.00499998
0.00495473
-9.05246e-05
-0.0151584
-0.025181
-0.0202036
-0.0102489
-0.000339396
0.00441173
-0.0107693
-0.020905
-0.0210182
-0.0211313
-0.0213575
-0.0165612
-0.0318327
-0.0472173
-0.052715
-0.0281901
-0.00864261
-0.0040951
-0.0296607
-0.0353621
-0.0411087
-0.036991
-0.0279186
-0.0138689
-0.0147512
-0.0256562
-0.0415159
-0.0423983
-0.013258
-0.00407245
-0.0147512
-0.0052489
0.00441174
0.00425337
0.0142081
0.0444118
0.069819
0.0704525
0.0463348
0.0423529
0.0684163
0.0846154
0.0757466
0.0519231
0.0431222
0.059095
0.0749095
0.0756335
0.0711312
0.0765158
0.0669683
0.0473303
0.0326697
0.0329412
0.0280996
-0.0118326
-0.0368326
-0.0518326
-0.0517873
-0.0567421
-0.0717647
-0.0769004
-0.0620588
-0.057104
-0.0671267
-0.0671267
-0.0672624
-0.0624434
-0.0675339
-0.0725791
-0.0676018
-0.0626697
-0.0577828
-0.0128733
0.0621041
0.132104
0.282081
0.487059
0.782014
0.877014
1.19697
1.48697
2.01699
2.33197
2.15192
1.86688
1.63192
1.37201
0.927127
0.352217
-0.132715
-0.277557
-0.207398
-0.157262
-0.142149
-0.157036
-0.1569
-0.156742
-0.166584
-0.166448
-0.171357
-0.171267
-0.161131
-0.150995
-0.145882
-0.160882
-0.16086
-0.145837
-0.15086
-0.155882
-0.155882
-0.150882
-0.150905
-0.15595
-0.155995
-0.125973
-0.125882
-0.145882
-0.160905
-0.165905
-0.140905
-0.140928
-0.150995
-0.151131
-0.146267
-0.156403
-0.166448
-0.171448
-0.16638
-0.166448
-0.191584
-0.201674
-0.211697
-0.206629
-0.231516
-0.251448
-0.26638
-0.286335
-0.311335
-0.326244
-0.341131
-0.361041
-0.385882
-0.415679
-0.415475
-0.425204
-0.424842
-0.439412
-0.443959
-0.428575
-0.42819
-0.422715
-0.377149
-0.346584
-0.331086
-0.280656
-0.240249
-0.204796
-0.164321
-0.133846
-0.123371
-0.097896
-0.0874887
-0.0822399
-0.0520589
-0.0269457
-0.0170362
-0.0173303
-0.0277602
-0.0181901
-0.00875567
-0.00443441
-0.0101584
-0.0207919
-0.0212896
-0.0269231
-0.0176245
-0.00830319
-0.00889142
-0.0144344
-0.02
-0.0256109
-0.0262444
-0.03181
-0.0472172
-0.0522851
-0.041991
-0.0359729
-0.0339593
-0.0454751
-0.0314027
-0.0207014
-0.0186426
-0.00425339
0.0315385
0.0515159
0.0352489
0.0228959
0.0293892
0.0439819
0.0559955
0.045724
0.0447512
0.0490724
0.0536878
0.0584163
0.0530317
0.0527149
0.0523303
0.0515158
0.0553846
0.0636651
0.0561991
0.0426697
0.0330543
0.0528054
0.0566516
0.0487783
0.0439367
0.0336199
0.0146833
-0.00832578
-0.0206787
-0.0166515
-0.0104298
-0.016742
-0.0264705
-0.0211085
-0.0260633
-0.0312443
-0.0313801
-0.0263122
-0.0112669
-0.0112443
-0.0261764
-0.0310859
-0.0259954
-0.0159728
-0.0260181
-0.0210181
-0.0109955
-0.0260407
-0.0361991
-0.0464479
-0.0416742
-0.0319683
-0.0423303
-0.0527828
-0.0433484
-0.0340046
-0.0297285
-0.0355204
-0.0414706
-0.0425566
-0.043733
-0.0499095
-0.0410634
-0.0322172
-0.0384616
-0.0497285
-0.0559729
-0.0521946
-0.0583258
-0.0692534
-0.0800679
-0.0757692
-0.0561539
-0.0512896
-0.0562896
-0.0611086
-0.0556335
-0.0650453
-0.0693213
-0.0485068
-0.0325792
-0.0214027
-0.0150453
0.00644794
0.0230317
0.0246606
0.0513574
0.0631448
0.0699321
0.0667421
0.0435068
0.0652715
0.0819683
0.0786425
0.0652489
0.0516968
0.0529186
0.0689819
0.0798643
0.0705882
0.0812217
0.0817195
0.0720588
0.0622624
0.0474661
0.0176471
-0.0173303
-0.0573529
-0.0673529
-0.0523529
-0.0473077
-0.0471946
-0.0570362
-0.0519909
-0.0569909
-0.0820362
-0.0871041
-0.0671493
-0.0572172
-0.0522624
-0.0672851
-0.0772851
-0.0672398
-0.0821719
-0.0670362
0.0181222
0.0883032
0.213348
0.378371
0.623462
0.873575
1.01864
1.20373
1.58391
2.03414
2.13441
1.82468
1.61984
1.47989
1.17498
0.685158
0.140385
-0.179412
-0.199253
-0.14914
-0.11405
-0.128914
-0.148756
-0.143597
-0.148416
-0.158258
-0.1581
-0.168077
-0.163122
-0.153122
-0.158122
-0.163054
-0.172941
-0.157919
-0.147896
-0.147873
-0.157851
-0.162783
-0.157783
-0.152851
-0.157941
-0.158032
-0.158032
-0.143009
-0.138009
-0.148009
-0.148054
-0.163077
-0.163032
-0.157964
-0.157919
-0.147873
-0.152919
-0.167964
-0.168009
-0.162986
-0.172964
-0.193054
-0.208077
-0.202986
-0.202851
-0.23776
-0.252647
-0.257602
-0.267647
-0.287647
-0.312602
-0.327421
-0.347149
-0.366765
-0.386312
-0.390837
-0.400272
-0.394751
-0.404253
-0.403801
-0.403348
-0.39276
-0.377127
-0.351538
-0.315973
-0.270498
-0.240181
-0.20491
-0.169638
-0.154389
-0.139208
-0.109095
-0.0690498
-0.0640271
-0.0590724
-0.0392081
-0.0195927
-0.0202262
-0.025905
-0.0314253
-0.02181
-0.022172
-0.0226923
-0.0333032
-0.0239367
-0.00957015
-0.00518101
-0.010724
-0.0160407
-0.0162217
-0.0163801
-0.0215159
-0.0315611
-0.046629
-0.0516063
-0.0561991
-0.0204751
-0.00423079
-0.0222625
-0.0341855
-0.0249095
6.78897e-05
-0.00409499
-0.00649317
-0.00187777
0.00809963
0.0316969
0.0493892
0.0413801
0.0369684
0.0399774
0.0400905
0.03819
0.0504751
0.0468778
0.0272851
0.0167421
0.0149548
0.0161086
0.0106787
-0.0142534
0.00208145
0.0143665
0.0076471
-0.00733028
-0.0199774
-0.0202941
-0.0145248
-0.0240045
-0.0338687
-0.0288687
-0.0288914
-0.0238687
-0.0189366
-0.00402708
0.00606344
-0.00882344
-0.0187329
-0.0185746
-0.0183483
-0.00821256
-0.0181447
-0.0231673
-0.0181899
-0.0181673
-0.0280995
-0.0129637
-0.00789583
-0.0129637
-0.0380542
-0.0481221
-0.0181221
-0.0131447
-0.0333031
-0.0484841
-0.0436877
-0.0440497
-0.0395022
-0.0249547
-0.0154298
-0.0109502
-0.0316289
-0.0473077
-0.0530316
-0.0538235
-0.0597059
-0.0556108
-0.0365158
-0.0273303
-0.0230543
-0.048733
-0.0593665
-0.0548416
-0.0502036
-0.0604525
-0.0554072
-0.02
0.00565612
0.0165158
0.0125566
0.0387557
0.0551584
0.0617647
0.0586426
0.0605883
0.0526245
0.0746607
0.091629
0.0934389
0.0750679
0.0515159
0.0478055
0.0739593
0.100023
0.10086
0.0765159
0.0671267
0.0727602
0.0333711
0.00875568
-0.0110181
-0.0257918
-0.0355204
-0.0453393
-0.0504072
-0.0506109
-0.0508371
-0.0408371
-0.0357466
-0.0357466
-0.0507918
-0.0607692
-0.0656787
-0.0756108
-0.070543
-0.0505656
-0.0556787
-0.060724
-0.0456787
-0.0406108
0.0393665
0.134389
0.25948
0.41957
0.664661
0.919661
1.11459
1.36955
1.8295
2.17455
2.05466
1.7748
1.55502
1.34023
0.965362
0.44543
-0.0745248
-0.324457
-0.254299
-0.159185
-0.129185
-0.134185
-0.149186
-0.124163
-0.114163
-0.159163
-0.164208
-0.159276
-0.159299
-0.169276
-0.159299
-0.144253
-0.139253
-0.139344
-0.144457
-0.154502
-0.15957
-0.149661
-0.134774
-0.129909
-0.13009
-0.155271
-0.170294
-0.155317
-0.14543
-0.140611
-0.140837
-0.136109
-0.141335
-0.146425
-0.156471
-0.146471
-0.161561
-0.171652
-0.176697
-0.176742
-0.176855
-0.186968
-0.202036
-0.232036
-0.242036
-0.252081
-0.277217
-0.287398
-0.287602
-0.317738
-0.352805
-0.37776
-0.387602
-0.392376
-0.412172
-0.441787
-0.456312
-0.475837
-0.485475
-0.500181
-0.479977
-0.444615
-0.409095
-0.37362
-0.338394
-0.293281
-0.263213
-0.243145
-0.203077
-0.153077
-0.128213
-0.128371
-0.128484
-0.0838009
-0.0492534
-0.0497964
-0.0653846
-0.0559276
-0.0164932
0.00791857
0.00726246
-0.00839365
-0.0139819
-0.0145475
-0.0200905
-0.0306561
-0.0261538
-0.0316063
-0.0420362
-0.0273756
-0.0076018
-0.00776017
-0.0179185
-0.0380317
-0.0280996
-0.0377375
-0.0518552
-0.0504977
-0.0334389
-0.0102262
-0.00585972
-0.0106561
0.000633508
-0.000995457
-0.000950202
-0.0114479
0.00160639
0.0333938
0.0538463
0.0620363
0.0570815
0.0484842
0.0273983
0.0207241
0.0284616
0.0242309
0.0125114
0.000610925
4.5307e-05
0.00583717
0.0176698
0.00142541
-0.0221266
-0.0347963
-0.0243665
-0.0290045
-0.0290271
-0.0141402
-0.00414022
-0.0191402
-0.0242534
-0.00438911
0.00558823
0.00567874
-0.00927602
-0.019276
-0.0243665
-0.0195023
-0.0195701
-0.0195701
-0.00454749
0.00552038
0.000543006
-0.0145475
-0.014638
-0.0197511
-0.0197737
-0.0349321
-0.050181
-0.050362
-0.0405204
-0.035724
-0.0259728
-0.0312896
-0.0266968
-0.0421719
-0.0327602
-0.0184163
-0.00902715
-0.034638
-0.045362
-0.0362443
-0.0371946
-0.0431674
-0.0441629
-0.060181
-0.066267
-0.0623529
-0.0434389
-0.0295023
-0.0205204
-0.0363801
-0.0570136
-0.0474661
-0.0125113
-0.0123077
-0.00683258
0.0188688
0.0447738
0.0608597
0.0671719
0.0635747
0.0600453
0.0665158
0.0730543
0.0746606
0.0711538
0.0524208
0.0485294
0.0495701
0.0655882
0.0664932
0.0621493
0.0625792
0.0578959
0.0480996
0.0231448
0.00816742
-0.00683258
-0.0219005
-0.026991
-0.0470136
-0.0519909
-0.0469683
-0.0520588
-0.0671946
-0.0874208
-0.0677375
-0.0630543
-0.0732579
-0.0733484
-0.0633937
-0.0484615
-0.048552
-0.0737104
-0.0738914
-0.0341403
0.0256335
0.105475
0.230317
0.405272
0.690181
0.990068
1.18991
1.41489
1.87986
2.42477
2.44962
2.17953
1.88952
1.61464
1.18484
0.595
0.400091
-0.29491
-0.269932
-0.169977
-0.145023
-0.170113
-0.175136
-0.160136
-0.160136
-0.17509
-0.185023
-0.169977
-0.159977
-0.164977
-0.17
-0.17
-0.175
-0.17509
-0.185158
-0.170181
-0.150204
-0.155249
-0.160226
-0.170181
-0.155158
-0.145362
-0.165701
-0.171041
-0.161267
-0.161403
-0.161471
-0.171516
-0.166561
-0.151719
-0.161878
-0.181968
-0.181991
-0.187059
-0.187127
-0.197195
-0.202285
-0.202376
-0.217511
-0.232715
-0.247896
-0.268009
-0.282986
-0.307919
-0.322851
-0.337828
-0.342873
-0.397896
-0.417783
-0.432647
-0.452511
-0.477308
-0.477014
-0.476584
-0.471131
-0.485769
-0.48543
-0.455068
-0.434615
-0.409095
-0.373575
-0.328145
-0.272738
-0.242398
-0.217059
-0.176697
-0.13129
-0.105928
-0.0856561
-0.0604072
-0.0502489
-0.0501584
-0.0451584
-0.0252941
-0.0205204
-0.0308824
-0.0414253
-0.0370136
-0.0176244
-0.00825793
-0.00389139
-0.004457
-0.0150679
-0.0207692
-0.031448
-0.0370588
-0.0275792
-0.0230543
-0.0286878
-0.0343892
-0.0349095
-0.0250905
-0.00984164
-0.0290724
-0.0224434
-0.0194118
-0.0199095
-0.044457
-0.0229186
0.00583705
0.0320814
0.0283936
0.0284841
0.0273303
0.0349547
0.0405656
0.0384615
0.0504524
0.0644117
0.0635294
0.0630317
0.0876244
0.0821719
0.0616742
0.0561312
0.0654299
0.0693439
0.072647
0.0653167
0.0519683
0.0471493
0.0412443
0.0344117
0.0459275
0.0447511
0.0323076
0.0159502
-0.00395931
-0.0276924
-0.0447738
-0.0444344
-0.0111765
0.00404975
0.00454748
-0.0102715
-0.0253168
-0.0304299
-0.0403846
-0.0354751
-0.0254978
-0.0154073
-0.0153394
-0.0203168
-0.0353394
-0.045362
-0.0353847
-0.0304978
-0.0356335
-0.0257919
-0.0260181
-0.036267
-0.0465611
-0.0569684
-0.0524661
-0.043077
-0.0487331
-0.0544797
-0.0502489
-0.0462896
-0.0523756
-0.0485521
-0.0398417
-0.0362217
-0.0526697
-0.0541403
-0.0405204
-0.0419231
-0.0433032
-0.0595475
-0.0756787
-0.0816063
-0.0823529
-0.0828959
-0.0681674
-0.0531674
-0.0579864
-0.0725792
-0.0619004
-0.0459728
-0.0499095
-0.0536652
-0.0523077
-0.0458597
-0.0292534
-0.0124434
-0.000520341
0.0364027
0.0533937
0.0554073
0.0474661
0.0295475
0.0366742
0.053733
0.0656561
0.0624887
0.0591855
0.0556335
0.0469005
0.0580317
0.0740272
0.0749095
0.0605883
0.0461086
0.0566063
0.0419231
0.017172
-0.0076018
-0.0174208
-0.0324434
-0.0575113
-0.0625113
-0.0524208
-0.0523529
-0.0673756
-0.0724661
-0.0575566
-0.0476018
-0.042647
-0.0676697
-0.0776244
-0.0625565
-0.0574887
-0.0723982
-0.0673529
-0.042285
-0.00721717
0.0628055
0.187873
0.343054
0.578258
0.898394
1.13348
1.33853
1.6986
2.29376
2.56398
2.33921
2.03946
1.77464
1.40473
0.859819
0.229955
-0.194796
-0.274548
-0.209321
-0.149095
-0.133891
-0.168778
-0.148756
-0.15871
-0.16862
-0.173462
-0.183303
-0.173167
-0.1781
-0.178077
-0.168032
-0.167941
-0.162851
-0.162783
-0.172783
-0.177851
-0.172851
-0.167919
-0.168032
-0.173122
-0.168213
-0.168281
-0.163348
-0.173394
-0.168394
-0.163348
-0.168281
-0.153258
-0.148303
-0.163371
-0.173416
-0.178394
-0.178303
-0.183235
-0.203235
-0.208303
-0.208416
-0.213507
-0.243552
-0.258529
-0.268507
-0.283507
-0.313439
-0.323281
-0.338167
-0.353054
-0.372986
-0.402964
-0.427919
-0.447805
-0.457602
-0.48224
-0.481787
-0.471267
-0.465769
-0.470385
-0.454955
-0.434434
-0.418914
-0.398484
-0.348077
-0.297647
-0.26224
-0.236787
-0.216312
-0.17086
-0.125498
-0.105181
-0.0848191
-0.0644797
-0.0592534
-0.0541403
-0.0390724
-0.0140498
-0.00907243
-0.0141177
-0.0242082
-0.0143892
-0.00961541
-0.00981904
-0.0199322
-0.0250227
-0.0201132
-0.020362
-0.0257692
-0.0261539
-0.00651585
-0.00199095
-0.0275566
-0.0330996
-0.0134842
-0.0184616
-0.0378507
-0.0466516
-0.039457
-0.0257692
-0.010905
-0.0100226
-0.0025113
0.00266971
0.0139593
0.0141855
0.0281675
0.0410407
0.0372172
0.0358824
0.0467648
0.0608371
0.0645928
0.0487105
0.0381901
0.0528281
0.0623304
0.0619005
0.061448
0.0559729
0.0555204
0.0549548
0.0543891
0.0538461
0.058371
0.0529186
0.0474208
0.0619457
0.0764932
0.0809955
0.0553167
0.0593439
0.0730769
0.076267
0.0685973
0.0547285
0.0545249
0.0484616
0.0262896
0.0120589
0.00538465
0.00843895
-0.00223978
-0.00662892
-0.00574658
-0.0270362
-0.0456108
-0.0566063
-0.0564253
-0.0462669
-0.0364027
-0.0417647
-0.0371041
-0.0375339
-0.0429864
-0.0534389
-0.0589366
-0.0645475
-0.0602941
-0.0660407
-0.05681
-0.0426471
-0.0336199
-0.0347738
-0.0460181
-0.0473756
-0.0538688
-0.0702715
-0.0765837
-0.0728507
-0.0791855
-0.0854751
-0.0766968
-0.0628733
-0.0639819
-0.0748416
-0.0804525
-0.080905
-0.0711991
-0.0663575
-0.0613801
-0.0662896
-0.0659955
-0.0755882
-0.0750679
-0.0744344
-0.0737104
-0.0778959
-0.0920588
-0.0911991
-0.0702941
-0.0492986
-0.05319
-0.0620136
-0.0657919
-0.0594344
-0.0530543
-0.0416063
-0.0150226
-0.00337104
-0.00165159
0.0102941
0.0373756
0.0594344
0.0615158
0.0436878
0.0407919
0.0678054
0.0847059
0.076448
0.0531222
0.0347511
0.0362443
0.0426018
0.068733
0.0796606
0.0553846
0.0359502
0.0414027
0.0517421
0.0369457
0.0120588
0.00217195
-0.0127602
-0.0327602
-0.0527602
-0.0576923
-0.0526697
-0.0575566
-0.0623982
-0.0722851
-0.0572624
-0.0473529
-0.0573982
-0.0723529
-0.0673303
-0.0573303
-0.0573529
-0.0624208
-0.0623982
-0.0272624
0.0428281
0.112919
0.233032
0.418167
0.688371
0.983507
1.17862
1.41369
1.87382
2.419
2.47414
2.20932
1.9295
1.85466
1.21968
0.614683
0.0447285
-0.220249
-0.235181
-0.175045
-0.124864
-0.134683
-0.14448
-0.154344
-0.164231
-0.169118
-0.174118
-0.154186
-0.169253
-0.179344
-0.18448
-0.184593
-0.169661
-0.169661
-0.154615
-0.149593
-0.169638
-0.179751
-0.18491
-0.175023
-0.170181
-0.165317
-0.160407
-0.155498
-0.160611
-0.165769
-0.16595
-0.176018
-0.185995
-0.171018
-0.151086
-0.176176
-0.181335
-0.186561
-0.206606
-0.221584
-0.226584
-0.206584
-0.206674
-0.221833
-0.251968
-0.266968
-0.276923
-0.287014
-0.327149
-0.337127
-0.347104
-0.377104
-0.396968
-0.411719
-0.441448
-0.466176
-0.485815
-0.495385
-0.494955
-0.484593
-0.484321
-0.468914
-0.428416
-0.402919
-0.382534
-0.357262
-0.327059
-0.281833
-0.236561
-0.201244
-0.160928
-0.130656
-0.115362
-0.0900679
-0.0598417
-0.0447285
-0.0296607
-0.0296607
-0.0397059
-0.0397964
-0.0199322
-0.0401584
-0.0504073
-0.0456562
-0.0259955
-0.0012444
-0.0113802
-0.0315385
-0.0218553
-0.022353
-0.022896
0.00158364
-0.00398196
-0.0246381
-0.0402489
-0.0354752
-0.0253394
-0.0246607
-0.0431901
-0.0355204
-0.0214933
-0.00647064
-0.0303394
-0.0372173
-0.0116064
0.0042533
0.0138687
0.0322172
0.0802263
0.0753621
0.0528734
0.0479413
0.0368553
0.0307693
0.0300453
0.0246155
0.0241629
0.0386426
0.038077
0.0273982
0.0467648
0.0561539
0.0606109
0.06
0.0792987
0.0886425
0.0880317
0.0724661
0.0518326
0.0562896
0.0656335
0.064638
0.0683257
0.0615158
0.0640045
0.0503167
0.0450904
0.0544343
0.0520814
0.0429185
0.031018
-0.00692312
-0.0289367
-0.0247059
-0.0192308
-0.0267421
-0.0165612
-0.0133485
-0.0532353
-0.0679865
-0.0631901
-0.06862
-0.063982
-0.0493666
-0.0348191
-0.0453394
-0.0608146
-0.0413349
-0.0369232
-0.0676698
-0.0634616
-0.049344
-0.0553847
-0.071448
-0.077534
-0.0688688
-0.0653621
-0.0618779
-0.0633937
-0.0699548
-0.0564932
-0.0630769
-0.0695475
-0.0807918
-0.0819683
-0.0780317
-0.063914
-0.0647059
-0.050362
-0.0508597
-0.0761539
-0.0861765
-0.0860408
-0.0758371
-0.0755204
-0.0750679
-0.0745249
-0.073914
-0.0831901
-0.0924435
-0.0866516
-0.060724
-0.0597964
-0.0638462
-0.0527376
-0.0564706
-0.07
-0.0734389
-0.0519005
-0.00522626
0.0165611
0.0135068
0.0206108
0.0427149
0.0697964
0.0569231
0.0491176
0.0513122
0.0634389
0.0704298
0.0673755
0.0442534
0.036086
0.0574887
0.0535973
0.0544796
0.065181
0.065724
0.0662217
0.0666968
0.0420362
0.0122398
0.0023303
-0.0126697
-0.0327376
-0.0478507
-0.0530317
-0.0482579
-0.0484842
-0.0336878
-0.0489593
-0.0591629
-0.0543213
-0.0544344
-0.0445475
-0.0595702
-0.0695475
-0.0645249
-0.0494797
-0.0544797
-0.0245023
0.030543
0.0906335
0.195724
0.360724
0.625701
0.970611
1.07057
1.45068
1.84584
2.446
2.67613
2.46113
2.17609
1.91615
1.49133
0.871471
0.196606
-0.228258
-0.278258
-0.193281
-0.148326
-0.143439
-0.138552
-0.138597
-0.153643
-0.178733
-0.178824
-0.173846
-0.178846
-0.179005
-0.16914
-0.164253
-0.179389
-0.189593
-0.164774
-0.154887
-0.169977
-0.180068
-0.170158
-0.165294
-0.155385
-0.165498
-0.175588
-0.165724
-0.170837
-0.185973
-0.176063
-0.161063
-0.150996
-0.160996
-0.181109
-0.186199
-0.18629
-0.186335
-0.186403
-0.191471
-0.191493
-0.216516
-0.231652
-0.24181
-0.251855
-0.27181
-0.28681
-0.31681
-0.331742
-0.351697
-0.381742
-0.396787
-0.416652
-0.441358
-0.476086
-0.48586
-0.490566
-0.505181
-0.529615
-0.539095
-0.528597
-0.513145
-0.502738
-0.48733
-0.461923
-0.441606
-0.376358
-0.325996
-0.260634
-0.215226
-0.179819
-0.159389
-0.113937
-0.093439
-0.0881449
-0.0679865
-0.057896
-0.0478733
-0.0379412
-0.0280317
-0.0181222
-0.00319009
-0.00823534
-0.00330321
0.00151581
0.00128955
-0.00389144
-0.00411768
-0.00427606
-0.0045023
-0.0047738
-0.0251132
-0.0354751
-0.0258824
-0.0311991
-0.0412896
-0.0361991
-0.0206788
-0.0094118
-0.00194573
-0.00787332
-0.0233258
-0.0221494
-0.0142082
0.00151583
0.0183258
0.0292308
0.0288009
0.0271493
0.0435747
0.0622172
0.0678507
0.0565385
0.0450226
0.0539819
0.0632353
0.0675566
0.0669683
0.0814932
0.0810633
0.0654977
0.0698642
0.069276
0.0737331
0.0732127
0.0827376
0.0822851
0.0817195
0.0711086
0.0655883
0.0651131
0.0696833
0.0691403
0.0735294
0.0777376
0.0767195
0.0652942
0.0631901
0.0552489
0.0609729
0.0604525
0.0340951
0.0265838
0.0317874
0.0198643
-0.00669678
-0.0169683
-0.0260859
-0.028914
-0.0345928
-0.0476018
-0.0483484
-0.0333031
-0.0384615
-0.0589593
-0.0545928
-0.0451584
-0.0507466
-0.0565158
-0.0573303
-0.0531674
-0.0591177
-0.0801358
-0.0712896
-0.0474661
-0.0437557
-0.0551131
-0.0564932
-0.0730091
-0.0796833
-0.0864027
-0.0780995
-0.0596833
-0.0561765
-0.0626697
-0.0690272
-0.0652715
-0.071267
-0.0770362
-0.0875113
-0.0777828
-0.0827828
-0.0877602
-0.0975792
-0.0772625
-0.0769005
-0.0714027
-0.0708824
-0.0702941
-0.079638
-0.0839367
-0.0831222
-0.0872398
-0.0663575
-0.055362
-0.0543213
-0.0582353
-0.0471041
-0.0508371
-0.0494796
-0.0480543
-0.0265158
-0.00497738
0.0015837
0.0132353
0.0198869
0.0416742
0.0535294
0.0554977
0.0575792
0.0497285
0.0467873
0.0686652
0.0754525
0.0622172
0.0538462
0.040362
0.051629
0.0626697
0.0635973
0.0593665
0.0500452
0.0556335
0.051086
0.0314027
0.0117421
0.0020362
-0.0127828
-0.0376923
-0.0625566
-0.0574434
-0.0423529
-0.0472398
-0.0621719
-0.0671493
-0.0671267
-0.0670362
-0.0569457
-0.05681
-0.0516516
-0.0514932
-0.0763801
-0.061267
-0.0361991
0.00882351
0.0688688
0.148982
0.289072
0.484208
0.774321
1.03446
1.22966
1.49984
2.01502
2.47523
2.37541
2.08552
1.83061
1.54563
1.07072
0.475882
-0.0240498
-0.22405
-0.193914
-0.12871
-0.108575
-0.143529
-0.153507
-0.143462
-0.148303
-0.163122
-0.168122
-0.168235
-0.158416
-0.178529
-0.18862
-0.18371
-0.183688
-0.168575
-0.158552
-0.158575
-0.153688
-0.163756
-0.173733
-0.15871
-0.163665
-0.168643
-0.15862
-0.15862
-0.158688
-0.158824
-0.183869
-0.168891
-0.158869
-0.168824
-0.17371
-0.183733
-0.178801
-0.183891
-0.188959
-0.189072
-0.20414
-0.204186
-0.209208
-0.229163
-0.234072
-0.243891
-0.258688
-0.288484
-0.308416
-0.323371
-0.348213
-0.367851
-0.382421
-0.392036
-0.396742
-0.436471
-0.446109
-0.455701
-0.470226
-0.479706
-0.469208
-0.448688
-0.433054
-0.427398
-0.391878
-0.361425
-0.306018
-0.265566
-0.250113
-0.204683
-0.169208
-0.143756
-0.123281
-0.102828
-0.0975566
-0.077353
-0.047172
-0.0270588
-0.0220362
-0.0170588
-0.0271267
-0.0272172
-0.0172851
-0.00239822
-0.00248872
-0.00753397
-0.00762445
-0.0177602
-0.0330091
-0.0383032
-0.0286426
-0.0240724
-0.014457
0.000158362
-4.52548e-05
-0.0149774
-0.0195249
-0.0284616
-0.0265611
-0.0183484
-0.0239593
-0.0336652
-0.0271267
-0.00823532
0.00773753
0.0182126
0.0323529
0.0553845
0.0521718
0.0418778
0.0539818
0.0688687
0.0529185
0.0321266
0.0266741
0.05138
0.066018
0.0556334
0.0252714
0.0198642
0.0645248
0.0841402
0.0786877
0.0732579
0.0927601
0.0972172
0.0617194
0.0411991
0.0457692
0.0503619
0.0648189
0.0640723
0.0630543
0.0664706
0.0540724
0.0503846
0.0503167
0.0443212
0.0471266
0.0428506
0.0211312
-0.000927664
-0.0267874
-0.0514028
-0.055724
-0.0321494
-0.020905
-0.0169684
-0.0216743
-0.0214028
-0.0364707
-0.0416743
-0.05181
-0.0469458
-0.047172
-0.0674435
-0.0777376
-0.0680996
-0.0435521
-0.0390951
-0.0647964
-0.0905883
-0.0864254
-0.0723304
-0.0433258
-0.0343439
-0.0354978
-0.0366969
-0.0530317
-0.0644571
-0.0708598
-0.0822399
-0.0884842
-0.0896607
-0.0758145
-0.0717873
-0.0776471
-0.0782353
-0.0686426
-0.0639819
-0.0790724
-0.0840498
-0.0838462
-0.083552
-0.0632127
-0.0678507
-0.0723756
-0.0716968
-0.0758597
-0.0899774
-0.0739819
-0.0528959
-0.0617873
-0.0656335
-0.0743891
-0.0829185
-0.0713801
-0.0497511
-0.0230317
-0.00626696
0.00549775
0.00242082
0.0095249
0.0367647
0.0441177
0.0464706
0.0438009
0.0511539
0.0634389
0.0656109
0.0676471
0.0645928
0.0613575
0.0578959
0.0592987
0.0705656
0.0766516
0.0675566
0.0583258
0.0439819
0.0244118
0.0147285
7.45058e-09
-0.00486424
-0.0148869
-0.0299547
-0.0500226
-0.0550679
-0.0501131
-0.0452715
-0.0754977
-0.0704977
-0.055362
-0.0502941
-0.0552941
-0.0552262
-0.0600679
-0.0550226
-0.0600679
-0.0550679
-0.0250452
0.0250226
0.0750905
0.190158
0.385249
0.665339
0.965453
1.18054
1.44561
1.90579
2.44602
2.49615
2.24622
1.98129
1.90636
1.26143
0.661584
0.0718326
-0.232919
-0.232738
-0.157602
-0.142534
-0.157466
-0.162557
-0.16267
-0.157738
-0.162873
-0.163032
-0.173122
-0.173122
-0.1531
-0.158258
-0.168552
-0.168824
-0.158982
-0.158982
-0.168959
-0.168959
-0.148959
-0.143959
-0.158959
-0.153982
-0.16405
-0.16414
-0.164253
-0.169367
-0.164457
-0.169525
-0.169615
-0.169615
-0.179525
-0.169502
-0.184548
-0.184661
-0.174796
-0.174796
-0.179774
-0.194729
-0.209706
-0.214706
-0.234751
-0.264706
-0.269593
-0.269525
-0.274457
-0.32448
-0.344593
-0.364638
-0.394548
-0.419299
-0.42405
-0.448756
-0.483507
-0.503303
-0.512964
-0.512534
-0.522059
-0.531629
-0.526244
-0.500837
-0.465339
-0.454819
-0.429389
-0.378982
-0.338575
-0.303145
-0.262715
-0.21724
-0.171833
-0.156448
-0.121154
-0.0859955
-0.0608371
-0.0456561
-0.0304977
-0.0254525
-0.000520363
0.00927602
-0.000904985
-0.00604073
0.00384617
-0.00142533
-0.0118099
-0.00223981
0.00730771
0.0116968
-0.00393664
-0.014638
-0.0152941
-0.0208823
-0.0213574
-0.0168326
-0.0171267
-0.0171719
-0.0166516
-0.0252262
-0.0274887
-0.0134615
-0.00348414
-0.0123303
-0.00907236
0.011629
0.0275792
0.0224209
0.0161312
0.0296832
0.0455203
0.0436877
0.0491855
0.0583258
0.0675339
0.0670814
0.0617646
0.0863574
0.095905
0.0854298
0.0799773
0.074457
0.0689592
0.0734162
0.0728959
0.0874886
0.0920362
0.0914479
0.0805882
0.0745023
0.078009
0.0808823
0.0775792
0.0578507
0.0420589
0.0352942
0.0269684
0.0160634
0.00941181
0.0135521
0.00407245
-0.014276
-0.0159954
-0.0300904
-0.0464479
-0.0461991
-0.0356561
-0.0204524
-0.0154977
-0.0256108
-0.0357239
-0.0457466
-0.0407013
-0.0406334
-0.0455882
-0.0507239
-0.0461312
-0.0465158
-0.0518778
-0.0423076
-0.0329185
-0.0386877
-0.0495248
-0.0604977
-0.0466289
-0.0477601
-0.0439819
-0.0302941
-0.0367194
-0.0532126
-0.0647737
-0.0613801
-0.0479638
-0.044457
-0.0657919
-0.0720588
-0.0583032
-0.0595023
-0.0654751
-0.0712444
-0.0617874
-0.0671041
-0.0621267
-0.0668552
-0.0614254
-0.0508597
-0.060181
-0.0793891
-0.0785068
-0.0624661
-0.0513122
-0.0399548
-0.0483937
-0.05181
-0.0500905
-0.0432127
-0.0113575
0.0155204
0.0276244
0.0598869
0.0672398
0.0796606
0.0770814
0.0595249
0.0419231
0.0742987
0.0866063
0.0838688
0.0759955
0.0729186
0.0646606
0.0812444
0.0876244
0.0939367
0.0898643
0.0905656
0.0861538
0.0816742
0.0670814
0.0272624
-0.0176245
-0.0274435
-0.0272851
-0.0322172
-0.0472172
-0.0471946
-0.0621267
-0.0570136
-0.05181
-0.0466516
-0.0465385
-0.0364254
-0.0412896
-0.0411539
-0.0459502
-0.0508145
-0.0456787
-0.0255204
0.0346154
0.0947511
0.18491
0.315023
0.575294
0.910656
1.15095
1.35109
1.70118
2.26129
2.42645
2.25163
1.94188
1.69701
1.3321
0.75224
0.14733
-0.217624
-0.272579
-0.212443
-0.157217
-0.131923
-0.131697
-0.156606
-0.186584
-0.206561
-0.206471
-0.18638
-0.15638
-0.16638
-0.171357
-0.16129
-0.171244
-0.156199
-0.161199
-0.16129
-0.151448
-0.156538
-0.161584
-0.176584
-0.171584
-0.166697
-0.151878
-0.152036
-0.167104
-0.182127
-0.192149
-0.172217
-0.167308
-0.152376
-0.152443
-0.157489
-0.172511
-0.182511
-0.202602
-0.222624
-0.24267
-0.237692
-0.227602
-0.227534
-0.232557
-0.25267
-0.27276
-0.29276
-0.32767
-0.342625
-0.377625
-0.402715
-0.402896
-0.418009
-0.458077
-0.483168
-0.498145
-0.528122
-0.538054
-0.542987
-0.537919
-0.533054
-0.513054
-0.502873
-0.472625
-0.427444
-0.397308
-0.367263
-0.312149
-0.292014
-0.221901
-0.176787
-0.141539
-0.121244
-0.11095
-0.0757467
-0.055543
-0.0603621
-0.0601358
-0.0349322
-0.00979643
-0.00477379
-0.0146607
-0.0295702
-0.0244797
-0.00436657
-0.00427606
-0.00918557
-0.0189819
-0.0237557
-0.0335973
-0.0185973
-0.00361996
-0.00359733
0.00131217
-0.00889145
-0.0193439
-0.00520367
-0.03681
-0.0587783
-0.0604299
-0.0371041
-0.0299774
-0.0388688
-0.0506109
-0.0504073
-0.0497286
-0.0241403
-0.0223303
-0.0263122
-0.0228506
-0.0256787
-0.0253393
-0.0357013
-0.0409729
-0.0509502
-0.0458371
-0.0257466
-0.020724
-0.0157692
-0.0309276
-0.036086
-0.0211086
-0.0160407
-0.0209503
-0.0358824
-0.0208372
-0.0108598
-0.00581453
0.00416284
0.00916284
0.00925334
-0.000678785
-0.00563352
0.00932122
0.0292534
0.0291855
0.0142081
-0.000791892
0.00418547
0.00909497
-0.000995539
-0.000995517
0.00907237
0.00918549
-0.000769265
-0.0107014
-0.00570138
0.00934388
-0.000701368
-0.000882357
-0.00108598
-0.0161765
-0.0211538
-0.0210181
-0.00081449
0.0093665
-0.000475124
-0.0103168
-0.0102715
-0.00513579
0.0149321
0.0399773
0.0551131
0.0703393
0.0854524
0.0905203
0.0955656
0.095543
0.090543
0.0704525
0.0953394
0.0951584
0.0649321
0.0445927
0.0491855
0.0538009
0.0633484
0.0628281
0.062353
0.07181
0.0664254
0.0361086
0.0208371
0.0156109
0.0204073
-0.0197059
-0.0598642
-0.0801131
-0.0753167
-0.0654072
-0.0554525
-0.0755204
-0.0856335
-0.0807692
-0.080905
-0.0709276
-0.070905
-0.085905
-0.0959955
-0.0811086
-0.0512217
-0.0512443
-0.0561991
-0.0111538
0.0739367
0.188982
0.368914
0.663891
1.00376
1.26862
1.51344
1.97833
2.55326
2.63828
2.37333
2.0933
1.80319
1.28817
1.09821
-0.0217647
-0.341787
-0.301833
-0.201855
-0.161923
-0.172059
-0.167217
-0.16233
-0.172466
-0.187624
-0.182738
-0.182873
-0.193054
-0.183235
-0.198394
-0.198529
-0.183756
-0.178937
-0.178982
-0.168937
-0.173891
-0.183891
-0.183891
-0.183914
-0.178937
-0.168891
-0.163665
-0.168394
-0.163213
-0.173167
-0.173167
-0.1831
-0.183054
-0.192964
-0.187805
-0.172647
-0.182579
-0.182602
-0.202557
-0.202398
-0.192262
-0.207195
-0.227195
-0.242217
-0.267195
-0.287149
-0.302014
-0.316833
-0.336674
-0.346561
-0.381493
-0.401425
-0.421244
-0.440882
-0.475498
-0.490181
-0.504842
-0.51457
-0.529389
-0.544276
-0.529208
-0.519253
-0.499163
-0.469027
-0.434027
-0.389253
-0.34948
-0.304593
-0.25957
-0.214525
-0.179547
-0.144593
-0.11457
-0.0895927
-0.0796606
-0.0747285
-0.0597058
-0.0298416
-0.0151357
-0.0254072
-0.0254524
-0.0103393
-0.00015834
-0.000226229
-0.0104072
-0.0054751
-0.0104977
-0.0205203
-0.0205882
-0.0107013
-0.0107466
-0.020724
-0.0255882
-0.0254525
-0.0253394
-0.0299548
-0.0291403
-0.0129412
-0.00624434
-0.0086199
-0.0250905
-0.0113348
0.0021041
0.00624437
-0.0130543
-0.02319
-0.00687779
0.0108371
0.0125114
-0.00694566
-0.0110633
-0.00875562
-0.0154525
-0.023914
-0.0259502
-0.0151583
-0.019638
-0.0244796
0.000543043
0.0105883
0.00558829
-0.00441173
0.000588261
0.0156109
0.015724
0.00574665
0.0107693
0.0158598
-0.00400446
-0.018914
-0.00880085
0.00631228
0.00640279
0.00151591
-0.0033936
-0.00328047
-0.02319
-0.0330768
-0.0279863
-0.0128959
0.00219462
-0.00771488
-0.0126696
-0.0226018
-0.0274886
-0.0274434
-0.0173529
-0.00730763
-0.0172624
-0.0272624
-0.0322172
-0.0171719
-0.00210404
-0.0120588
-0.0270814
-0.0322172
-0.0323982
-0.0325565
-0.0376923
-0.0378507
-0.0279412
-0.0231222
-0.0283258
-0.0435068
-0.033733
-0.00398194
0.00583708
0.0257013
0.0506108
0.0655656
0.070543
0.0756787
0.0708597
0.0611312
0.0615158
0.0919909
0.0976244
0.0783484
0.059095
0.0548416
0.0705882
0.0863348
0.0670588
0.0477149
0.0432805
0.0387783
0.0241403
0.0193891
0.0147285
-0.0098869
-0.0546606
-0.0795475
-0.0844118
-0.0491855
-0.0339593
-0.0538236
-0.0637104
-0.0535973
-0.0434842
-0.0483711
-0.0732579
-0.0731674
-0.0680769
-0.0679638
-0.067896
-0.0828733
-0.0928507
-0.0627602
0.00744342
0.0976244
0.237783
0.452896
0.768054
1.07824
1.30839
1.57848
2.09853
2.61367
2.5538
2.28894
2.02398
1.69405
1.15416
0.479276
0.264367
-0.320566
-0.27043
-0.185317
-0.150249
-0.165136
-0.17
-0.164842
-0.164683
-0.179548
-0.189344
-0.184163
-0.184027
-0.183846
-0.188688
-0.17862
-0.173597
-0.178507
-0.183326
-0.188167
-0.183077
-0.183032
-0.168009
-0.168009
-0.168032
-0.163009
-0.172964
-0.172919
-0.172919
-0.177896
-0.197851
-0.177828
-0.172828
-0.172805
-0.172738
-0.182715
-0.19267
-0.182692
-0.202692
-0.217647
-0.217647
-0.217647
-0.227647
-0.247715
-0.267851
-0.2831
-0.308394
-0.323756
-0.339095
-0.36448
-0.374977
-0.405452
-0.435814
-0.461018
-0.481154
-0.506312
-0.526425
-0.546471
-0.546403
-0.546357
-0.541425
-0.526538
-0.516493
-0.496403
-0.45638
-0.411448
-0.366403
-0.331244
-0.290973
-0.245656
-0.200226
-0.174774
-0.139389
-0.0991176
-0.0888461
-0.083552
-0.0582805
-0.0331447
-0.0230995
-0.0331674
-0.0331221
-0.023009
-0.0129185
-0.0178732
-0.0278506
-0.0277375
-0.0176244
-0.0127375
-0.0231674
-0.0339592
-0.0248642
-0.0168552
-0.0251131
-0.0448416
-0.0605204
-0.0569004
-0.0649095
-0.0848416
-0.0939593
-0.0954751
-0.0943439
-0.105792
-0.108846
-0.10681
-0.0747737
-0.0567195
-0.0399774
-0.035
-0.0266516
-0.020724
-0.0178734
-0.0109955
-0.0167874
-0.0173077
-0.0123756
0.00271489
0.00776015
-0.00228509
-0.012353
-0.00248873
-0.00271498
0.00208143
0.00180993
-0.00346155
0.00633483
0.00613122
0.000972852
-0.00420818
-0.00934391
-0.0045023
0.00527145
0.0101131
0.0149321
-0.000181034
-0.00529415
-0.0104073
-0.000497758
0.0143439
0.0142081
0.00404977
-0.0111086
-0.0113122
-0.00642532
-0.00149319
-0.00147057
-0.00135744
-0.0162443
-0.00617644
0.00400455
0.00920817
0.0094118
-0.0052941
-0.00990947
0.00554302
0.0210408
0.0414933
0.051991
0.0774887
0.0780091
0.0835747
0.0940725
0.0995928
0.105023
0.0803168
0.0854978
0.115611
0.12052
0.110226
0.0896606
0.088914
0.103009
0.111923
0.105701
0.0993439
0.0929412
0.0915837
0.0602941
0.0490498
0.0378281
0.00669685
-0.0392534
-0.0500905
-0.0408145
-0.0314027
-0.0368099
-0.0471493
-0.067466
-0.0826696
-0.0878054
-0.0679185
-0.0580995
-0.0582353
-0.0732805
-0.0733258
-0.0584163
-0.0684841
-0.0735294
-0.048552
0.0214706
0.106493
0.131516
0.371561
0.636606
0.951561
1.1914
1.4162
1.86606
2.43097
2.46588
2.20575
1.93061
1.62545
1.14529
0.540136
-0.0500905
-0.335249
-0.310385
-0.185498
-0.155656
-0.16086
-0.156063
-0.156267
-0.151471
-0.161719
-0.176968
-0.177217
-0.182398
-0.167579
-0.157805
-0.143009
-0.138213
-0.153484
-0.13371
-0.133937
-0.149163
-0.154366
-0.154525
-0.144706
-0.159887
-0.160091
-0.150271
-0.160385
-0.155498
-0.155611
-0.155769
-0.155928
-0.156109
-0.15129
-0.156448
-0.151584
-0.156697
-0.166833
-0.166946
-0.172081
-0.19224
-0.212466
-0.22267
-0.222919
-0.2381
-0.263326
-0.278597
-0.298937
-0.319434
-0.345
-0.375498
-0.38595
-0.411267
-0.436539
-0.456787
-0.482082
-0.49224
-0.50733
-0.517398
-0.517421
-0.517534
-0.522624
-0.502625
-0.477624
-0.437625
-0.397602
-0.362534
-0.317353
-0.272036
-0.231652
-0.201267
-0.170837
-0.140317
-0.104932
-0.0745702
-0.0542534
-0.049095
-0.0290272
-0.0290046
-0.0240272
-0.0240498
-0.0290272
-0.0290272
-0.029163
-0.0193892
-0.0146381
-0.00979644
-0.0200679
-0.0306788
-0.0217195
-0.0184164
-0.0361765
-0.0453621
-0.0455431
-0.0566064
-0.0741177
-0.0937557
-0.0989593
-0.0968779
-0.0872625
-0.0800453
-0.0814028
-0.0831222
-0.0851811
-0.0828959
-0.060181
-0.0441629
-0.0247059
-0.0267195
-0.025905
-0.012715
-0.00717197
-0.00794121
-0.00861994
-0.00384619
0.00597282
0.00579184
0.00561084
0.0105656
0.0155882
0.0155882
0.0204977
0.0202941
0.0250679
0.0248869
0.00981902
0.0198643
0.0350226
0.0300679
0.0301131
0.0251358
0.0300453
0.0199548
0.0199095
0.0149095
0.0148643
0.0148416
0.00984164
0.014819
0.0199548
0.0150679
0.0100905
0.0100905
0.0201584
0.030362
0.0255656
0.0108597
0.00124434
-0.00334842
0.00712669
0.017647
0.0330995
0.028733
0.0243891
0.0200678
0.0407465
0.0564705
0.0722398
0.0929637
0.103665
0.104412
0.110136
0.100792
0.101357
0.121742
0.131968
0.106946
0.101629
0.101086
0.0953167
0.0893213
0.0880769
0.0966742
0.100249
0.0888462
0.0624208
0.051086
0.0398642
0.018733
-0.00228506
-0.0081448
-0.0238461
-0.0444344
-0.045
-0.0504299
-0.050724
-0.0459276
-0.0711312
-0.071267
-0.0513122
-0.0412217
-0.0561765
-0.0612217
-0.0512443
-0.0461991
-0.0461538
-0.046086
-0.0110407
0.0639819
0.143937
0.288914
0.538937
0.843869
1.05882
1.27887
1.66889
2.22385
2.37369
2.10853
1.81357
1.5538
1.47896
0.678937
0.0988235
-0.29629
-0.356425
-0.241538
-0.171719
-0.151787
-0.151787
-0.176855
-0.181991
-0.177172
-0.17233
-0.147421
-0.127466
-0.132466
-0.127534
-0.15767
-0.167805
-0.172828
-0.167805
-0.142783
-0.142851
-0.137919
-0.152919
-0.162919
-0.182896
-0.172851
-0.152828
-0.147738
-0.137715
-0.142715
-0.15276
-0.152851
-0.1581
-0.163394
-0.15871
-0.164095
-0.194457
-0.189796
-0.170158
-0.165407
-0.180747
-0.206086
-0.211448
-0.226765
-0.252104
-0.267466
-0.282896
-0.298303
-0.303665
-0.363914
-0.379163
-0.384457
-0.399638
-0.434615
-0.45948
-0.469208
-0.483688
-0.518077
-0.542443
-0.53681
-0.541176
-0.52552
-0.509864
-0.479186
-0.423575
-0.387941
-0.347262
-0.296629
-0.240973
-0.210317
-0.184683
-0.164027
-0.118394
-0.0980091
-0.0879638
-0.0632579
-0.0441629
-0.041086
-0.0493891
-0.0491176
-0.0300226
-0.0322624
-0.0419909
-0.053733
-0.0600905
-0.0652489
-0.094095
-0.126312
-0.122919
-0.109977
-0.114638
-0.12819
-0.116946
-0.11629
-0.105769
-0.110113
-0.104208
-0.0979638
-0.10095
-0.0927602
-0.0981674
-0.107624
-0.101109
-0.0878054
-0.0620136
-0.0455204
-0.0702036
-0.0862896
-0.0535068
-0.00606334
0.0126923
0.0038235
-0.0018552
0.00217193
0.0218099
0.00676472
-0.0182353
-0.00830317
0.0165837
0.0314706
0.0263348
0.0112443
0.00631221
0.00644796
0.0215385
0.0366742
0.0416742
0.0216968
0.0116742
0.0166968
0.0369231
0.042172
0.0275113
0.0128281
0.0181901
0.0285747
0.0290498
0.0146833
0.0253846
0.0363575
0.0373982
0.0484615
0.079638
0.0909502
0.0973077
0.108824
0.110385
0.111833
0.113326
0.0848869
0.106425
0.117805
0.133959
0.119955
0.110747
0.106267
0.116493
0.121425
0.121041
0.110475
0.104525
0.108371
0.0770815
0.0506561
0.0389367
0.0221041
-0.0148416
-0.0269004
-0.0342081
-0.0316289
-0.0440271
-0.0514253
-0.0337104
-0.0309502
-0.0430543
-0.0549774
-0.0667647
-0.0633484
-0.0746833
-0.075724
-0.0616063
-0.0623982
-0.0680995
-0.0385973
0.0259955
0.0906561
0.205453
0.410317
0.710226
1.01014
1.25002
1.54495
2.08984
2.53473
2.45468
2.16466
1.87468
1.53464
1.40948
0.389367
-0.145701
-0.380792
-0.330928
-0.201041
-0.171244
-0.166403
-0.146606
-0.141878
-0.167149
-0.177308
-0.182421
-0.177647
-0.172964
-0.178258
-0.173529
-0.178778
-0.18405
-0.169366
-0.179729
-0.179932
-0.165
-0.165113
-0.160294
-0.155407
-0.175475
-0.175407
-0.16543
-0.150543
-0.165679
-0.170769
-0.160769
-0.165724
-0.175633
-0.170498
-0.165339
-0.170158
-0.17
-0.184819
-0.179751
-0.184819
-0.204932
-0.210045
-0.225271
-0.235633
-0.256041
-0.28138
-0.291629
-0.306765
-0.317036
-0.367376
-0.38767
-0.402896
-0.428077
-0.46319
-0.478235
-0.508258
-0.523235
-0.528258
-0.533303
-0.528281
-0.518235
-0.497896
-0.472534
-0.442127
-0.411561
-0.376041
-0.325566
-0.274977
-0.219389
-0.183733
-0.158167
-0.127624
-0.101991
-0.0863801
-0.0558823
-0.0555656
-0.040362
-0.0302262
-0.0101357
-0.00999998
-0.00979637
-0.0147285
-0.0250679
-0.0207013
-0.0218099
-0.00877825
-0.00705881
-0.0167647
-0.0268552
-0.0437783
-0.0579185
-0.064457
-0.0762896
-0.0869231
-0.0961312
-0.108891
-0.119321
-0.116471
-0.119842
-0.120181
-0.10414
-0.0825792
-0.0598643
-0.0496607
-0.0525113
-0.0407466
-0.0352489
-0.0309955
-0.0232579
-0.0161086
-0.00850683
-0.00839368
-0.0143665
-0.0100905
0.00979637
0.00988686
0.0149095
0.035
0.0401357
0.010181
0.00513573
0.0200905
0.0251131
0.0200905
0.0199774
0.0298869
0.0397738
0.0146154
-0.000407241
-0.0104751
-0.000497729
0.0245701
0.0296154
0.00970587
0.00481899
-0.00515839
-9.0532e-05
-0.00493217
0.0103167
0.0255656
0.0208371
0.00619906
-0.0183484
-0.0328733
-0.0373077
-0.0266064
-0.00583711
-0.005
0.000904985
0.0219005
0.0379185
0.0590045
0.0902263
0.106448
0.102715
0.093914
0.0850226
0.0610181
0.0769004
0.102783
0.103303
0.0886199
0.088733
0.103665
0.098077
0.0972399
0.0960634
0.104615
0.107964
0.0911765
0.0542987
0.0072851
0.0103168
0.0134389
-0.0383258
-0.0400226
-0.0365611
-0.0529185
-0.0490724
-0.0650227
-0.0557919
-0.0564254
-0.0719457
-0.0973756
-0.0976923
-0.0678507
-0.0580091
-0.0780996
-0.0781448
-0.0931222
-0.1031
-0.083077
0.00192305
0.0869683
0.197014
0.377036
0.657127
0.962263
1.05233
1.44738
1.9374
2.4824
2.54735
2.27729
1.99224
1.73729
1.28733
0.677262
0.0471719
-0.322919
-0.328009
-0.203077
-0.163054
-0.167941
-0.152805
-0.14776
-0.157783
-0.172851
-0.177986
-0.173054
-0.188122
-0.173167
-0.16819
-0.173281
-0.178394
-0.193462
-0.173507
-0.168529
-0.173462
-0.178303
-0.168258
-0.173235
-0.18319
-0.168122
-0.153077
-0.153054
-0.152964
-0.147805
-0.162738
-0.16267
-0.172692
-0.177692
-0.172579
-0.177443
-0.17733
-0.177262
-0.18733
-0.197489
-0.202692
-0.217851
-0.228032
-0.238303
-0.263688
-0.279208
-0.294751
-0.320249
-0.340701
-0.356176
-0.386697
-0.402104
-0.412353
-0.447466
-0.482489
-0.497421
-0.517376
-0.522308
-0.527262
-0.512262
-0.502308
-0.512217
-0.481968
-0.456719
-0.426516
-0.411154
-0.330543
-0.289955
-0.244434
-0.198914
-0.158348
-0.132715
-0.107059
-0.0665385
-0.0562217
-0.0508597
-0.0454751
-0.0303393
-0.0302036
-0.0200452
-0.0149773
-0.00497734
-0.0102036
-0.0156561
-0.0115384
-0.00823528
-0.0211765
-0.0306335
-0.0361765
-0.0426697
-0.0509276
-0.0568778
-0.0691855
-0.0806561
-0.0907466
-0.119299
-0.120837
-0.119231
-0.118824
-0.12
-0.104321
-0.0985747
-0.096267
-0.0867195
-0.0597512
-0.042534
-0.0364932
-0.0467874
-0.0432579
-0.0166968
-0.00289598
-0.0069005
-0.0126018
-0.00834845
-0.0135068
-0.0185294
-0.023552
-0.0185068
-0.00343893
0.00162893
0.0115611
-0.0035973
-0.00371042
-0.00384617
-0.00891406
0.000972815
0.0108597
0.0207692
0.0156108
0.0154977
0.0154298
0.000361957
-0.00477379
-0.00479641
0.00518097
0.00506784
0.00506784
0.0101584
0.00529407
0.000497691
-0.0042308
-0.0189593
-0.00859735
-0.00316748
-0.00269237
-0.00221726
-0.0166743
-0.0110408
0.00963796
0.0353846
0.0412443
0.0471945
0.0682127
0.0842534
0.0953167
0.10129
0.0921493
0.0779412
0.0786199
0.104208
0.114638
0.094819
0.0797738
0.0644797
0.0638688
0.072896
0.091629
0.0800679
0.073371
0.0715158
0.0546154
0.0376244
0.0255882
0.0236425
0.0167421
-0.0200453
-0.06181
-0.0632353
-0.0495023
-0.0505656
-0.0514254
-0.0620362
-0.0825792
-0.0880769
-0.0883937
-0.09362
-0.0938009
-0.0889593
-0.0890724
-0.0891855
-0.0842987
-0.0644118
-0.0294344
0.0306108
0.125656
0.290724
0.540769
0.875814
1.14586
1.36586
1.73588
2.3309
2.61591
2.42086
2.13581
1.88077
1.52072
0.935701
0.275633
-0.199434
-0.304502
-0.22948
-0.179502
-0.184548
-0.17457
-0.164525
-0.174502
-0.164525
-0.159593
-0.174638
-0.174638
-0.184683
-0.179796
-0.174932
-0.180068
-0.170181
-0.175249
-0.175317
-0.175385
-0.185452
-0.17052
-0.155498
-0.160543
-0.170634
-0.170792
-0.155882
-0.160837
-0.170724
-0.170611
-0.160543
-0.165498
-0.170498
-0.160566
-0.175566
-0.18052
-0.170475
-0.180475
-0.185475
-0.195475
-0.210498
-0.220498
-0.23543
-0.25543
-0.280385
-0.295385
-0.290385
-0.310339
-0.330362
-0.340385
-0.365317
-0.400091
-0.424864
-0.454615
-0.469231
-0.483756
-0.488281
-0.477873
-0.477602
-0.477466
-0.477376
-0.457149
-0.431923
-0.396833
-0.351878
-0.317036
-0.272172
-0.222195
-0.177149
-0.152308
-0.122534
-0.0977376
-0.0678733
-0.0680543
-0.0582579
-0.0434842
-0.0387783
-0.0292082
-0.0247964
-0.0204072
-0.0209502
-0.0214706
-0.0369231
-0.0272851
-0.0126244
-0.0128281
-0.0229638
-0.0281674
-0.0283484
-0.0235068
-0.0235973
-0.0136878
-0.00880091
-0.0188462
-0.038733
-0.0432806
-0.0423756
-0.0307466
-0.0380769
-0.038914
-0.0234616
-0.0219683
-0.0138914
0.00656107
0.0279638
0.0379412
0.0457692
0.0311312
0.0334841
0.0471945
0.0418099
0.0271266
0.00438908
0.00192305
-0.00909507
-0.0239141
-0.0325113
-0.0290046
-0.0277602
-0.0386652
-0.0482353
-0.0376923
-0.0176697
-0.0078281
-0.0079186
-0.00300908
-0.0130996
-0.0280769
-0.0331222
-0.0281448
-0.0131222
-0.00812221
-0.0180543
-0.0179186
-0.00778286
0.00730766
-0.0126245
-0.0324887
-0.0374661
-0.027534
-0.022534
-0.0175566
-0.00762447
-0.00762448
-0.0276018
-0.0376697
-0.0277376
-0.017715
-0.0177376
-0.0128507
-0.0130091
-0.0231674
-0.0433937
-0.0436652
-0.0439819
-0.0294118
-0.0299095
-0.0403394
-0.0408824
-0.0364253
-0.036991
-0.0476471
-0.0433937
-0.0442081
-0.055
-0.0607918
-0.0516063
-0.0323077
-0.012828
0.00167422
0.011267
0.00590499
0.0157692
0.0258371
0.0411312
0.0517421
0.0475566
0.0336426
0.0399095
0.0763575
0.0878959
0.0844118
0.055905
0.0523982
0.0487783
0.0550679
0.0662217
0.0621719
0.0580317
0.0637783
0.0644118
0.0598642
0.045181
0.0153846
-0.00936652
-0.0441629
-0.0590272
-0.0490045
-0.0540272
-0.0540724
-0.0691177
-0.0691177
-0.0590498
-0.0540045
-0.0540045
-0.0690272
-0.0740498
-0.0691629
-0.0492534
-0.0443892
-0.0595023
-0.0695701
-0.0497059
0.0202036
0.0951584
0.215181
0.405204
0.695204
1.0002
1.22023
1.46529
1.94034
2.51034
2.52529
2.25527
1.98527
1.72527
1.27023
0.655136
0.0350679
-0.254977
-0.295023
-0.180045
-0.150045
-0.16
-0.15491
-0.159796
-0.174729
-0.164729
-0.169751
-0.179796
-0.184819
-0.184842
-0.184955
-0.190045
-0.190023
-0.184932
-0.184864
-0.164932
-0.155045
-0.170136
-0.155272
-0.15043
-0.170498
-0.16552
-0.160566
-0.165611
-0.175611
-0.175611
-0.160611
-0.160566
-0.175543
-0.170566
-0.175634
-0.185656
-0.185701
-0.185724
-0.195769
-0.190792
-0.210837
-0.21586
-0.22086
-0.23586
-0.24586
-0.280905
-0.29595
-0.305973
-0.33595
-0.365882
-0.370747
-0.39052
-0.400249
-0.430023
-0.449751
-0.464412
-0.488959
-0.498462
-0.513032
-0.502692
-0.49733
-0.491833
-0.45629
-0.425701
-0.395249
-0.369842
-0.339525
-0.294208
-0.243846
-0.213462
-0.183077
-0.15267
-0.112262
-0.0818778
-0.071629
-0.0715385
-0.0465158
-0.0316063
-0.0167421
-0.0118099
-0.00699095
-0.00217193
-0.0124208
-0.0176018
-0.00771492
-0.00782804
-0.0230317
-0.0284163
-0.00886877
-0.00432126
-0.00477375
-0.0152489
-0.0158145
-0.00651582
-0.0171267
-0.0173303
-0.0221945
-0.0216289
-0.0152036
-0.0323756
-0.0331222
-0.0228507
-0.0114706
0.00201353
0.0130542
0.0291854
0.0341176
0.037828
0.0553393
0.0808823
0.0837104
0.0688235
0.0576923
0.061561
0.0760407
0.0756561
0.0651809
0.0647058
0.0641854
0.0636425
0.0631447
0.0726244
0.082104
0.0865158
0.0959502
0.0904072
0.0748642
0.0743664
0.0588913
0.0684162
0.0728732
0.0770814
0.0908144
0.0990497
0.0864931
0.072647
0.0524434
0.0362443
0.0289592
0.0295248
0.017647
0.000769146
-0.00581456
-0.0153621
-0.033801
-0.0502263
-0.0489367
-0.0399096
-0.0345702
-0.0493213
-0.0444797
-0.0448191
-0.0501132
-0.0604299
-0.0558145
-0.0461991
-0.0566742
-0.067172
-0.0677376
-0.0584163
-0.0542308
-0.0600679
-0.0609502
-0.0569457
-0.0581222
-0.0643213
-0.0756561
-0.0771493
-0.0686199
-0.0652036
-0.066742
-0.0632579
-0.0647738
-0.081086
-0.0823077
-0.0784163
-0.0643891
-0.0602036
-0.0608145
-0.0711991
-0.0764027
-0.0764706
-0.0763801
-0.076086
-0.0606109
-0.0550452
-0.0644796
-0.0738009
-0.0780769
-0.0821946
-0.061267
-0.0602263
-0.0591403
-0.0729412
-0.0767195
-0.0703394
-0.0488235
-0.0223077
-0.0107014
-0.00389141
0.0179638
0.0299095
0.0369004
0.0589819
0.0611539
0.043371
0.0456109
0.0727828
0.0748869
0.056991
0.0489819
0.0458145
0.0474887
0.0590271
0.0654299
0.061629
0.0576244
0.0585068
0.0641176
0.0445928
0.0300905
0.0104751
-0.00429864
-0.0441629
-0.0640272
-0.0638914
-0.0537783
-0.0488009
-0.0438462
-0.0539367
-0.0540272
-0.0541176
-0.0641177
-0.0540724
-0.0589819
-0.0638236
-0.0687104
-0.0786652
-0.0786426
-0.0786652
-0.0436652
0.0213574
0.111403
0.236516
0.416719
0.681833
0.986855
1.2119
1.44692
1.91199
2.4521
2.46724
2.40224
1.93722
1.69722
1.24719
0.637195
0.0322172
-0.25776
-0.247715
-0.152715
-0.13267
-0.147647
-0.147647
-0.147647
-0.157715
-0.17276
-0.182851
-0.178009
-0.183258
-0.183529
-0.183756
-0.193937
-0.17905
-0.169118
-0.184231
-0.169344
-0.159502
-0.174706
-0.164887
-0.165045
-0.165204
-0.160339
-0.170498
-0.160701
-0.155882
-0.161018
-0.166086
-0.166109
-0.166109
-0.176131
-0.176199
-0.181267
-0.186312
-0.196358
-0.20638
-0.206403
-0.206471
-0.201584
-0.22172
-0.226901
-0.246946
-0.251923
-0.286946
-0.297014
-0.322082
-0.352082
-0.366968
-0.39172
-0.416448
-0.421199
-0.440905
-0.460588
-0.480226
-0.489729
-0.509208
-0.513778
-0.503371
-0.487873
-0.482353
-0.476946
-0.446584
-0.406199
-0.370792
-0.335339
-0.289887
-0.23948
-0.219163
-0.163891
-0.123552
-0.108213
-0.0828733
-0.0626471
-0.0525566
-0.0476697
-0.0328959
-0.0281448
-0.00832581
-0.00346155
0.00647058
0.00633484
0.00619909
-0.00393666
-0.00418552
-0.00943439
-0.0146833
-0.00993215
-0.0101584
-0.00545249
-0.0107919
-0.00610861
-0.00622173
-0.00604073
-0.0054525
-0.0142986
-0.00233033
0.0108371
-0.00463804
-0.00407245
-0.00746613
0.00122167
0.00739814
0.0436425
0.0645701
0.0683032
0.0708598
0.0612897
0.0639367
0.0737784
0.0721947
0.0656109
0.0595249
0.0635973
0.0626245
0.0515385
0.0704751
0.0744344
0.0733484
0.0772172
0.096086
0.109887
0.103688
0.0875566
0.0714254
0.0653394
0.0742987
0.0683258
0.0674661
0.0767647
0.0811312
0.0805883
0.0800226
0.079457
0.0839367
0.0783711
0.0728507
0.0673303
0.06681
0.0612896
0.0557919
0.0503394
0.054819
0.0542308
0.0486199
0.048009
0.0573756
0.0616289
0.0606335
0.0593891
0.0576923
0.0603167
0.0468778
0.0270814
0.031267
0.0193891
0.00599545
-0.014819
-0.031448
-0.0471946
-0.0519231
-0.050905
-0.0485973
-0.0491856
-0.0572172
-0.0684616
-0.0744797
-0.0759276
-0.0726244
-0.0692534
-0.0757466
-0.0722398
-0.0737331
-0.0849774
-0.0909955
-0.0919231
-0.0876923
-0.0833484
-0.0687557
-0.0589367
-0.0688462
-0.0885747
-0.103326
-0.0980091
-0.0826471
-0.0772172
-0.0717195
-0.0661086
-0.0704752
-0.0747512
-0.0840272
-0.0783711
-0.0777376
-0.0770589
-0.0614027
-0.050724
-0.0550227
-0.0593213
-0.0685521
-0.0628055
-0.0520136
-0.0562217
-0.0654751
-0.0646833
-0.0638688
-0.063077
-0.0622625
-0.0613349
-0.0553168
-0.0592082
-0.0531674
-0.0471267
-0.0559503
-0.0547285
-0.0482353
-0.026629
-0.0049774
0.0168326
0.0236425
0.040543
0.0676244
0.0797737
0.0669231
0.0540045
0.0511086
0.0782579
0.0754072
0.0625792
0.0596154
0.0615158
0.0682353
0.0798416
0.0813575
0.0678054
0.0590045
0.0649547
0.0657013
0.0364027
0.0269231
0.00219456
-0.0275113
-0.037172
-0.0318326
-0.0315385
-0.0363122
-0.0361539
-0.0359955
-0.030905
-0.0358597
-0.0408371
-0.0458597
-0.0558824
-0.0508824
-0.0358371
-0.0357919
-0.0407466
-0.0456335
-0.0304751
0.0246606
0.0797511
0.184842
0.314909
0.544977
0.825045
1.04511
1.24518
1.57018
2.08014
2.23005
2.02005
1.77007
1.58016
1.29027
0.805339
0.22043
-0.194434
-0.254321
-0.179299
-0.129299
-0.134412
-0.149525
-0.144593
-0.139661
-0.164706
-0.174638
-0.159683
-0.159842
-0.140045
-0.145158
-0.175204
-0.180272
-0.180385
-0.160588
-0.150882
-0.141176
-0.146358
-0.156425
-0.166448
-0.166471
-0.166606
-0.16181
-0.137036
-0.132195
-0.142217
-0.147195
-0.15224
-0.162308
-0.167376
-0.177443
-0.172489
-0.177489
-0.182376
-0.167285
-0.177285
-0.18233
-0.177421
-0.192489
-0.207466
-0.217421
-0.257466
-0.247602
-0.257624
-0.287557
-0.302534
-0.337534
-0.352557
-0.367534
-0.407398
-0.422059
-0.441629
-0.471109
-0.485543
-0.490045
-0.479661
-0.479276
-0.489005
-0.498688
-0.483303
-0.447851
-0.417466
-0.372127
-0.326765
-0.291244
-0.280701
-0.240385
-0.200249
-0.160136
-0.140045
-0.105136
-0.0503168
-0.0456109
-0.0510634
-0.0515611
-0.0420362
-0.0275113
-0.00807694
-0.0135747
-0.00407241
0.000475101
0.00499998
0.00950222
0.00391399
-0.006629
-0.0120136
-0.012353
-0.0178281
-0.0332127
-0.0334842
-0.0236199
-0.0135747
-0.0133258
-0.00746608
-0.000837132
-0.00814483
-0.0192987
-0.00438917
0.0114932
0.0237556
0.0333484
0.0187556
0.0182805
0.0165384
0.0287556
0.0545928
0.0583711
0.0445702
0.0388914
0.0527149
0.0566063
0.0854525
0.0886877
0.0708823
0.0716742
0.0611312
0.0193891
0.0310633
0.0452036
0.0475113
0.0205882
0.00995473
0.0154298
0.00748866
0.00210404
0.00470585
0.0097511
0.000769198
-0.0185973
-0.023439
-0.0183937
0.00162892
0.0115384
0.00638004
-0.00352946
-0.0333258
-0.0432127
-0.013077
0.00201352
-0.00296386
-0.00791859
-0.0229638
-0.0280091
-0.0430091
-0.0430996
-0.0331675
-0.0232353
-0.0132806
-0.0182806
-0.0383711
-0.0435747
-0.0188688
-0.00434393
-0.0247285
-0.0401584
-0.0407693
-0.0364706
-0.0272625
-0.0182127
-0.0241403
-0.0502036
-0.0663575
-0.0725792
-0.0589367
-0.035362
-0.0266968
-0.0429864
-0.0242534
-0.0104525
-0.0316742
-0.0627828
-0.0536199
-0.0442082
-0.0445023
-0.0695249
-0.0742987
-0.0389367
-0.00832581
0.00257918
0.00877827
0.0200905
0.0317421
0.0337783
0.0409276
0.0430995
0.0452941
0.0475339
0.0647511
0.0519457
0.0540724
0.0511312
0.0530316
0.0547511
0.0712896
0.0526244
0.023733
0.029638
0.0603846
0.0359728
0.00626694
-0.00859731
0.00651581
0.0166968
-0.0131674
-0.0530543
-0.0579638
-0.0329412
-0.0479638
-0.062896
-0.0427828
-0.0476245
-0.077534
-0.0926018
-0.062715
-0.0228733
-0.00805432
-0.0381222
-0.0531901
-0.0533485
-0.00352944
0.0563801
0.116335
0.246425
0.461516
0.776561
1.07663
1.31674
1.65667
2.23165
2.63674
2.4869
2.19706
1.92222
1.56744
1.00262
0.362828
-0.166968
-0.37181
-0.291652
-0.196538
-0.181538
-0.176584
-0.151584
-0.131538
-0.161516
-0.181493
-0.171584
-0.181697
-0.176652
-0.171561
-0.181516
-0.171538
-0.166652
-0.181742
-0.166878
-0.156991
-0.167036
-0.176991
-0.181878
-0.176833
-0.166946
-0.157014
-0.156946
-0.166855
-0.166855
-0.156923
-0.151946
-0.166968
-0.146946
-0.166833
-0.176787
-0.171878
-0.176968
-0.177036
-0.177036
-0.201946
-0.201833
-0.206742
-0.231584
-0.23638
-0.24629
-0.27129
-0.296244
-0.316109
-0.331041
-0.351154
-0.371312
-0.386335
-0.411222
-0.435995
-0.440656
-0.480226
-0.509819
-0.529412
-0.539027
-0.543643
-0.543235
-0.522783
-0.497263
-0.486878
-0.461629
-0.421516
-0.376471
-0.331493
-0.291448
-0.251493
-0.211787
-0.177036
-0.147059
-0.0971719
-0.0624434
-0.0478733
-0.0532579
-0.0435294
-0.033914
-0.0243891
-0.0199321
-0.0254072
-0.0359276
-0.0365158
-0.0420136
-0.0275566
-0.01819
-0.0187556
-0.019095
-0.00914026
-0.0139593
-0.0137783
-0.00868777
-0.0087104
-0.0135294
-0.018009
-0.0171719
-0.0107918
-0.0135068
-0.00984161
-0.0198416
-0.00864254
0.00918549
0.019638
0.031923
0.028552
0.0388461
0.0476696
0.0645248
0.0632805
0.0683936
0.0802941
0.0649999
0.0487783
0.0620135
0.0688687
0.0682579
0.0562443
0.045181
0.0243665
0.0107239
-0.00149325
-0.0115838
-0.00889145
-0.00400458
0.00647054
0.0116968
0.00167416
-0.00346159
-0.00848421
-0.0135068
-0.0235747
-0.0285973
-0.0186426
-0.00371045
-0.0187105
-0.0235973
-0.0134842
-0.0135068
-0.0134842
-0.0234164
-0.0183711
-0.0183485
-0.0282354
-0.0182127
-0.0132806
-0.0283485
-0.038439
-0.0385295
-0.0336652
-0.0288915
-0.0390951
-0.0343666
-0.0296833
-0.0249548
-0.0352942
-0.0357693
-0.0463575
-0.0320588
-0.0177828
-0.0135747
-0.00941178
-0.0103168
-0.0264027
-0.0475113
-0.0585973
-0.044819
-0.0461312
-0.0375113
-0.0388914
-0.0451131
-0.0562896
-0.0572624
-0.0429864
-0.0135747
0.0110634
0.0259276
0.041086
0.0415837
0.0423529
0.0683484
0.0645702
0.0460407
0.0426697
0.0495023
0.0714027
0.0783258
0.0650453
0.061629
0.0430769
0.0544118
0.065543
0.0614932
0.0622172
0.0628733
0.0683484
0.0587557
0.0291176
0.00932127
-0.015543
-0.050362
-0.0802489
-0.0751357
-0.0500452
-0.0450453
-0.0600679
-0.0701131
-0.0602262
-0.0452489
-0.0352036
-0.0302489
-0.0554072
-0.075543
-0.0806109
-0.0806335
-0.0856335
-0.0806335
-0.0306335
0.0493439
0.169344
0.334321
0.514276
0.794276
1.07914
1.29396
1.61398
2.16416
2.49937
2.30955
2.22471
1.72482
1.41993
0.940045
0.330158
-0.149751
-0.289661
-0.224525
-0.164367
-0.154253
-0.164163
-0.15405
-0.154005
-0.174005
-0.17405
-0.164095
-0.169027
-0.183959
-0.183869
-0.163665
-0.173529
-0.173575
-0.163959
-0.17448
-0.174796
-0.174977
-0.165249
-0.160498
-0.160656
-0.160747
-0.150792
-0.155814
-0.160837
-0.150882
-0.165905
-0.18095
-0.175995
-0.171109
-0.171222
-0.166357
-0.176403
-0.18138
-0.191357
-0.191267
-0.176176
-0.196176
-0.206267
-0.216403
-0.226471
-0.231493
-0.241493
-0.281538
-0.291606
-0.316742
-0.3469
-0.366968
-0.391833
-0.401561
-0.421199
-0.450792
-0.47043
-0.480091
-0.489683
-0.509321
-0.514005
-0.508688
-0.488235
-0.477738
-0.437262
-0.39681
-0.356357
-0.321041
-0.270724
-0.235362
-0.195023
-0.179683
-0.144367
-0.114118
-0.0939819
-0.0590724
-0.0442987
-0.0447285
-0.035362
-0.0361539
-0.0268326
-0.00735296
-0.00782807
-0.00848418
0.0057466
-0.00986427
-0.030362
-0.0107919
-0.00119912
-0.00176474
-0.00744347
-0.0180996
-0.0237557
-0.0394344
-0.0400227
-0.035362
-0.0302942
-0.0295702
-0.0180091
-0.0105656
0.01319
0.0182805
-0.000678733
-0.01319
0.00178733
0.0182805
0.033914
0.0441628
0.0471719
0.0488009
0.0482805
0.0600226
0.0645927
0.0634841
0.0626696
0.0621719
0.0615158
0.0503846
0.0588235
0.0564706
0.0580543
0.0631448
0.0470814
0.025
0.00633481
-0.0198869
-0.0172398
0.0109954
0.0654977
0.0912443
0.038733
-0.00615387
0.0219231
0.0219004
-0.012715
-0.0376471
-0.0477149
-0.0478281
-0.0429412
-0.0481674
-0.0482806
-0.0383032
-0.0334163
-0.0285294
-0.0285521
-0.0335747
-0.0386199
-0.0387331
-0.0338236
-0.0439141
-0.0438462
-0.0386426
-0.0387104
-0.0389367
-0.0392308
-0.049638
-0.0451584
-0.0358371
-0.0366289
-0.0324434
-0.0283258
-0.0343212
-0.0503846
-0.0564932
-0.0626697
-0.058914
-0.0503393
-0.0468325
-0.0382579
-0.0347737
-0.0464027
-0.0530091
-0.0795928
-0.0711086
-0.0624435
-0.0735747
-0.0795023
-0.0701358
-0.0605656
-0.0606561
-0.0604978
-0.0600453
-0.0544118
-0.0335294
-0.0173982
0.00389138
0.015362
0.0370135
0.0487556
0.0556335
0.0376244
0.0297058
0.0268552
0.0538687
0.0708371
0.0478506
0.0396606
0.0363122
0.0379185
0.0493665
0.0556335
0.0466742
0.0474434
0.0480769
0.0335068
0.0287783
0.0189593
-0.00590499
-0.0257919
-0.0407014
-0.0506787
-0.0605883
-0.055543
-0.0555656
-0.0556787
-0.0557692
-0.0558145
-0.0558371
-0.0608824
-0.0609729
-0.0661086
-0.071267
-0.0713801
-0.0614706
-0.0614932
-0.071448
-0.0263801
0.0687104
0.17371
0.34871
0.563665
0.89362
1.1586
1.37855
1.71348
2.27837
2.54817
2.40803
2.1281
1.86351
1.4691
0.889457
0.234638
-0.175113
-0.259864
-0.189751
-0.159729
-0.139796
-0.144842
-0.124864
-0.139864
-0.17491
-0.169955
-0.164977
-0.179955
-0.179977
-0.170023
-0.165113
-0.175181
-0.185226
-0.220317
-0.23543
-0.195498
-0.170566
-0.165679
-0.150815
-0.13095
-0.106086
-0.121199
-0.126267
-0.136267
-0.141176
-0.146109
-0.161154
-0.156222
-0.161312
-0.15138
-0.156448
-0.181448
-0.171357
-0.166244
-0.176177
-0.176177
-0.171312
-0.201448
-0.206516
-0.211629
-0.236697
-0.246652
-0.271538
-0.291403
-0.31629
-0.34129
-0.361312
-0.386244
-0.401086
-0.405792
-0.43043
-0.45
-0.469548
-0.494072
-0.50371
-0.498394
-0.468077
-0.457602
-0.452081
-0.421697
-0.406335
-0.376018
-0.330724
-0.290339
-0.24491
-0.194502
-0.169118
-0.138756
-0.103529
-0.0784163
-0.0633937
-0.0585068
-0.0437783
-0.0241629
-0.0196154
-0.0101584
-0.0207014
-0.0212217
-0.0216969
-0.027172
-0.0277828
-0.0234163
-0.0189593
-0.0144571
-0.0149774
-0.0155204
-0.0161086
-0.0316516
-0.0471946
-0.0527602
-0.0580996
-0.0480091
-0.0373756
-0.0258598
-0.0182806
-0.00909506
-0.00861995
-0.0121494
-0.00416296
0.0114479
0.0233032
0.0295023
0.0294118
0.0331448
0.0451132
0.0494797
0.065905
0.0654299
0.0595023
0.0538688
0.0634163
0.058077
0.0576924
0.047172
0.0564706
0.0649548
0.0627829
0.0544344
0.0595702
0.05362
0.0516969
0.0382353
0.027172
0.0149774
0.00873309
-0.00626693
-0.0149773
-0.0118551
-0.0110859
-0.0223755
-0.0167873
-0.0109275
-0.0205203
-0.0303846
-0.0452488
-0.0450678
-0.0349774
-0.0349095
-0.0347737
-0.0347059
-0.0245701
-0.0344118
-0.0444344
-0.0443891
-0.044276
-0.0342082
-0.0291629
-0.0191403
-0.0242534
-0.0243213
-0.0395023
-0.054819
-0.0601357
-0.0656109
-0.0611765
-0.0368326
-0.0275792
-0.0284163
-0.0343892
-0.0454752
-0.0515159
-0.0476245
-0.0438688
-0.0452037
-0.0416516
-0.0431448
-0.0495249
-0.0607467
-0.0569231
-0.0530543
-0.0590272
-0.0548643
-0.0505656
-0.0609955
-0.0661765
-0.0711312
-0.0657466
-0.0601358
-0.0443213
-0.0231901
-0.0118552
-0.00540726
0.0111765
0.0229412
0.0298642
0.0419004
0.049095
0.0462896
0.0385068
0.040724
0.0728733
0.08
0.0570588
0.0490271
0.050905
0.0526244
0.0641176
0.0654299
0.0665611
0.0624434
0.0581448
0.0586425
0.0440271
0.0244118
0.00475111
-0.0200226
-0.039819
-0.0396833
-0.0395928
-0.0545023
-0.0593892
-0.0542987
-0.049276
-0.0543213
-0.0593892
-0.0644344
-0.0695249
-0.0595249
-0.0445023
-0.039457
-0.0494344
-0.0543892
-0.0493439
0.000701346
0.0256335
0.170588
0.320656
0.585792
0.905928
1.14606
1.37111
1.7162
2.28129
2.5214
2.27656
1.98676
1.74195
1.3621
0.782195
0.147262
-0.247692
-0.282579
-0.197421
-0.142308
-0.15224
-0.167262
-0.152353
-0.162421
-0.172489
-0.162557
-0.167624
-0.17767
-0.16276
-0.167873
-0.177986
-0.178077
-0.173122
-0.163145
-0.1631
-0.178077
-0.1581
-0.153235
-0.163394
-0.153552
-0.153756
-0.158869
-0.163869
-0.163801
-0.158733
-0.14871
-0.163688
-0.173665
-0.163688
-0.163665
-0.16371
-0.16371
-0.183688
-0.188643
-0.18862
-0.193575
-0.198462
-0.213394
-0.213371
-0.228348
-0.243371
-0.248416
-0.273416
-0.298371
-0.313326
-0.348235
-0.368054
-0.377828
-0.402579
-0.42724
-0.44181
-0.461312
-0.48586
-0.495407
-0.5
-0.499615
-0.489208
-0.483688
-0.463145
-0.437692
-0.41224
-0.376787
-0.326335
-0.285814
-0.260317
-0.219864
-0.184502
-0.144253
-0.109072
-0.0989366
-0.0788914
-0.0490724
-0.0394344
-0.03
-0.030543
-0.0309955
-0.0314932
-0.027104
-0.0177828
-0.013371
-0.0138914
-0.0144117
-0.0049321
-0.0104977
-0.0160407
-0.0264932
-0.0269457
-0.0224434
-0.0279638
-0.0284163
-0.0135068
-0.00843888
-0.0226018
-0.0359955
-0.0381448
-0.0238235
0.00162897
0.00312217
0.00619908
0.0118778
0.0136651
0.0193212
0.0286199
0.0418099
0.073371
0.0872624
0.0832353
0.0723755
0.0663801
0.0658597
0.0653846
0.0694344
0.0830769
0.0862669
0.0835067
0.0793212
0.0740045
0.0727375
0.0650226
0.0500452
0.0392307
0.023552
0.0142081
0.00608591
-0.00565617
-0.0101811
-0.00208151
0.00828049
-0.00072404
-0.00518105
6.78189e-05
-0.0147738
-0.0147059
-0.0196607
-0.0196154
-0.0145249
-0.0243666
-0.0292761
-0.0142082
-0.0190951
-0.0039367
-0.00880095
-0.0137105
-0.0237331
-0.0288462
-0.0289593
-0.0390046
-0.0341403
-0.0194344
-0.0146381
-0.0148869
-0.0151358
-0.0304073
-0.0358145
-0.0313575
-0.0270362
-0.027896
-0.0288009
-0.0297059
-0.0356561
-0.0466742
-0.0578281
-0.0390724
-0.0354073
-0.03181
-0.03819
-0.0445927
-0.0409276
-0.0422398
-0.048371
-0.0593439
-0.0600226
-0.0604751
-0.0656787
-0.0605882
-0.0502262
-0.0345249
-0.0135746
0.0025792
-0.0010407
0.000520386
0.0322851
0.0492987
0.076448
0.0736878
0.0559955
0.0533258
0.0756335
0.0978959
0.0852036
0.0674887
0.0645928
0.0615159
0.0683032
0.0748643
0.0713349
0.0774661
0.0783484
0.079095
0.0697964
0.0403846
0.0308145
0.00613123
-0.0135973
-0.0234389
-0.0284842
-0.0385294
-0.0434842
-0.0483711
-0.0582353
-0.0631901
-0.0582127
-0.0482127
-0.0482127
-0.0682806
-0.0582353
-0.0480769
-0.0378959
-0.0428054
-0.0628055
-0.0178055
0.0773077
0.152489
0.26767
0.467851
0.773077
1.03328
1.23851
1.54876
2.06398
2.24414
2.20425
1.90943
1.64473
1.35005
0.860226
0.265294
-0.21457
-0.349412
-0.259344
-0.184299
-0.164231
-0.149208
-0.149163
-0.149231
-0.154321
-0.159321
-0.159276
-0.164231
-0.16414
-0.17405
-0.168959
-0.159005
-0.154095
-0.139208
-0.139389
-0.159593
-0.144751
-0.124842
-0.144842
-0.149864
-0.164932
-0.164932
-0.159955
-0.155045
-0.140023
-0.134955
-0.144842
-0.154774
-0.169729
-0.179729
-0.164887
-0.165045
-0.170068
-0.164977
-0.174729
-0.16957
-0.174593
-0.174683
-0.194796
-0.20491
-0.245
-0.259955
-0.264842
-0.289819
-0.324819
-0.359842
-0.379751
-0.38457
-0.399367
-0.42914
-0.453824
-0.478394
-0.497896
-0.50733
-0.521855
-0.526584
-0.521403
-0.506176
-0.505905
-0.495724
-0.455679
-0.415701
-0.375747
-0.330769
-0.315792
-0.25086
-0.195814
-0.160701
-0.155633
-0.130588
-0.0808145
-0.051086
-0.0563801
-0.0467195
-0.00705883
0.00255655
0.0022172
-0.0180091
-0.0281448
-0.0132805
-0.00825791
-0.0183258
-0.0183937
0.00158372
0.00151585
-0.0135068
-0.0234842
-0.0134389
0.00162895
0.0016742
-0.0230996
-0.0325113
-0.0165385
-0.00995476
-0.0175339
-0.00880089
-0.00893665
-0.00339367
0.00816742
0.0266063
0.0451583
0.0323755
0.0117646
0.00877821
0.034095
0.0544117
0.0393665
0.0314027
0.028914
0.01819
0.00925333
-0.002534
-0.0114707
0.00746598
0.0132579
-0.00072404
-0.0203621
-0.0252942
-0.0202942
-0.025362
-0.0104978
0.0144117
0.0193891
0.0144344
0.0245475
0.0296606
0.00968323
-0.000248894
-0.00506789
0.00504523
0.0151131
6.7845e-05
-0.0100453
-0.000158392
-0.0201584
-0.0250905
-0.0349774
-0.0248869
-0.0198417
-0.0148643
0.00995472
-0.000158399
-0.0102037
-0.0302715
-0.0602941
-0.045362
-0.0104299
0.00945702
0.0143891
0.00923077
-0.00590497
-0.0362217
-0.0515158
-0.0368326
-0.0272851
-0.012828
-0.023552
-0.0242534
-0.0148642
-0.0254751
-0.0461086
-0.0417647
-0.0424661
-0.0331674
-0.0187557
0.00572398
0.0202489
0.0299095
0.0397285
0.0447059
0.0548643
0.0652489
0.0657919
0.0665611
0.0724661
0.078371
0.0593891
0.0455656
0.0567873
0.0529864
0.0840045
0.0850452
0.0660181
0.0566968
0.0472398
0.0528507
0.0333032
0.00368777
-0.0210634
-0.0310407
-0.0709955
-0.0459502
-0.0359276
-0.0458597
-0.0557692
-0.0558371
-0.0560407
-0.051267
-0.0614932
-0.0766063
-0.0716516
-0.0567421
-0.0668552
-0.0869231
-0.071991
-0.0571041
-0.0471946
0.00773752
0.092647
0.192579
0.347557
0.602579
0.932534
1.19244
1.27238
1.88742
2.47753
2.64253
2.40253
2.10262
1.78267
1.32771
0.712738
0.0777828
-0.332149
-0.387082
-0.247036
-0.182104
-0.172195
-0.157262
-0.152376
-0.157421
-0.162308
-0.172262
-0.172308
-0.172308
-0.172285
-0.167376
-0.172489
-0.177602
-0.172692
-0.16267
-0.147715
-0.142805
-0.162851
-0.163009
-0.16819
-0.173371
-0.173439
-0.173484
-0.148552
-0.148507
-0.163507
-0.163484
-0.168529
-0.168665
-0.163801
-0.158824
-0.168733
-0.16862
-0.183575
-0.183552
-0.203665
-0.203801
-0.198869
-0.213914
-0.208846
-0.233869
-0.258914
-0.273891
-0.298937
-0.31905
-0.334118
-0.354186
-0.389231
-0.419208
-0.434005
-0.45871
-0.478371
-0.513009
-0.542805
-0.55267
-0.547534
-0.557443
-0.542421
-0.527421
-0.487443
-0.467534
-0.44267
-0.43267
-0.367738
-0.322783
-0.277783
-0.217805
-0.177805
-0.152805
-0.107851
-0.0930769
-0.0834842
-0.0439593
-0.0344344
-0.0301131
-0.0356561
-0.0460407
-0.0314253
0.00332581
0.01819
0.0131448
0.0231674
0.0130769
-0.00201357
-0.016991
-0.0219005
-0.0169231
-0.0120362
-0.0120588
-0.0119909
-0.0219683
-0.0167421
-0.0161312
-0.0150679
-0.0132805
-0.0152941
-0.0259276
-0.030724
-0.025543
-0.00828057
0.0207013
0.0339592
0.0306334
0.0441176
0.0449321
0.0412216
0.0225791
0.0263574
0.0195926
-0.00122181
-0.00488698
-0.0107241
-0.0134164
-0.00852948
-0.00780547
-0.0174209
0.00260176
0.0174434
0.0173529
0.0173303
0.0223077
0.0173303
0.0123303
0.017285
0.00228504
0.00233028
0.00246604
0.00264701
0.00778277
0.00789589
-0.00205886
-0.0170589
-0.0170362
-0.00696836
-0.00678736
-0.00667423
-0.021629
-0.0266516
-0.0367421
-0.0217421
-0.0117195
-0.0166516
-0.0166516
-0.00667424
-0.0167647
-0.01681
-0.0269457
-0.0270589
-0.022172
-0.0323077
-0.0223303
-0.0174434
-0.0226923
-0.0180091
-0.0233937
-0.0288235
-0.0292534
-0.0247511
-0.0252941
-0.0408145
-0.0463575
-0.0469231
-0.042466
-0.0030769
0.021267
0.0306787
0.0402263
0.054819
0.0645701
0.074457
0.0695701
0.064819
0.0451584
0.0554751
0.0810407
0.0716968
0.0575113
0.043552
0.0345475
0.0504751
0.0714253
0.0821946
0.0728281
0.0635068
0.069095
0.0645701
0.0399095
0.0300905
-0.00970587
-0.0344118
-0.054095
-0.0638688
-0.0486425
-0.0634842
-0.083371
-0.0833032
-0.0682579
-0.0682127
-0.0732127
-0.0782127
-0.0582127
-0.0482353
-0.0482127
-0.0481222
-0.0530543
-0.0630317
-0.038009
0.036991
0.121968
0.276946
0.486946
0.812014
0.922127
1.32729
1.59751
2.14269
2.61785
2.55296
2.26324
1.99853
1.66371
1.1038
0.418846
-0.136109
-0.315973
-0.245837
-0.170769
-0.140611
-0.155385
-0.170158
-0.16991
-0.174638
-0.174434
-0.169231
-0.174005
-0.173891
-0.178756
-0.183575
-0.193394
-0.18819
-0.178032
-0.173009
-0.178077
-0.1881
-0.188054
-0.173009
-0.172941
-0.157941
-0.147986
-0.168032
-0.167964
-0.172851
-0.167738
-0.16267
-0.162602
-0.172624
-0.172579
-0.177534
-0.172443
-0.182262
-0.202172
-0.207059
-0.201991
-0.201923
-0.211833
-0.221765
-0.236742
-0.241719
-0.266674
-0.301561
-0.311471
-0.331425
-0.356425
-0.376357
-0.396109
-0.420747
-0.445317
-0.464842
-0.484366
-0.498846
-0.508235
-0.517647
-0.512081
-0.496674
-0.486312
-0.46095
-0.450679
-0.440498
-0.39043
-0.350475
-0.31052
-0.255498
-0.215339
-0.185158
-0.155136
-0.125136
-0.100158
-0.0752036
-0.0652262
-0.0504072
-0.0407239
-0.0261991
-0.0167421
-0.0121493
-0.0176244
-0.0231674
-0.0236199
-0.018914
-0.004095
-0.0041855
-0.00418551
-0.00907239
-0.013914
-0.0287104
-0.0234389
-0.0132353
-0.0181674
-0.028009
-0.0324434
-0.0314253
-0.0247511
-0.0172172
-0.01819
-0.0336199
-0.0321945
-0.0145701
0.000497758
0.0126923
0.00414027
0.0139141
0.0368778
0.0673755
0.078846
0.0759728
0.0546605
0.0461085
0.0404071
0.0283257
0.0169004
0.00665149
-0.00744352
-0.0149096
-0.00988695
-0.0169231
-0.0167648
-0.00601812
-0.0106561
-0.0206561
-0.0207692
-0.0208823
-0.0109502
0.00902718
0.0140498
0.00409505
-0.000859715
-0.00083708
-0.0057466
-0.00561085
-0.000452481
-0.0102036
-0.0200679
-0.0199547
-0.0248869
-0.0147511
-0.00461538
0.00549775
-0.00943439
-0.0194344
-0.0294344
-0.0444118
-0.0344344
-0.0295701
-0.014638
-0.0196154
-0.0197059
-0.0198416
-0.015
-0.0152715
-0.0155656
-0.0309502
-0.0414027
-0.0368778
-0.027466
-0.0381221
-0.0388009
-0.0395248
-0.0453619
-0.0462443
-0.0321493
-0.0330316
-0.0438914
-0.0447285
-0.0455204
-0.0311765
-0.0116742
0.0129412
0.0227828
0.0277375
0.037828
0.0532353
0.068914
0.0748642
0.0561086
0.0426018
0.0691629
0.0807918
0.0824661
0.0641855
0.0508824
0.0474661
0.0539366
0.0702489
0.076448
0.0625113
0.063371
0.0590498
0.0396154
0.0200452
-0.00463803
-0.0293213
-0.0540272
-0.0587783
-0.0586199
-0.0685068
-0.0834615
-0.0733937
-0.0532805
-0.04819
-0.0630769
-0.0780091
-0.0679412
-0.0479186
-0.0528959
-0.0628959
-0.0679864
-0.0630091
-0.0579864
-0.0529864
0.0469683
0.12681
0.261697
0.471742
0.801923
1.07706
1.28219
1.59733
2.14247
2.52262
2.40774
2.13285
1.86303
1.50321
0.948371
0.298507
-0.181403
-0.316312
-0.231176
-0.156109
-0.136131
-0.146131
-0.151131
-0.151109
-0.155973
-0.165814
-0.175724
-0.170633
-0.17052
-0.180407
-0.170271
-0.180158
-0.175136
-0.170204
-0.165294
-0.175339
-0.170271
-0.165181
-0.165068
-0.150023
-0.155068
-0.155136
-0.155249
-0.150271
-0.170249
-0.185204
-0.160204
-0.160226
-0.165181
-0.155068
-0.154932
-0.159864
-0.179887
-0.18491
-0.179864
-0.189751
-0.204751
-0.214796
-0.214864
-0.229932
-0.245
-0.269932
-0.289842
-0.304819
-0.324774
-0.349706
-0.36957
-0.384344
-0.408982
-0.423575
-0.443167
-0.462783
-0.482376
-0.5019
-0.511471
-0.526199
-0.511041
-0.49586
-0.475679
-0.460588
-0.430656
-0.395792
-0.35586
-0.310882
-0.27095
-0.231041
-0.181109
-0.146063
-0.125995
-0.0960181
-0.0662896
-0.051629
-0.0470136
-0.0375113
-0.0230543
-0.0185747
-0.0189819
-0.0193439
-0.019638
-0.0197738
-0.0347964
-0.0297964
-0.0298643
-0.0148869
-0.00975113
-0.00966064
-0.00961539
-0.0295928
-0.0295023
-0.0193439
-0.00923078
-0.0037104
-0.0127602
-0.0312217
-0.0337557
-0.00981899
-0.00461537
-0.0136425
-0.00660631
0.00260185
0.0230317
0.0320588
0.0234842
0.0225113
0.0290498
0.0419005
0.0395928
0.0286425
0.0178281
0.0187104
0.0210407
0.00970586
0.00531673
0.00848417
0.00368777
0.00443437
0.00975111
0.00466062
-0.000384644
-0.00538462
-0.010543
-0.00065612
0.00920816
0.0191629
0.0241629
0.00918555
-0.0058371
-0.000882372
0.00411763
0.00409501
0.014095
0.00909501
0.004095
-0.00590499
-0.0108824
-0.000882357
0.00402717
0.00900454
-0.00601809
-0.016086
-0.0211538
-0.00619908
-0.0013122
-0.0114706
-0.021629
-0.0267647
-0.0119457
-0.00219455
0.00255657
-0.00271491
-0.00298643
-0.0183258
-0.0238235
-0.0193891
-0.0250226
-0.0306335
-0.0312896
-0.0320136
-0.0377149
-0.0384842
-0.034276
-0.0200226
-0.0107692
-0.0115611
0.00269229
0.0169909
0.0262896
0.0457692
0.0554299
0.0752036
0.0900905
0.0901584
0.0704299
0.065905
0.091629
0.102489
0.0834389
0.0594797
0.0505883
0.0516516
0.087715
0.0787557
0.0646833
0.065543
0.0712444
0.0668779
0.0323982
0.00776021
0.00309957
-0.0116516
-0.0315384
-0.0516063
-0.0516516
-0.0516289
-0.0665384
-0.0614932
-0.0614705
-0.0614027
-0.0713801
-0.0814253
-0.0664479
-0.0564479
-0.0714027
-0.0663574
-0.0613348
-0.0563122
-0.0612669
-0.0262669
0.0537331
0.118778
0.228778
0.423801
0.723756
0.983688
1.17371
1.43373
1.92376
2.2488
2.08387
1.79394
1.54903
1.27407
0.834027
0.263982
-0.185995
-0.31095
-0.225928
-0.145837
-0.150769
-0.160769
-0.135814
-0.135882
-0.140995
-0.156109
-0.161176
-0.161154
-0.161131
-0.151154
-0.156131
-0.151131
-0.141267
-0.146335
-0.14638
-0.146403
-0.146448
-0.161516
-0.156652
-0.14681
-0.1469
-0.141968
-0.131968
-0.137014
-0.127104
-0.137195
-0.142308
-0.142443
-0.142579
-0.14276
-0.152986
-0.148258
-0.163484
-0.163552
-0.153529
-0.158552
-0.158824
-0.184208
-0.199276
-0.203914
-0.223665
-0.233552
-0.24362
-0.273778
-0.293982
-0.304231
-0.33448
-0.354728
-0.37
-0.395294
-0.42052
-0.425747
-0.435837
-0.445837
-0.455792
-0.460792
-0.471063
-0.461425
-0.441561
-0.411403
-0.39129
-0.361425
-0.331561
-0.296471
-0.256493
-0.23629
-0.190973
-0.160633
-0.130407
-0.0951131
-0.0898869
-0.069819
-0.0397737
-0.0147737
-0.014819
-0.029819
-0.0300452
-0.0153846
-0.0104072
-0.0202941
-0.0302262
-0.0154298
-0.0106787
-0.00579184
-0.0109276
-0.0215158
-0.0371041
-0.0426244
-0.0284842
-0.0203394
-0.0379412
-0.0504525
-0.0441629
-0.0435973
-0.0339367
-0.0500226
-0.0804299
-0.0787104
-0.0644796
-0.0621946
-0.0622398
-0.0560407
-0.0436426
-0.0156335
0.00638013
0.0111087
0.00303172
-0.00717189
-0.00303163
-0.0137557
-0.014276
-0.004638
2.26498e-05
-0.000384599
0.0192308
0.0290272
0.0287783
0.0135068
-0.00178736
-0.00712673
-0.012353
-0.00266974
0.0272171
0.0221719
0.0119004
0.00165155
-0.00382356
-0.00441179
0.0202036
0.0300905
0.0198416
-0.00067874
-0.0261539
-0.0214932
0.00314479
0.00789591
0.00278279
-0.00237557
-0.00762445
0.0169683
0.0366063
0.0512896
0.0359955
0.000497714
-0.0348869
-0.0301584
0.0297737
0.0498869
-0.0252262
-0.120543
-0.0959502
-0.0711991
-0.0311991
-0.00592759
0.0195701
0.0398643
0.0400452
0.0553167
0.0754977
0.090543
0.0954977
0.105226
0.0950679
0.0897964
0.0788235
0.0677828
0.121742
0.165769
0.125226
0.039819
0.0242308
0.0683936
0.0672398
0.0509276
0.0647511
-0.00140271
-0.0274887
-0.0284615
-0.00929864
-0.0604525
-0.0716516
-0.0422851
-0.0527376
-0.0633484
-0.0738009
-0.0843213
-0.0353167
-0.026448
-0.0919457
-0.122104
-0.112353
-0.0627375
-0.0632579
-0.0785294
-0.0638009
0.0206335
0.0250679
0.0146606
0.0941855
0.30862
0.508122
0.567353
0.896335
1.16543
1.55971
2.02403
2.1336
1.85344
1.55785
1.37224
1.1069
0.666335
0.110656
-0.269932
-0.325543
-0.260995
-0.211425
-0.191946
-0.172624
-0.118281
-0.0839366
-0.124661
-0.140226
-0.100701
-0.106312
-0.152285
-0.158235
-0.159095
-0.154661
-0.14509
-0.16052
-0.146018
-0.186538
-0.192059
-0.14776
-0.153167
-0.103213
-0.0785067
-0.138982
-0.194321
-0.154796
