ekg
0
0.0166667
0
-0.0092857
0.000555575
-0.00409089
0.00269231
0.00266667
0.00323528
0.00342104
-0.000476182
-0.0104348
-0.00500001
-1.49012e-08
0.00534481
-0.000161305
-0.00439397
0.00142856
0.0014865
-0.0134615
-0.00378048
0.00662793
-0.00322221
-0.00787233
0.00214288
0.007451
-0.00273585
0.00227274
-0.00789472
0.00228815
0.0167213
-0.00333333
-0.0185384
-0.0131343
-0.0135507
0.0011972
-0.00534247
-0.0125333
-0.000519469
0.00582278
-0.017963
-0.026747
-0.0294117
-0.0312644
-0.0220225
-0.0370879
-0.0263441
-0.0150526
-0.0285567
-0.0320202
-0.0205445
-0.00427184
-0.0180476
-0.0169159
-0.0102752
-0.000810832
-0.000486732
-0.0241739
-0.0214957
-0.0398319
-0.065
-0.0758536
-0.07328
-0.066811
-0.0660077
-0.0799618
-0.088797
-0.0626667
-0.0466058
-0.0606115
-0.0547518
-0.0187413
0.00210343
0.00795916
0.0334899
0.0494702
0.0649673
0.0855807
0.0960191
0.096478
0.111708
0.121994
0.101879
0.0768862
0.0664793
0.0560234
0.0251734
0.0041143
-0.0173446
-0.0291061
-0.0513536
-0.0788251
-0.0868649
-0.105294
-0.129233
-0.14356
-0.133368
-0.14341
-0.163604
-0.163844
-0.163881
-0.168571
-0.162463
-0.170628
-0.172895
-0.169408
-0.175164
-0.180628
-0.22553
-0.310297
-0.414661
-0.454977
-0.385181
-0.125339
0.29948
0.874321
1.49403
1.91382
1.85367
1.20344
0.49819
0.103009
-0.102172
-0.222421
-0.202692
-0.187873
-0.108054
-0.0933711
-0.12371
-0.129005
-0.124321
-0.134638
-0.139932
-0.140272
-0.135566
-0.125814
-0.146086
-0.14638
-0.121584
-0.116855
-0.137127
-0.142353
-0.137579
-0.127851
-0.1331
-0.138348
-0.128507
-0.103733
-0.119027
-0.149208
-0.144299
-0.099457
-0.12457
-0.129774
-0.115
-0.110045
-0.110181
-0.115362
-0.11052
-0.100588
-0.0907014
-0.100837
-0.100905
-0.0709502
-0.0659502
-0.0859502
-0.0710181
-0.0511312
-0.0362443
-0.046267
-0.0312443
-0.0111765
0.00382355
0.00880091
0.0238235
0.0338235
0.0737104
0.078552
0.0885068
0.118529
0.143552
0.148643
0.163824
0.19905
0.229389
0.254819
0.260294
0.295928
0.331652
0.347398
0.373145
0.403914
0.429796
0.455588
0.446222
0.461787
0.49233
0.497715
0.488032
0.483235
0.483416
0.478575
0.438552
0.398462
0.373348
0.343167
0.292896
0.247715
0.212511
0.182285
0.127081
0.0867647
0.0665158
0.0614027
0.0311991
-0.00404979
-0.0243213
-0.0245475
-0.0347285
-0.070181
-0.0810181
-0.0671946
-0.0635747
-0.0947285
-0.0997059
-0.0927828
-0.0632353
-0.0708597
-0.071629
-0.0476245
-0.0365159
-0.0537104
-0.0628281
-0.0429638
-0.0337104
-0.0495249
-0.055362
-0.0309276
-0.021448
-0.0320815
-0.0427376
-0.0334389
-0.0291855
-0.0298643
-0.0454751
-0.0460634
-0.0364932
-0.0418778
-0.0571946
-0.0523077
-0.0422624
-0.0372398
-0.0572398
-0.0621946
-0.0620588
-0.06181
-0.0664706
-0.0561764
-0.0457918
-0.055362
-0.0650905
-0.069819
-0.0843891
-0.0640271
-0.0586651
-0.0882805
-0.0829412
-0.0625565
-0.0571493
-0.091448
-0.0852036
-0.068552
-0.0668099
-0.0857013
-0.0958597
-0.0932353
-0.0784389
-0.0815611
-0.111357
-0.114842
-0.114728
-0.136425
-0.131674
-0.125837
-0.129321
-0.122805
-0.111674
-0.110588
-0.109615
-0.108597
-0.122421
-0.131131
-0.114751
-0.103235
-0.121697
-0.115045
-0.108258
-0.126425
-0.124412
-0.117308
-0.115158
-0.102873
-0.11543
-0.112896
-0.100158
-0.0925113
-0.0948416
-0.0870136
-0.0892082
-0.0813801
-0.083552
-0.0958598
-0.0781448
-0.0655656
-0.0732353
-0.0760407
-0.0640498
-0.0672398
-0.0655656
-0.0741177
-0.072896
-0.0419005
-0.0560181
-0.0753394
-0.0597738
-0.0493665
-0.0390724
-0.0538914
-0.0688009
-0.0537783
-0.0538914
-0.0841403
-0.0793891
-0.0596832
-0.0601358
-0.0557013
-0.0614027
-0.0670362
-0.0577149
-0.0684842
-0.0792081
-0.0550905
-0.0261538
-0.0073982
0.00631222
0.0399774
0.0584616
0.0767873
0.0800453
0.0731901
0.0711765
0.0840724
0.0819231
0.0596832
0.0423303
0.0398642
0.0123529
-0.0202263
-0.0378733
-0.0605204
-0.0930996
-0.110701
-0.113145
-0.120475
-0.132692
-0.164864
-0.191765
-0.173439
-0.169842
-0.196109
-0.192263
-0.18819
-0.178959
-0.189729
-0.195317
-0.185701
-0.171018
-0.181244
-0.19138
-0.251493
-0.361629
-0.44172
-0.471742
-0.33172
-0.0217195
0.47319
1.07805
1.73803
2.12805
1.85296
1.0479
0.357828
0.0576922
-0.167308
-0.312376
-0.297557
-0.202738
-0.152806
-0.122896
-0.123077
-0.12819
-0.128326
-0.143575
-0.158846
-0.129027
-0.124231
-0.129434
-0.134661
-0.139932
-0.125136
-0.120339
-0.125634
-0.130837
-0.125973
-0.146086
-0.136177
-0.12629
-0.131448
-0.121561
-0.136652
-0.141742
-0.11181
-0.121878
-0.131946
-0.117036
-0.112059
-0.0970588
-0.107059
-0.122104
-0.107127
-0.087172
-0.0921267
-0.107014
-0.0820362
-0.0620589
-0.0570136
-0.0670136
-0.0619231
-0.0418326
-0.0367873
-0.0416969
-0.0216969
-0.00678737
0.00821265
0.0132353
0.0332127
0.0682579
0.0783484
0.0733937
0.0834389
0.0884615
0.128484
0.148552
0.17871
0.209005
0.229412
0.255
0.285634
0.326335
0.362104
0.387805
0.398462
0.419231
0.445045
0.470747
0.48138
0.491991
0.517534
0.527919
0.513167
0.503326
0.518394
0.488371
0.443326
0.413258
0.403235
0.3431
0.28776
0.237489
0.217308
0.182014
0.121719
0.0814027
0.0661312
0.045905
0.00563349
-0.039638
-0.054819
-0.0550453
-0.0553167
-0.0858597
-0.0919683
-0.0933937
-0.104864
-0.120747
-0.110249
-0.0925113
-0.0921041
-0.0886878
-0.0735068
-0.0645928
-0.0542986
-0.0571267
-0.0813801
-0.0615611
-0.0423756
-0.0381674
-0.0535973
-0.048914
-0.0292082
-0.0445928
-0.0551131
-0.0406335
-0.0213122
-0.0321946
-0.0479638
-0.0438009
-0.034638
-0.0454978
-0.0613122
-0.0569231
-0.037353
-0.0477376
-0.0781901
-0.0835747
-0.0788462
-0.0688688
-0.0638688
-0.0689141
-0.0788236
-0.0736652
-0.083439
-0.0981448
-0.0829412
-0.067715
-0.0924208
-0.102104
-0.0916969
-0.0862896
-0.0910181
-0.095724
-0.115362
-0.0999774
-0.0846154
-0.104118
-0.103167
-0.0816516
-0.0898869
-0.103258
-0.107353
-0.103122
-0.0863122
-0.102217
-0.125611
-0.119548
-0.116199
-0.129321
-0.144977
-0.139412
-0.12819
-0.131742
-0.140453
-0.124253
-0.113122
-0.121855
-0.130475
-0.133914
-0.122195
-0.115317
-0.123258
-0.111086
-0.0987783
-0.10638
-0.113959
-0.106471
-0.103824
-0.096086
-0.103348
-0.0955657
-0.077715
-0.0749322
-0.0821946
-0.0744118
-0.0667874
-0.0643213
-0.0819684
-0.0847512
-0.0628054
-0.0559955
-0.0695249
-0.0681901
-0.0620136
-0.0510634
-0.0502941
-0.0696833
-0.0641403
-0.0537783
-0.0586199
-0.0585521
-0.0585294
-0.0585747
-0.0437557
-0.053982
-0.0742308
-0.0645476
-0.0599774
-0.0604525
-0.045905
-0.0514254
-0.051991
-0.047534
-0.0532127
-0.0539593
-0.0397512
-0.0607014
-0.0665838
-0.0575566
-0.0435747
-0.0197286
0.00398184
0.0226244
0.0461764
0.0446379
0.0629411
0.0911538
0.094276
0.11224
0.105
0.10276
0.0854751
0.0530542
0.0154977
-0.00205889
0.00536191
-0.00730778
-0.0550227
-0.102738
-0.100339
-0.0977376
-0.120068
-0.152421
-0.17457
-0.161493
-0.153326
-0.169955
-0.171358
-0.172647
-0.178756
-0.189751
-0.175679
-0.166448
-0.162036
-0.172692
-0.183303
-0.188756
-0.269186
-0.389548
-0.454796
-0.420113
-0.240498
0.134163
0.663869
1.2836
1.84828
1.9829
1.48256
0.722285
0.212036
-0.0482579
-0.198597
-0.238937
-0.199321
-0.139706
-0.105045
-0.105385
-0.100792
-0.121244
-0.131697
-0.137104
-0.137511
-0.127941
-0.133281
-0.143575
-0.128937
-0.119367
-0.129774
-0.140226
-0.130634
-0.116018
-0.121358
-0.121629
-0.121923
-0.117172
-0.112398
-0.12267
-0.127941
-0.108235
-0.108552
-0.133778
-0.108982
-0.0992534
-0.0994797
-0.109683
-0.109819
-0.0899321
-0.0951357
-0.0953846
-0.0956335
-0.0909502
-0.0811991
-0.0664253
-0.0666516
-0.0618099
-0.0570136
-0.052285
-0.0425339
-0.0227828
-0.0129638
-0.00305427
0.00178736
0.00165162
0.0315838
0.0514932
0.0563575
0.0662896
0.0711539
0.111018
0.125928
0.14086
0.175905
0.211109
0.21638
0.226742
0.277104
0.317715
0.328394
0.349005
0.399706
0.41043
0.411109
0.426719
0.462262
0.482624
0.477986
0.468303
0.473507
0.478597
0.463575
0.423462
0.403326
0.398122
0.357851
0.297421
0.262081
0.231833
0.196516
0.146199
0.0958371
0.0804299
0.07
0.0297059
-0.0156109
-0.0209276
-0.0162217
-0.0365837
-0.061991
-0.0777602
-0.0840498
-0.0806109
-0.0820136
-0.0976471
-0.101606
-0.0831674
-0.0768778
-0.0680316
-0.0535972
-0.05138
-0.0626923
-0.0664932
-0.0515384
-0.0422624
-0.0383257
-0.0493438
-0.0451809
-0.0358823
-0.0316063
-0.0323076
-0.0381447
-0.0390497
-0.0349321
-0.0407692
-0.0513348
-0.051742
-0.0471719
-0.0425113
-0.0427375
-0.0328507
-0.0378733
-0.0529185
-0.0579412
-0.0578959
-0.0526697
-0.0724434
-0.0722398
-0.0569457
-0.0566289
-0.0713801
-0.0711312
-0.0708824
-0.0706787
-0.070362
-0.08
-0.0795928
-0.0841855
-0.0886199
-0.087896
-0.0715159
-0.0599322
-0.0485747
-0.0632353
-0.0696833
-0.0736426
-0.0803847
-0.0893666
-0.103462
-0.104638
-0.102353
-0.118077
-0.122783
-0.111719
-0.11543
-0.124344
-0.123439
-0.112602
-0.111719
-0.115815
-0.119955
-0.118891
-0.107738
-0.106471
-0.115023
-0.108462
-0.10181
-0.100091
-0.133281
-0.11629
-0.0941629
-0.0919231
-0.0994571
-0.0870136
-0.0846381
-0.0971494
-0.0895023
-0.101833
-0.0791403
-0.061448
-0.0788009
-0.0961313
-0.0685068
-0.0560181
-0.058733
-0.0715158
-0.0544344
-0.0575792
-0.065905
-0.0643665
-0.0630543
-0.0519683
-0.0460407
-0.0502941
-0.0646833
-0.0492534
-0.0440272
-0.0588462
-0.0536652
-0.0486878
-0.0488914
-0.0542534
-0.059638
-0.0599095
-0.0502263
-0.0457466
-0.0464027
-0.0570589
-0.0577376
-0.0534842
-0.0642987
-0.0452037
-0.00619915
0.00760175
0.00638004
0.0399321
0.0684841
0.0868778
0.0900678
0.0932126
0.0913122
0.0992307
0.102036
0.0898189
0.0775565
0.0252488
-0.0171947
-0.024706
-0.0321494
-0.0495929
-0.0870363
-0.119367
-0.106606
-0.0987558
-0.120747
-0.162625
-0.164299
-0.155769
-0.172082
-0.188281
-0.179208
-0.159955
-0.160566
-0.176109
-0.176584
-0.176901
-0.187127
-0.19733
-0.232557
-0.247715
-0.397783
-0.442738
-0.39267
-0.162534
0.242579
0.812737
1.42781
1.92781
1.95792
1.31796
0.562941
0.143009
-0.0719231
-0.231968
-0.277014
-0.232059
-0.162127
-0.127217
-0.132353
-0.127421
-0.112489
-0.117534
-0.122579
-0.132624
-0.137692
-0.127806
-0.142873
-0.147896
-0.117919
-0.118077
-0.138145
-0.14319
-0.143235
-0.128235
-0.113258
-0.123326
-0.123394
-0.108303
-0.118258
-0.128145
-0.112964
-0.112873
-0.117896
-0.127851
-0.10276
-0.0925113
-0.10224
-0.112081
-0.106991
-0.106878
-0.0917194
-0.0915384
-0.106357
-0.0811765
-0.0609728
-0.0608823
-0.0607692
-0.0556108
-0.0504525
-0.0252262
-0.00993209
0.0103394
0.0106109
-0.00918549
0.000950247
0.0311086
0.0563801
0.0717421
0.0769683
0.0921493
0.112421
0.127602
0.132805
0.17319
0.193733
0.254321
0.26
0.285792
0.336765
0.35776
0.37371
0.414706
0.435769
0.441878
0.457919
0.463914
0.484661
0.500226
0.490747
0.496199
0.496606
0.481946
0.457149
0.42233
0.382557
0.357715
0.317805
0.252805
0.217805
0.207783
0.14767
0.0925792
0.0625566
0.0475566
0.0325566
-0.00244344
-0.0324434
-0.0375566
-0.0376923
-0.0579412
-0.0783937
-0.0894796
-0.0856561
-0.0915837
-0.101493
-0.114683
-0.0902941
-0.0680769
-0.0836878
-0.0641855
-0.0376244
-0.0494796
-0.0633937
-0.0434163
-0.034276
-0.0404751
-0.0464932
-0.042172
-0.0226923
-0.0382805
-0.043914
-0.0544796
-0.0549321
-0.045181
-0.0404299
-0.0407013
-0.0457919
-0.0508371
-0.0508145
-0.0556335
-0.0603394
-0.0450679
-0.0447285
-0.0643665
-0.0490271
-0.038552
-0.0530317
-0.0825565
-0.0870814
-0.0815837
-0.081086
-0.0805656
-0.0750905
-0.064638
-0.0642308
-0.103756
-0.123032
-0.0819457
-0.0704298
-0.0836878
-0.0921041
-0.0965158
-0.0877828
-0.0866742
-0.10129
-0.100543
-0.100385
-0.112466
-0.130792
-0.14181
-0.151538
-0.145249
-0.148643
-0.137217
-0.121131
-0.115249
-0.134412
-0.153462
-0.132421
-0.121335
-0.135113
-0.123846
-0.107534
-0.106176
-0.124683
-0.133122
-0.116244
-0.109276
-0.127217
-0.124955
-0.107715
-0.115317
-0.11776
-0.120113
-0.112511
-0.109819
-0.102081
-0.0992986
-0.0914706
-0.0786877
-0.0808144
-0.0979864
-0.0953394
-0.0728507
-0.0704072
-0.0731674
-0.096086
-0.0741856
-0.0625792
-0.0711765
-0.0648643
-0.0588009
-0.0530543
-0.0574435
-0.0719005
-0.0715159
-0.0713349
-0.0563123
-0.0613801
-0.0714933
-0.0417195
-0.0521041
-0.0776471
-0.0832127
-0.0788914
-0.0546607
-0.0555882
-0.0664932
-0.0473756
-0.0434615
-0.034638
-0.0358371
-0.00221717
0.026267
0.0496607
0.077896
0.0810634
0.0740951
0.0720588
0.0800679
0.0927828
0.0904299
0.0579864
0.00542988
-0.00719455
-0.00981897
-0.0424434
-0.0701131
-0.0928507
-0.10043
-0.127828
-0.145226
-0.167466
-0.174434
-0.156244
-0.172896
-0.194299
-0.185543
-0.171742
-0.187805
-0.198778
-0.189593
-0.180249
-0.180769
-0.181222
-0.171538
-0.216946
-0.307353
-0.412579
-0.457738
-0.422964
-0.18819
0.221584
0.786335
0.971131
2.016
2.14586
1.5357
0.710543
0.205362
-0.0550226
-0.265498
-0.31595
-0.276335
-0.221697
-0.167059
-0.127376
-0.127715
-0.133213
-0.138642
-0.15405
-0.144502
-0.139909
-0.145294
-0.135679
-0.131063
-0.141516
-0.156946
-0.152353
-0.147805
-0.123258
-0.143575
-0.138937
-0.139299
-0.124683
-0.130136
-0.135566
-0.125928
-0.121222
-0.121516
-0.136742
-0.126991
-0.102262
-0.0924887
-0.11767
-0.112964
-0.103235
-0.103552
-0.103846
-0.094095
-0.0842986
-0.0895022
-0.0746832
-0.0747964
-0.0749321
-0.0551584
-0.045362
-0.0406335
-0.0258598
-0.0160634
-0.0113122
0.00355202
0.0283484
0.0381222
0.0578507
0.0675792
0.087466
0.102376
0.112195
0.132081
0.161968
0.1869
0.2119
0.227036
0.267285
0.31267
0.323167
0.348643
0.369095
0.379593
0.430113
0.440701
0.45129
0.476742
0.502014
0.507217
0.507398
0.512489
0.522534
0.487421
0.442217
0.4369
0.416561
0.356086
0.300566
0.280136
0.234661
0.184186
0.143688
0.108235
0.0928281
0.0573529
0.0218099
-0.00371042
-0.00916291
-0.0395928
-0.0600453
-0.0807466
-0.0817873
-0.0882806
-0.0899548
-0.101516
-0.107036
-0.0905883
-0.091629
-0.111968
-0.0924887
-0.0673077
-0.065
-0.071448
-0.0352263
-0.0251131
-0.025905
-0.0470136
-0.0429638
-0.0286199
-0.0340045
-0.0492308
-0.0344796
-0.0297738
-0.0250679
-0.0305656
-0.0311765
-0.0218778
-0.0226018
-0.0434616
-0.0394797
-0.0305883
-0.0316969
-0.0427602
-0.0438688
-0.0597964
-0.0605883
-0.0662896
-0.0670363
-0.047715
-0.0532127
-0.0636426
-0.0790272
-0.0742987
-0.0794344
-0.0795928
-0.094638
-0.104548
-0.0942987
-0.0690951
-0.0789593
-0.0938236
-0.0786426
-0.0783937
-0.0981222
-0.0928733
-0.0926471
-0.102285
-0.102036
-0.0968552
-0.101448
-0.085724
-0.0795249
-0.088077
-0.0863349
-0.0799774
-0.0749548
-0.0971041
-0.0969005
-0.0992308
-0.118032
-0.130475
-0.124706
-0.121063
-0.115792
-0.114615
-0.127986
-0.121267
-0.114683
-0.1181
-0.11138
-0.0996607
-0.0976923
-0.105588
-0.0985294
-0.0961765
-0.0937331
-0.0913122
-0.0988009
-0.0912444
-0.0835747
-0.0908372
-0.103167
-0.0854752
-0.0678733
-0.0655204
-0.0732806
-0.061086
-0.0541177
-0.0523756
-0.055724
-0.0743213
-0.0581448
-0.052172
-0.076448
-0.0707693
-0.0452263
-0.0398417
-0.054638
-0.0595023
-0.0444797
-0.0344797
-0.0495702
-0.0546833
-0.0598643
-0.0500453
-0.0453168
-0.0706787
-0.0609955
-0.0313122
-0.0517647
-0.0772851
-0.0528055
-0.0483937
-0.0389819
-0.0545249
-0.0651131
-0.0457466
-0.0414706
-0.0522625
-0.0580996
-0.0540045
-0.0500453
-0.0461539
-0.0523303
-0.0235294
0.010181
0.0337104
0.0322172
0.0705882
0.108756
0.116787
0.0997059
0.0925792
0.105362
0.0880995
0.0356109
0.018009
0.0253846
0.0227828
-0.0248643
-0.0475792
-0.0502941
-0.0729865
-0.105588
-0.11819
-0.135656
-0.142964
-0.170204
-0.187262
-0.16905
-0.160679
-0.172149
-0.188462
-0.184661
-0.170747
-0.171674
-0.187602
-0.163462
-0.14914
-0.179683
-0.240249
-0.340701
-0.381086
-0.436471
-0.346923
-0.0373755
0.46724
1.06183
1.64143
1.976
1.69554
1.00018
0.374887
0.0345023
-0.135928
-0.211312
-0.206787
-0.162262
-0.122692
-0.108077
-0.0984841
-0.128937
-0.139412
-0.119909
-0.135317
-0.145769
-0.131244
-0.126697
-0.112127
-0.132534
-0.147941
-0.128348
-0.123824
-0.139299
-0.129751
-0.110158
-0.120543
-0.130837
-0.136109
-0.136448
-0.126719
-0.127059
-0.12233
-0.102579
-0.107941
-0.113258
-0.113552
-0.0988009
-0.0890272
-0.0942534
-0.109525
-0.109729
-0.104887
-0.0950453
-0.095362
-0.0856561
-0.0708145
-0.0660634
-0.0713349
-0.0664706
-0.0416516
-0.0268552
-0.0169231
-0.0270588
-0.00214932
0.0176923
0.0274887
0.0273756
0.0472398
0.0720815
0.081991
0.0969457
0.1269
0.146833
0.156719
0.171719
0.211855
0.227172
0.257534
0.283009
0.31871
0.354502
0.365181
0.375792
0.386539
0.42224
0.447624
0.447896
0.443258
0.47362
0.483778
0.473846
0.453937
0.438937
0.433824
0.403688
0.353416
0.328077
0.297647
0.262172
0.216765
0.166425
0.146041
0.120633
0.0752036
0.0447964
0.0443665
0.0189367
-0.0213801
-0.0466516
-0.0470588
-0.0576471
-0.0687104
-0.0800226
-0.0665837
-0.0626244
-0.0723077
-0.0847511
-0.0745475
-0.056629
-0.052172
-0.0690498
-0.0691177
-0.041991
-0.0264027
-0.036629
-0.0321946
-0.0277376
-0.0330317
-0.0481222
-0.0382127
-0.0182579
-0.0133937
-0.0186878
-0.0340498
-0.0245928
-0.0202262
-0.0259276
-0.0417647
-0.0425339
-0.0383032
-0.0491855
-0.0500226
-0.0358824
-0.0266516
-0.0372851
-0.0528281
-0.0633484
-0.0637783
-0.049095
-0.069276
-0.0743665
-0.074457
-0.0744344
-0.0742987
-0.079095
-0.0588009
-0.0634842
-0.0831674
-0.0878959
-0.0626697
-0.0674208
-0.0921267
-0.0969005
-0.066629
-0.0612896
-0.0859729
-0.0906109
-0.0751584
-0.074457
-0.0832579
-0.101652
-0.104796
-0.0831674
-0.0828733
-0.0846154
-0.0888461
-0.0958597
-0.0951584
-0.108937
-0.134367
-0.14129
-0.136357
-0.125226
-0.118326
-0.111222
-0.104299
-0.117557
-0.12595
-0.109299
-0.117398
-0.125339
-0.113145
-0.100973
-0.113756
-0.116516
-0.0941403
-0.0816064
-0.0890272
-0.0864254
-0.0837557
-0.0811086
-0.0834163
-0.080724
-0.0832579
-0.0858598
-0.0685068
-0.0563123
-0.059344
-0.062534
-0.0558824
-0.0593213
-0.058077
-0.0670363
-0.0561086
-0.0452716
-0.0395702
-0.0539141
-0.0534842
-0.0481901
-0.0479412
-0.0677376
-0.0626471
-0.0476019
-0.0476471
-0.0726698
-0.0626924
-0.0527603
-0.0428508
-0.063077
-0.0683711
-0.0537331
-0.0441856
-0.0497286
-0.0502263
-0.0406788
-0.0411539
-0.0416516
-0.0522399
-0.0579412
-0.0437557
-0.0446607
-0.055543
-0.0315611
0.00233029
0.0259954
0.034457
0.062828
0.0961538
0.0942986
0.0722624
0.0801131
0.0878506
0.0955656
0.0582353
0.0357918
0.0333031
0.0157918
-0.0169457
-0.0496833
-0.0823304
-0.0950453
-0.0976923
-0.120249
-0.127647
-0.149887
-0.176946
-0.183869
-0.170588
-0.152127
-0.148416
-0.169367
-0.180249
-0.161109
-0.161833
-0.177353
-0.162715
-0.157986
-0.173213
-0.233416
-0.338597
-0.403756
-0.443982
-0.384208
-0.0992986
0.375634
0.945588
1.57052
2.07541
1.98036
1.26529
0.500091
0.104864
-0.130271
-0.280362
-0.315475
-0.260679
-0.180882
-0.136131
-0.116335
-0.146538
-0.14681
-0.142195
-0.127466
-0.127579
-0.122805
-0.118077
-0.128213
-0.138394
-0.14862
-0.133756
-0.118824
-0.138914
-0.15914
-0.124276
-0.114321
-0.134412
-0.14948
-0.124502
-0.119502
-0.119502
-0.144502
-0.124525
-0.0995249
-0.0995023
-0.124502
-0.124502
-0.114344
-0.0891855
-0.0991403
-0.11414
-0.103959
-0.0888235
-0.0888009
-0.078733
-0.0685973
-0.0635294
-0.0633937
-0.0732579
-0.0380543
-0.0128959
-0.00280544
-0.00766969
0.00748868
0.0226923
0.0279185
0.0230995
0.0332579
0.0585294
0.0787557
0.0888461
0.118982
0.134208
0.169434
0.184774
0.220249
0.275837
0.301516
0.307376
0.333303
0.374208
0.405113
0.421018
0.4269
0.452873
0.488801
0.48957
0.480294
0.520928
0.521493
0.516946
0.512195
0.492376
0.472602
0.437805
0.402896
0.357851
0.347805
0.297715
0.237602
0.177579
0.127624
0.107647
0.0775566
0.0425339
0.0276018
-0.00228506
-0.0472398
-0.0622398
-0.0522172
-0.0574434
-0.0732353
-0.0793439
-0.0855882
-0.0965384
-0.101244
-0.103801
-0.0937783
-0.0759276
-0.070724
-0.0609503
-0.044457
-0.0413801
-0.0550679
-0.0549322
-0.0454073
-0.0209729
-0.0163575
-0.0214254
-0.0412896
-0.0260634
-0.0208824
-0.00574664
-0.0206561
-0.0455204
-0.0354525
-0.0304978
-0.0405883
-0.0208371
-0.0211539
-0.0416516
-0.0571493
-0.0525792
-0.0280996
-0.0487783
-0.0742534
-0.0695249
-0.0598417
-0.0602036
-0.0704073
-0.0754299
-0.0702489
-0.0701132
-0.0748869
-0.0895023
-0.0740272
-0.0635294
-0.0930091
-0.107489
-0.08181
-0.0661086
-0.105498
-0.114864
-0.0841855
-0.0784615
-0.0926923
-0.101923
-0.106176
-0.0954299
-0.0997059
-0.108778
-0.0974661
-0.090543
-0.0833032
-0.0960407
-0.0994118
-0.0792986
-0.0765158
-0.106493
-0.114231
-0.0984163
-0.100814
-0.124412
-0.135091
-0.134231
-0.127308
-0.124796
-0.131991
-0.139502
-0.117217
-0.109955
-0.127466
-0.114887
-0.0972172
-0.104389
-0.126493
-0.108462
-0.0954299
-0.0874209
-0.0992987
-0.101199
-0.0830318
-0.0748643
-0.0818553
-0.0940046
-0.0713349
-0.0587331
-0.0813349
-0.0740498
-0.0519684
-0.0501358
-0.05862
-0.072353
-0.0561991
-0.0501811
-0.0693213
-0.0935747
-0.0629639
-0.0475114
-0.0671267
-0.07181
-0.0515611
-0.0463123
-0.0560634
-0.0609503
-0.0508824
-0.0507919
-0.0507466
-0.0507693
-0.0657467
-0.0657467
-0.0557693
-0.0658598
-0.0710181
-0.0462896
-0.0615838
-0.0768779
-0.0620815
-0.0523982
-0.0527828
-0.0533485
-0.0739593
-0.0645702
-0.0501584
-0.045905
-0.0319231
-0.00303172
0.0108144
0.034457
0.0379638
0.0664027
0.0796606
0.0777828
0.0757692
0.0887783
0.0766289
0.0393439
0.0269457
0.0194796
0.00699093
-0.0305204
-0.0780996
-0.0956788
-0.0982353
-0.110724
-0.133167
-0.165407
-0.172489
-0.164502
-0.176358
-0.192986
-0.189367
-0.185634
-0.181697
-0.192534
-0.193281
-0.183937
-0.17448
-0.174955
-0.180385
-0.190769
-0.251063
-0.376244
-0.451403
-0.441539
-0.286652
0.0532353
0.56319
1.18312
1.81803
2.15796
1.77292
0.962851
0.332692
0.0275113
-0.192692
-0.287896
-0.298054
-0.203235
-0.153552
-0.123824
-0.134072
-0.124389
-0.129706
-0.159977
-0.150294
-0.145679
-0.146018
-0.15129
-0.136538
-0.131855
-0.152217
-0.157489
-0.14267
-0.127919
-0.123258
-0.143462
-0.143575
-0.128778
-0.134005
-0.13914
-0.129299
-0.124412
-0.119548
-0.119593
-0.119683
-0.109842
-0.110045
-0.120136
-0.120204
-0.095362
-0.0854977
-0.100543
-0.105611
-0.080724
-0.0807466
-0.0907466
-0.0857692
-0.0658371
-0.0658597
-0.0659502
-0.0611086
-0.0361991
-0.021267
-0.0114027
-0.00647059
0.00341628
0.00828054
0.0382127
0.04819
0.0681674
0.0931674
0.0981222
0.108054
0.127964
0.163009
0.19319
0.208394
0.24362
0.29405
0.309525
0.330136
0.345814
0.381425
0.402081
0.417896
0.423529
0.453959
0.479412
0.484887
0.480272
0.490498
0.495611
0.490611
0.470566
0.44552
0.415339
0.390045
0.344796
0.294547
0.269208
0.228846
0.163484
0.108054
0.0877375
0.0724434
0.0370814
0.00174207
-0.0185068
-0.0187783
-0.0340498
-0.0643892
-0.0800453
-0.081267
-0.0828055
-0.104299
-0.110113
-0.104344
-0.0912444
-0.105407
-0.101719
-0.0714027
-0.052828
-0.0479864
-0.0509955
-0.0453846
-0.0407013
-0.0514706
-0.0573303
-0.0377602
-0.0279412
-0.0280317
-0.0332127
-0.023552
-0.0188688
-0.0194344
-0.0301131
-0.0258597
-0.0316968
-0.0326018
-0.0334389
-0.029276
-0.0352263
-0.0511765
-0.0469457
-0.0425792
-0.0531448
-0.0637331
-0.0692308
-0.0595023
-0.0596833
-0.0548416
-0.0749095
-0.0848869
-0.0897964
-0.0745702
-0.0792987
-0.0940272
-0.0887557
-0.0784616
-0.0781675
-0.0878281
-0.0875113
-0.0772399
-0.0768779
-0.101471
-0.096086
-0.0907466
-0.0803846
-0.089638
-0.0883711
-0.0717647
-0.0750905
-0.0888236
-0.0790045
-0.0713801
-0.0814254
-0.0991403
-0.1081
-0.11543
-0.119367
-0.125543
-0.135996
-0.119932
-0.0984842
-0.122059
-0.135747
-0.10948
-0.0981222
-0.116539
-0.119774
-0.117986
-0.116109
-0.0990498
-0.10681
-0.124548
-0.0921946
-0.0797512
-0.0922399
-0.0997059
-0.0870815
-0.0844118
-0.10181
-0.0892308
-0.0766516
-0.0841403
-0.0717648
-0.0745475
-0.0874661
-0.075543
-0.0637783
-0.0721946
-0.0658145
-0.0447059
-0.0638688
-0.0781901
-0.0626018
-0.0571041
-0.0667873
-0.0616742
-0.066629
-0.061629
-0.0517195
-0.0519457
-0.0572172
-0.0574887
-0.0528507
-0.0632806
-0.0687557
-0.0541855
-0.0496833
-0.0702941
-0.0708824
-0.0565385
-0.0571946
-0.0579186
-0.0736199
-0.0693665
-0.060181
-0.061086
-0.0670815
-0.058077
-0.0491856
-0.00545252
-0.0167647
0.00685517
0.0404072
0.0588235
0.0770814
0.085181
0.0832127
0.0861312
0.0889819
0.0816742
0.0542081
0.0367194
0.0242534
0.00671943
-0.0159955
-0.0537104
-0.0813349
-0.0939593
-0.106471
-0.123914
-0.13629
-0.168575
-0.180656
-0.172557
-0.174299
-0.190882
-0.19224
-0.178416
-0.164457
-0.170385
-0.196199
-0.181923
-0.177602
-0.178258
-0.178801
-0.244231
-0.359638
-0.434955
-0.445158
-0.330339
0.00438915
0.499118
1.09385
1.69364
1.97351
1.64335
0.903077
0.312805
0.177557
-0.152715
-0.227986
-0.203167
-0.143416
-0.103733
-0.10905
-0.124367
-0.114774
-0.105158
-0.10552
-0.130973
-0.136312
-0.121584
-0.126968
-0.14224
-0.127489
-0.10776
-0.123122
-0.138507
-0.113801
-0.104072
-0.109321
-0.11457
-0.109864
-0.105068
-0.100249
-0.11052
-0.125747
-0.110814
-0.105882
-0.111041
-0.106109
-0.0911765
-0.086267
-0.101403
-0.0965837
-0.0717421
-0.0567873
-0.0618778
-0.0719457
-0.0570136
-0.0470136
-0.0470136
-0.0470588
-0.0371267
-0.0222398
-0.0223077
-0.0273303
-0.00735293
0.00753395
0.0324435
0.0324435
0.0423982
0.042353
0.0573303
0.0623077
0.0772625
0.117285
0.12733
0.152376
0.182466
0.20276
0.223009
0.238371
0.258914
0.299457
0.330181
0.346041
0.371787
0.392557
0.423394
0.444163
0.454796
0.455407
0.460973
0.491471
0.486833
0.477081
0.47724
0.45733
0.42233
0.397262
0.372172
0.341991
0.296742
0.246471
0.21629
0.176154
0.135882
0.0956335
0.0704751
0.0553167
0.0350679
-0.000203617
-0.000429858
-0.0205656
-0.0356787
-0.0511765
-0.0721946
-0.0834615
-0.0947511
-0.0906108
-0.08
-0.0671267
-0.0814932
-0.0982805
-0.0837783
-0.0506561
-0.0458598
-0.0538009
-0.0573982
-0.0424887
-0.0429186
-0.0532579
-0.0533711
-0.0286426
-0.0189367
-0.0193666
-0.0299322
-0.0354978
-0.0160407
-0.0267195
-0.0524661
-0.0480543
-0.0434842
-0.038914
-0.0492987
-0.0395249
-0.0246154
-0.044638
-0.0695701
-0.0644344
-0.0541403
-0.0537783
-0.0634163
-0.073009
-0.0675113
-0.0670588
-0.0916516
-0.101176
-0.0756788
-0.0752036
-0.0946833
-0.10414
-0.0786652
-0.0631674
-0.0776018
-0.0969683
-0.0912217
-0.0901131
-0.0785294
-0.0916516
-0.0947511
-0.0835747
-0.0740498
-0.0769457
-0.0976244
-0.101199
-0.105928
-0.113665
-0.122557
-0.128529
-0.118167
-0.11681
-0.135204
-0.128462
-0.112036
-0.125814
-0.134593
-0.123326
-0.121833
-0.120226
-0.118575
-0.116787
-0.119932
-0.0980317
-0.115973
-0.133733
-0.106425
-0.103982
-0.111516
-0.0989819
-0.0913575
-0.0986199
-0.095905
-0.0931901
-0.0802942
-0.0874661
-0.0897059
-0.0819231
-0.0692308
-0.0666969
-0.0692308
-0.0769684
-0.0698643
-0.0529186
-0.0711991
-0.0947059
-0.063439
-0.0523303
-0.0564027
-0.0606335
-0.0649774
-0.0444118
-0.0489367
-0.0685521
-0.0733711
-0.0532127
-0.0530317
-0.0730317
-0.0782127
-0.0584842
-0.0487783
-0.0541403
-0.0695023
-0.0400453
-0.045724
-0.0714028
-0.0770136
-0.0626924
-0.0534616
-0.0544118
-0.0554299
-0.0515159
-0.0427376
0.0309275
0.0295022
0.0429637
0.0813348
0.0896153
0.0827375
0.0857918
0.093733
0.0714932
0.0291402
0.0117194
0.014276
-0.00325795
-0.0507466
-0.0831675
-0.080724
-0.0882579
-0.130679
-0.153077
-0.150317
-0.15733
-0.174186
-0.175928
-0.182534
-0.184027
-0.185294
-0.186222
-0.192036
-0.182828
-0.163507
-0.184005
-0.194367
-0.184661
-0.194977
-0.280294
-0.395588
-0.445701
-0.440815
-0.280973
0.0838914
0.628846
1.25885
1.89871
2.14857
1.72855
0.893507
0.273326
-0.0219005
-0.232059
-0.287217
-0.302466
-0.227692
-0.167873
-0.128122
-0.128394
-0.153688
-0.149072
-0.139434
-0.149728
-0.15
-0.140385
-0.135633
-0.145882
-0.146176
-0.15138
-0.136674
-0.121946
-0.122127
-0.137308
-0.132557
-0.127783
-0.137964
-0.128122
-0.123326
-0.128507
-0.128597
-0.128643
-0.138756
-0.118914
-0.114027
-0.124118
-0.124208
-0.104366
-0.0946832
-0.099819
-0.0998869
-0.0899774
-0.0800679
-0.0801584
-0.095181
-0.0752262
-0.0503167
-0.0604298
-0.0805656
-0.0606561
-0.0307466
-0.020905
-0.0110859
0.0138462
0.0238236
0.0437104
0.0486878
0.0536878
0.0635973
0.0784616
0.0884389
0.123439
0.153394
0.168416
0.188462
0.213416
0.258756
0.294231
0.314729
0.325362
0.356018
0.391742
0.407466
0.423213
0.453869
0.474367
0.484729
0.495113
0.495453
0.495611
0.505634
0.475679
0.455679
0.460453
0.425181
0.364932
0.319615
0.299276
0.268982
0.21862
0.158167
0.107805
0.0825113
0.0571493
0.0217873
0.00653848
-0.00875564
-0.0391855
-0.054638
-0.0500679
-0.0558597
-0.0871267
-0.103733
-0.100362
-0.0961991
-0.105339
-0.112104
-0.0910407
-0.0770362
-0.0868326
-0.0735973
-0.0441629
-0.0375339
-0.0421719
-0.042828
-0.0438009
-0.0447285
-0.0402715
-0.0406335
-0.0458371
-0.0311991
-0.0117194
-0.0173982
-0.03319
-0.039095
-0.0200452
-0.0309955
-0.0519231
-0.0629185
-0.058914
-0.0399095
-0.0557918
-0.0664932
-0.0621041
-0.0577149
-0.0632127
-0.0735973
-0.068914
-0.069095
-0.0792308
-0.0943665
-0.0944118
-0.0793665
-0.0743213
-0.0941629
-0.0940045
-0.0788235
-0.0835973
-0.073371
-0.0831222
-0.0878507
-0.0876018
-0.0923982
-0.0971493
-0.0918326
-0.0915385
-0.100996
-0.0998869
-0.0733937
-0.0818552
-0.100588
-0.0904978
-0.0674435
-0.0869457
-0.109095
-0.113009
-0.111086
-0.126041
-0.132896
-0.128937
-0.138122
-0.131765
-0.120317
-0.134095
-0.132941
-0.101697
-0.110317
-0.138778
-0.127081
-0.115181
-0.108235
-0.126199
-0.118959
-0.111606
-0.109231
-0.11181
-0.0942986
-0.0916968
-0.0939819
-0.0963122
-0.0936878
-0.0909502
-0.0833258
-0.0709049
-0.0784841
-0.0762217
-0.0641855
-0.0723756
-0.0807692
-0.069276
-0.0479864
-0.0669683
-0.0812217
-0.0706335
-0.0601131
-0.0647059
-0.0744344
-0.0542986
-0.0392986
-0.0543665
-0.0594796
-0.0696832
-0.0450226
-0.0353394
-0.0507013
-0.0611312
-0.0416289
-0.0371719
-0.0477375
-0.0633032
-0.0490498
-0.0447964
-0.0454751
-0.0611991
-0.0469909
-0.032828
-0.0587104
-0.0697285
-0.0508371
-0.0470588
-0.013371
-0.00470588
0.033914
0.0673982
0.0807692
0.0889367
0.0970362
0.0950453
0.0978959
0.095543
0.0881448
0.0757692
0.0483032
0.0256787
0.00803168
-0.0146832
-0.0373756
-0.0651584
-0.0878959
-0.0955204
-0.103077
-0.125633
-0.148077
-0.160294
-0.16724
-0.164005
-0.180679
-0.192172
-0.173507
-0.169638
-0.180701
-0.176674
-0.157534
-0.158281
-0.173959
-0.184593
-0.220091
-0.32052
-0.415928
-0.446199
-0.366561
-0.0769684
0.38267
0.957376
1.56706
1.9667
1.80136
1.11604
0.435679
0.265362
-0.129932
-0.240317
-0.225701
-0.146041
-0.116448
-0.1169
-0.12224
-0.112579
-0.113077
-0.138529
-0.139005
-0.129412
-0.139842
-0.150272
-0.140701
-0.121154
-0.121584
-0.131946
-0.14733
-0.137738
-0.1281
-0.143416
-0.148756
-0.124095
-0.119389
-0.119728
-0.130091
-0.125385
-0.100566
-0.105792
-0.111041
-0.111244
-0.101448
-0.0916516
-0.1019
-0.112195
-0.0974434
-0.0826471
-0.0827602
-0.0828281
-0.0680317
-0.0531674
-0.0533258
-0.0733937
-0.0584615
-0.0385747
-0.0336652
-0.0337104
-0.0137557
-0.00884616
0.0110407
0.0159955
0.0259276
0.0408824
0.0508145
0.0608145
0.0708597
0.100769
0.125701
0.150747
0.165769
0.185995
0.216312
0.241719
0.25224
0.292896
0.328665
0.339457
0.355136
0.39086
0.406674
0.422466
0.428167
0.453733
0.464276
0.484774
0.475068
0.485272
0.480453
0.45552
0.430498
0.41552
0.39052
0.355385
0.300113
0.239819
0.219638
0.194434
0.154118
0.118846
0.0935747
0.0682805
0.0430317
0.0128733
-0.00723982
-0.0124434
-0.0427149
-0.06819
-0.0741176
-0.0803846
-0.0718326
-0.0829638
-0.0827602
-0.0703846
-0.0753846
-0.0726697
-0.0632127
-0.0495475
-0.043914
-0.0563348
-0.0545701
-0.0445928
-0.0400226
-0.0404299
-0.0405204
-0.0304751
-0.0253846
-0.0352941
-0.0302941
-0.030362
-0.0155656
-0.025905
-0.0413122
-0.0368778
-0.0325792
-0.0282579
-0.0388914
-0.0395475
-0.0352489
-0.0359729
-0.0515385
-0.061991
-0.0574435
-0.0528959
-0.0531674
-0.0532805
-0.0482353
-0.0531222
-0.0879864
-0.0877602
-0.0723982
-0.061991
-0.0816063
-0.0961765
-0.0756561
-0.0551584
-0.0697285
-0.089276
-0.0887783
-0.08319
-0.0676018
-0.0870362
-0.0914253
-0.0857466
-0.0750452
-0.079095
-0.0925565
-0.0806335
-0.0736199
-0.0720588
-0.0818552
-0.0837783
-0.0783031
-0.0907466
-0.10905
-0.117421
-0.117149
-0.113597
-0.128371
-0.132059
-0.119887
-0.127647
-0.135701
-0.113869
-0.102127
-0.115385
-0.128371
-0.121199
-0.0939593
-0.096629
-0.114163
-0.111719
-0.0992082
-0.0915611
-0.103801
-0.106131
-0.0783484
-0.0755204
-0.0926923
-0.0849321
-0.0672398
-0.0795928
-0.0920588
-0.0797511
-0.0576018
-0.0556787
-0.0740045
-0.0824887
-0.0661086
-0.0548416
-0.0487104
-0.0527602
-0.0570136
-0.0564253
-0.065905
-0.0604751
-0.0551131
-0.0448643
-0.0446606
-0.0645701
-0.0545701
-0.0445023
-0.0495249
-0.0696833
-0.0748416
-0.0650452
-0.0502036
-0.040362
-0.0555656
-0.0608145
-0.0511991
-0.0516968
-0.0722172
-0.0627602
-0.0533937
-0.0541403
-0.0649774
-0.0708371
-0.0417421
-0.0277376
-0.023914
0.00484162
0.0284615
0.0518778
0.070181
0.073371
0.0814932
0.0845023
0.0823077
0.0700679
0.0428281
0.0254299
0.0078733
0.000226252
-0.0173982
-0.0499774
-0.0875792
-0.115181
-0.117783
-0.115362
-0.152783
-0.170023
-0.167036
-0.168914
-0.180656
-0.187149
-0.183416
-0.174434
-0.170317
-0.191086
-0.191787
-0.172308
-0.167805
-0.183258
-0.208688
-0.248891
-0.359072
-0.439321
-0.459502
-0.339593
-0.0345701
0.455339
1.03516
1.69
1.89486
1.91975
1.12459
0.409389
0.0692308
-0.145928
-0.311109
-0.31129
-0.226538
-0.171923
-0.127217
-0.117511
-0.137738
-0.138009
-0.143348
-0.148597
-0.143824
-0.12414
-0.124434
-0.149729
-0.149977
-0.120226
-0.125543
-0.145747
-0.13595
-0.126154
-0.136312
-0.151516
-0.141833
-0.117127
-0.117285
-0.122398
-0.127557
-0.112805
-0.108009
-0.123145
-0.128235
-0.113281
-0.0933032
-0.0833937
-0.0984842
-0.0985973
-0.0886652
-0.0936878
-0.108665
-0.0886652
-0.073733
-0.078733
-0.0687104
-0.038733
-0.0288461
-0.0289593
-0.0440271
-0.0440498
-0.0290271
-0.0190498
-0.0040724
0.0209955
0.0360407
0.0459502
0.065905
0.0909729
0.120995
0.130973
0.130905
0.155973
0.196109
0.226267
0.246538
0.276923
0.307443
0.338054
0.358688
0.374367
0.420068
0.435747
0.43638
0.4569
0.482353
0.507738
0.5081
0.498416
0.503575
0.508597
0.503507
0.463416
0.428326
0.403077
0.36276
0.312489
0.267195
0.231833
0.201448
0.131109
0.0808371
0.0555656
0.045181
0.0197964
-0.00549773
-0.0207692
-0.021086
-0.0614932
-0.0721041
-0.0732127
-0.0796833
-0.096267
-0.12233
-0.107014
-0.084457
-0.0742534
-0.0761312
-0.0821041
-0.0629185
-0.0423077
-0.045
-0.0592534
-0.0594344
-0.0503394
-0.0464027
-0.0272624
-0.0279185
-0.0184163
-0.0489366
-0.0546832
-0.0354977
-0.0313348
-0.0421493
-0.0430995
-0.0490271
-0.0398642
-0.0456561
-0.0613801
-0.0519457
-0.0524434
-0.0529185
-0.0732579
-0.0784615
-0.0535746
-0.0437104
-0.0638009
-0.0837783
-0.0735973
-0.0633936
-0.0632353
-0.083009
-0.0827828
-0.0825339
-0.0872851
-0.0971041
-0.0868552
-0.086448
-0.0911312
-0.095905
-0.100611
-0.100113
-0.0942986
-0.0979638
-0.101425
-0.0949774
-0.0894796
-0.0907014
-0.0993665
-0.105769
-0.109548
-0.118552
-0.132149
-0.140181
-0.15086
-0.145452
-0.134434
-0.13319
-0.147036
-0.136018
-0.135045
-0.129027
-0.127896
-0.126606
-0.125249
-0.118733
-0.117059
-0.120249
-0.118371
-0.116403
-0.114321
-0.112127
-0.104729
-0.10233
-0.0999095
-0.0973303
-0.0946606
-0.0919004
-0.0942307
-0.0865837
-0.0888914
-0.0862217
-0.0835973
-0.0761312
-0.0738236
-0.0716743
-0.0746833
-0.067896
-0.0613576
-0.060068
-0.0639367
-0.0679639
-0.062172
-0.0566291
-0.0562218
-0.0559503
-0.0557693
-0.0606788
-0.0656562
-0.0607919
-0.0609503
-0.0611992
-0.0565159
-0.0519231
-0.0524435
-0.0579639
-0.0635295
-0.0540724
-0.0496607
-0.0604073
-0.066267
-0.0521267
-0.0480996
-0.0592081
-0.0653846
-0.031629
0.00708145
0.0157466
0.024276
0.0377149
0.0659728
0.0791855
0.0772624
0.0652036
0.0980091
0.110769
0.0884163
0.0510407
0.0335747
0.0260407
0.00348417
-0.0241403
-0.0467647
-0.0694344
-0.102104
-0.114548
-0.116833
-0.119072
-0.156244
-0.168303
-0.165091
-0.166606
-0.163032
-0.184321
-0.19052
-0.161516
-0.15733
-0.183054
-0.178688
-0.159276
-0.164796
-0.215294
-0.300792
-0.396154
-0.426425
-0.411652
-0.191878
0.217919
0.767715
1.37242
1.88206
1.93176
1.85654
0.63629
0.130973
-0.0844118
-0.204706
-0.244955
-0.205226
-0.150588
-0.11086
-0.111131
-0.136493
-0.1469
-0.12224
-0.127602
-0.142964
-0.143303
-0.128597
-0.118846
-0.124163
-0.134548
-0.134864
-0.120068
-0.125271
-0.140498
-0.135724
-0.130905
-0.111086
-0.116335
-0.121538
-0.111652
-0.106765
-0.111946
-0.112104
-0.102172
-0.107172
-0.112285
-0.102489
-0.0826471
-0.0777149
-0.11276
-0.122828
-0.0929412
-0.0729638
-0.0679638
-0.0729864
-0.0680317
-0.0530996
-0.0581674
-0.0631901
-0.0431901
-0.0332127
-0.0281901
-0.0281674
-0.0131674
0.0168552
0.0168552
0.0169005
0.0369683
0.0720588
0.0871719
0.107285
0.122376
0.137443
0.162557
0.177805
0.208213
0.238688
0.269253
0.279887
0.285588
0.336357
0.372217
0.393054
0.403959
0.424864
0.440792
0.456629
0.457262
0.472828
0.488416
0.488914
0.479163
0.474299
0.449367
0.424502
0.394548
0.359525
0.344412
0.294321
0.234208
0.19405
0.164005
0.143914
0.0937557
0.0436878
0.033733
0.0136652
-0.00151583
-0.021629
-0.0316968
-0.0319683
-0.0576018
-0.083733
-0.100023
-0.0961765
-0.0964027
-0.0947738
-0.0756561
-0.0538009
-0.054638
-0.0602489
-0.051267
-0.0378959
-0.0319457
-0.0470815
-0.0477828
-0.0436426
-0.0393213
-0.049819
-0.0502036
-0.0255204
-0.0159729
-0.0315611
-0.0270362
-0.0226018
-0.0282579
-0.0438688
-0.0543665
-0.0396606
-0.0248416
-0.0400226
-0.060181
-0.0602262
-0.0552036
-0.0551357
-0.0649547
-0.0647059
-0.0542534
-0.0587104
-0.0832579
-0.0828054
-0.0672851
-0.0667421
-0.0862443
-0.100724
-0.0802036
-0.0546606
-0.0590724
-0.0784389
-0.0877602
-0.0871493
-0.0713348
-0.0849095
-0.0881222
-0.0811991
-0.0749321
-0.0750679
-0.0824887
-0.0927149
-0.105837
-0.110543
-0.123733
-0.123077
-0.119457
-0.129434
-0.128959
-0.127308
-0.125701
-0.139276
-0.148077
-0.131923
-0.120588
-0.124253
-0.137896
-0.131357
-0.124729
-0.128009
-0.136176
-0.13414
-0.117036
-0.114932
-0.132602
-0.135136
-0.112602
-0.0949774
-0.117308
-0.129661
-0.0969683
-0.0841629
-0.10629
-0.108371
-0.0704751
-0.0625792
-0.0747737
-0.0971946
-0.0747059
-0.0572398
-0.0699095
-0.0828054
-0.0709276
-0.0592308
-0.0777149
-0.0864027
-0.0752715
-0.0643439
-0.0835973
-0.0829864
-0.0524887
-0.0470814
-0.0617873
-0.0665158
-0.0713348
-0.0562896
-0.0514027
-0.0666742
-0.0519457
-0.0522851
-0.0526697
-0.053009
-0.0533937
-0.053914
-0.0395928
-0.020362
0.00882355
0.0329638
0.0369005
0.0307014
0.0293892
0.0429638
0.0563801
0.0396833
0.0429638
0.0611539
0.0591177
0.0720362
0.0749095
0.0626697
0.0502941
0.0128281
-0.019638
-0.032104
-0.0395475
-0.0520135
-0.0745701
-0.102081
-0.124457
-0.136652
-0.163756
-0.190701
-0.177398
-0.168891
-0.180181
-0.19129
-0.182172
-0.177986
-0.18371
-0.194231
-0.19457
-0.184774
-0.189955
-0.210136
-0.265339
-0.370385
-0.430385
-0.455407
-0.31543
-0.00036199
0.519683
1.13468
1.76966
2.13962
1.81464
0.969729
0.314774
0.0197964
-0.0502715
-0.310362
-0.30043
-0.240475
-0.155588
-0.130769
-0.150973
-0.136176
-0.12638
-0.141538
-0.146742
-0.136946
-0.132036
-0.147195
-0.152466
-0.147715
-0.147873
-0.1431
-0.138303
-0.148394
-0.138439
-0.118507
-0.113643
-0.138688
-0.138733
-0.133869
-0.128982
-0.138914
-0.123846
-0.0987557
-0.103733
-0.128665
-0.13362
-0.0986652
-0.0987104
-0.118643
-0.118552
-0.103529
-0.0834842
-0.0884842
-0.0985068
-0.0784389
-0.0733032
-0.0681674
-0.0630543
-0.0679185
-0.0477602
-0.0426923
-0.0325339
-0.0123529
-0.00726244
0.00785069
0.0179864
0.0230995
0.0482579
0.0685068
0.0885973
0.108733
0.129072
0.144615
0.175158
0.205724
0.236312
0.266923
0.292511
0.318145
0.348756
0.379434
0.415272
0.431131
0.446946
0.46776
0.483575
0.494321
0.509887
0.52543
0.50586
0.491199
0.511584
0.506923
0.477036
0.426991
0.406946
0.3819
0.321765
0.251674
0.206493
0.181312
0.131222
0.0961086
0.0609729
0.0357692
0.0205882
-0.0146154
-0.0399547
-0.0503394
-0.0457919
-0.0666063
-0.0930995
-0.0949095
-0.0918552
-0.108167
-0.1031
-0.0956787
-0.0903846
-0.0822398
-0.0825113
-0.0942534
-0.074819
-0.0634389
-0.0533936
-0.0484841
-0.0545475
-0.0604525
-0.061086
-0.0563349
-0.0364027
-0.0263801
-0.031267
-0.0561086
-0.0409502
-0.0356787
-0.0653846
-0.0601131
-0.0348869
-0.0245928
-0.044276
-0.0490498
-0.0587557
-0.0633484
-0.0581222
-0.0779186
-0.0776018
-0.0670588
-0.0563349
-0.060362
-0.069095
-0.0726697
-0.0667873
-0.0873077
-0.0982353
-0.0934615
-0.08181
-0.0874661
-0.112217
-0.133213
-0.130792
-0.136674
-0.151516
-0.13043
-0.114299
-0.153416
-0.167828
-0.137443
-0.127104
-0.14681
-0.156561
-0.141131
-0.145634
-0.145113
-0.139525
-0.128891
-0.133281
-0.127579
-0.1369
-0.156154
-0.120272
-0.114118
-0.138009
-0.151923
-0.125633
-0.124163
-0.132715
-0.136222
-0.114593
-0.10767
-0.115701
-0.12371
-0.136584
-0.139208
-0.11181
-0.10448
-0.112014
-0.104412
-0.0967647
-0.119095
-0.101471
-0.0839593
-0.101471
-0.108937
-0.0814479
-0.0641176
-0.0719909
-0.0950905
-0.098371
-0.0918778
-0.0607918
-0.0700226
-0.0994118
-0.0840045
-0.0738235
-0.063914
-0.0792308
-0.0746606
-0.0352036
-0.0309955
-0.0370136
-0.01319
0.030362
0.0387783
0.0421041
0.0403168
0.0483258
0.0462217
0.0238914
0.0264706
0.0440724
0.0415837
0.0388009
0.0558371
0.0528507
0.00988691
-0.0381674
-0.0662669
-0.0693212
-0.0722624
-0.090181
-0.133032
-0.140747
-0.143235
-0.160679
-0.192941
-0.189932
-0.181765
-0.188303
-0.209525
-0.210611
-0.191561
-0.20224
-0.222896
-0.193552
-0.17905
-0.184412
-0.229729
-0.294932
-0.35
-0.410091
-0.440226
-0.33043
-0.00549776
0.10948
1.05434
1.71912
2.224
2.05898
1.22891
0.453665
0.0783936
-0.136833
-0.322149
-0.337444
-0.292715
-0.208145
-0.15862
-0.143959
-0.129276
-0.124661
-0.145068
-0.155498
-0.150995
-0.146425
-0.151742
-0.132036
-0.142376
-0.13267
-0.123009
-0.133348
-0.173575
-0.143778
-0.119027
-0.149344
-0.15948
-0.124638
-0.104842
-0.105068
-0.145294
-0.130543
-0.105701
-0.105814
-0.125995
-0.116199
-0.086267
-0.0963574
-0.111584
-0.11181
-0.101968
-0.0772172
-0.0724208
-0.082466
-0.0726018
-0.067828
-0.0628959
-0.0678733
-0.0379638
-0.0230995
-0.0331222
-0.01319
0.0117421
0.0216516
0.016448
0.031267
0.0561086
0.0810407
0.0910181
0.0809955
0.111131
0.151267
0.19138
0.231606
0.236991
0.257511
0.288122
0.318665
0.349231
0.404774
0.425249
0.420747
0.431154
0.476538
0.531923
0.54724
0.552421
0.577398
0.582149
0.56681
0.541358
0.54086
0.545339
0.524525
0.468733
0.432964
0.407172
0.351244
0.285249
0.224389
0.17862
0.157805
0.107127
0.0416742
0.0262217
0.0207692
-0.00945701
-0.0596606
-0.069819
-0.0850679
-0.105588
-0.106335
-0.107353
-0.0984163
-0.12405
-0.153281
-0.136946
-0.101267
-0.0975792
-0.101674
-0.0965158
-0.065
-0.0521493
-0.0658371
-0.06
-0.044638
-0.0342534
-0.0391176
-0.0449774
-0.0477149
-0.0481448
-0.0616516
-0.0774435
-0.0675792
-0.064095
-0.0819457
-0.102896
-0.0980317
-0.0922851
-0.0964932
-0.095905
-0.115566
-0.105452
-0.105611
-0.120837
-0.120995
-0.135905
-0.130905
-0.130814
-0.130611
-0.110453
-0.10043
-0.130317
-0.150272
-0.150294
-0.150249
-0.155113
-0.144955
-0.124864
-0.119864
-0.129887
-0.134842
-0.129683
-0.149502
-0.149321
-0.139072
-0.148846
-0.153575
-0.138371
-0.153235
-0.183077
-0.16776
-0.137398
-0.142036
-0.146674
-0.136244
-0.130747
-0.140272
-0.164774
-0.159208
-0.153643
-0.148009
-0.14733
-0.146584
-0.13552
-0.154525
-0.168484
-0.15233
-0.146131
-0.139864
-0.143462
-0.141968
-0.100588
-0.094276
-0.0926923
-0.055905
-0.0244344
-0.0181222
-0.0117873
-0.0155656
0.0104073
0.0211765
0.0117874
0.0371041
0.0272399
0.0220589
0.0116064
0.0109729
0.0298869
0.00841632
-0.0183937
-0.030362
-0.0623982
-0.0947059
-0.107262
-0.129977
-0.152692
-0.145271
-0.162896
-0.190271
-0.197602
-0.204683
-0.206448
-0.228077
-0.214615
-0.200882
-0.212081
-0.228077
-0.228733
-0.214253
-0.214774
-0.240339
-0.205679
-0.240837
-0.350995
-0.431131
-0.45129
-0.351471
-0.0465611
0.418507
1.0286
1.72369
2.23362
2.06839
1.25824
0.453167
0.0381901
-0.146855
-0.3219
-0.342059
-0.287308
-0.222421
-0.182647
-0.162941
-0.118145
-0.108394
-0.193688
-0.184095
-0.169412
-0.174706
-0.16509
-0.175452
-0.18086
-0.141312
-0.126674
-0.162036
-0.172511
-0.148009
-0.143371
-0.138575
-0.133778
-0.13905
-0.139321
-0.139547
-0.14991
-0.155271
-0.145611
-0.150973
-0.141222
-0.0964253
-0.086629
-0.132081
-0.122489
-0.0977828
-0.0880317
-0.108167
-0.108258
-0.0785068
-0.0588462
-0.0641855
-0.0744796
-0.0597285
-0.0299548
-0.00511313
-0.0352941
-0.0155204
-0.00585973
-0.00115385
0.0186199
0.0333484
0.0581448
0.0579864
0.0776697
0.102624
0.0876471
0.0975339
0.182534
0.222579
0.242557
0.272534
0.312489
0.332443
0.367353
0.43724
0.457127
0.471923
0.496697
0.511561
0.556516
0.576471
0.59129
0.58095
0.575679
0.585226
0.574706
0.594367
0.589072
0.52871
0.488348
0.423145
0.397941
0.32267
0.252421
0.222217
0.212014
0.126968
0.0819909
0.0517873
0.00651583
-0.0285747
-0.0436652
-0.0388462
-0.0640724
-0.0940724
-0.109389
-0.110204
-0.0910407
-0.0767647
-0.101606
-0.139932
-0.141403
-0.131018
-0.0942308
-0.0577149
-0.0499774
-0.0638688
-0.107353
-0.120068
-0.119321
-0.091448
-0.0774661
-0.107534
-0.102127
-0.0765837
-0.096267
-0.101109
-0.0910633
-0.0813348
-0.0964253
-0.101561
-0.0816968
-0.0666968
-0.0468326
-0.0671493
-0.10724
-0.107127
-0.0821946
-0.0823303
-0.102353
-0.117421
-0.112443
-0.107443
-0.112398
-0.117421
-0.107466
-0.107647
-0.102941
-0.108077
-0.1381
-0.133167
-0.148122
-0.123032
-0.118145
-0.113258
-0.128235
-0.15819
-0.158258
-0.118371
-0.108394
-0.133303
-0.138281
-0.143235
-0.143348
-0.158326
-0.153122
-0.133009
-0.127828
-0.152715
-0.152579
-0.137308
-0.147195
-0.162059
-0.126923
-0.146787
-0.156719
-0.126765
-0.11681
-0.0966063
-0.0762444
-0.070905
-0.0704751
-0.0451131
-0.0247738
-0.0294796
-0.0041629
0.00613122
0.00644796
-0.0233032
-0.0431448
-0.0228733
-0.0126471
-0.00235294
-0.0271267
-0.0171946
-0.0322398
-0.0823303
-0.112376
-0.117376
-0.107511
-0.157805
-0.183348
-0.173756
-0.184253
-0.194887
-0.21543
-0.235928
-0.236267
-0.196765
-0.197195
-0.237557
-0.222783
-0.203077
-0.218213
-0.233371
-0.198643
-0.198824
-0.273869
-0.318801
-0.413688
-0.443665
-0.388824
-0.189027
0.195928
0.766086
1.4364
2.09167
2.30192
1.71704
0.767149
0.122195
-0.14267
-0.297511
-0.337489
-0.327443
-0.257353
-0.177262
-0.142172
-0.157081
-0.186923
-0.161946
-0.167036
-0.1869
-0.166561
-0.131244
-0.141086
-0.171086
-0.166176
-0.161176
-0.161176
-0.146176
-0.151267
-0.151199
-0.166041
-0.150905
-0.145882
-0.12586
-0.105679
-0.130407
-0.160294
-0.140271
-0.120181
-0.120113
-0.119932
-0.109819
-0.114638
-0.109434
-0.104367
-0.0943665
-0.0842081
-0.0890045
-0.0788235
-0.0937104
-0.0436652
-0.043552
-0.0584842
-0.0684616
-0.0633032
-0.0380543
-0.0378733
-0.0478054
0.00226246
0.022353
0.0225566
0.0429186
0.0830317
0.0929865
0.1031
0.133235
0.138258
0.163281
0.173258
0.228235
0.253167
0.298122
0.363145
0.388281
0.398439
0.43862
0.473688
0.493756
0.523801
0.523846
0.52914
0.589457
0.594819
0.595068
0.605136
0.590249
0.560407
0.555724
0.545928
0.491018
0.436154
0.396267
0.346403
0.326584
0.206584
0.196584
0.151878
0.0921494
0.0271267
0.027172
-0.0026244
-0.0225339
-0.0274887
-0.062285
-0.0918552
-0.0962896
-0.0906787
-0.0955203
-0.0954977
-0.0918552
-0.124525
-0.143281
-0.152557
-0.141131
-0.146086
-0.146312
-0.145294
-0.121516
-0.109819
-0.0988009
-0.0984615
-0.0985294
-0.0839367
-0.104253
-0.109321
-0.0991855
-0.103982
-0.0788009
-0.068552
-0.0983937
-0.128348
-0.103235
-0.0879864
-0.0927828
-0.0727375
-0.0677149
-0.0676018
-0.0875565
-0.0824208
-0.112217
-0.127059
-0.127059
-0.107014
-0.0969457
-0.131765
-0.146584
-0.116448
-0.126335
-0.136222
-0.146109
-0.146018
-0.125882
-0.135656
-0.15543
-0.155249
-0.140136
-0.135
-0.134887
-0.154819
-0.144638
-0.134525
-0.149321
-0.154185
-0.139072
-0.148914
-0.163891
-0.173824
-0.148756
-0.133801
-0.14871
-0.188665
-0.188665
-0.153575
-0.128371
-0.133326
-0.128416
-0.083371
-0.063371
-0.0484389
-0.048552
-0.0136199
0.00117649
-0.0188914
-0.0187104
-0.0136199
-0.0185294
-0.0234163
-0.0433258
-0.0182579
-0.00812218
-0.0530543
-0.0830996
-0.0828959
-0.0727149
-0.0824661
-0.122104
-0.136742
-0.161335
-0.185882
-0.185317
-0.184661
-0.189005
-0.203303
-0.232579
-0.211765
-0.21129
-0.235611
-0.23
-0.204638
-0.204344
-0.218891
-0.208529
-0.213167
-0.212738
-0.262398
-0.367262
-0.422149
-0.416855
-0.416448
-0.0561312
0.434118
1.05925
1.74446
2.25955
2.11457
1.27964
0.419796
-0.0350905
-0.219977
-0.334819
-0.339502
-0.28914
-0.203914
-0.153665
-0.128439
-0.138235
-0.168054
-0.193009
-0.182828
-0.167489
-0.16224
-0.157127
-0.1519
-0.151516
-0.146222
-0.135882
-0.150498
-0.135023
-0.139615
-0.159299
-0.14914
-0.128914
-0.12362
-0.123348
-0.128009
-0.107805
-0.122624
-0.147353
-0.127149
-0.106923
-0.101719
-0.111538
-0.121267
-0.126018
-0.110837
-0.0907014
-0.0854977
-0.0702262
-0.0648642
-0.0795927
-0.0793439
-0.0489819
-0.0336425
-0.0434842
-0.0633258
-0.0281222
-0.0129186
-0.0128054
0.00237556
0.0225566
0.0525792
0.0623077
0.0619457
0.0767195
0.121584
0.161335
0.160973
0.175792
0.215724
0.235769
0.28086
0.336176
0.351584
0.361878
0.407104
0.417353
0.452715
0.493235
0.51871
0.534253
0.549932
0.580633
0.58629
0.596923
0.58267
0.568484
0.55414
0.514729
0.500204
0.465588
0.391018
0.336425
0.286787
0.232081
0.19224
0.147398
0.0926018
0.0627149
0.0579638
0.00850679
-0.025543
-0.0342534
-0.0527602
-0.0717421
-0.0871041
-0.0749547
-0.0810407
-0.125385
-0.167127
-0.158213
-0.143959
-0.148688
-0.173824
-0.14552
-0.103733
-0.107443
-0.125158
-0.117127
-0.0963574
-0.0964027
-0.121991
-0.132602
-0.102941
-0.0928507
-0.107557
-0.107149
-0.0918326
-0.0666063
-0.0715158
-0.0964027
-0.106222
-0.106018
-0.105792
-0.125588
-0.110452
-0.100158
-0.104796
-0.124593
-0.129344
-0.104095
-0.098914
-0.128778
-0.143575
-0.118348
-0.123145
-0.127964
-0.137738
-0.127579
-0.122443
-0.137308
-0.142195
-0.136991
-0.136765
-0.141697
-0.146765
-0.13681
-0.136674
-0.146538
-0.166425
-0.166312
-0.151244
-0.166199
-0.176131
-0.141063
-0.126131
-0.146357
-0.161538
-0.151719
-0.141946
-0.127149
-0.107421
-0.082647
-0.0628733
-0.0582127
-0.0537104
-0.0341629
-0.00450224
6.78934e-05
-0.00545247
-0.0159728
-0.0265158
-0.0419457
-0.0471946
-0.0425339
-0.0279185
-0.0281222
-0.0583032
-0.0983484
-0.108235
-0.0980317
-0.11767
-0.167217
-0.186516
-0.180588
-0.194412
-0.218167
-0.221765
-0.220136
-0.218529
-0.221833
-0.230113
-0.223552
-0.217059
-0.215701
-0.214525
-0.193416
-0.202376
-0.206493
-0.230724
-0.269932
-0.359253
-0.448688
-0.48319
-0.382828
-0.0775792
0.422692
1.03305
1.69837
2.2336
2.08867
1.26873
0.428869
0.0390272
-0.0359276
-0.290792
-0.325498
-0.275294
-0.195204
-0.15009
-0.154909
-0.149751
-0.149661
-0.159593
-0.169434
-0.164276
-0.164072
-0.153846
-0.16362
-0.158326
-0.152986
-0.152715
-0.152489
-0.152217
-0.141946
-0.126742
-0.156448
-0.161131
-0.14086
-0.135633
-0.140385
-0.145
-0.124593
-0.119344
-0.119185
-0.113914
-0.113665
-0.103394
-0.103145
-0.122896
-0.102624
-0.0773303
-0.0920362
-0.106787
-0.0815837
-0.0563575
-0.046086
-0.0658824
-0.0606787
-0.0404073
-0.0352036
-0.0400905
-0.0349321
-0.00977377
0.00538462
0.0257014
0.0409955
0.0661538
0.0813575
0.0916063
0.101833
0.137172
0.157602
0.168167
0.193824
0.244525
0.280271
0.295995
0.316878
0.352805
0.393688
0.419615
0.44043
0.456109
0.491833
0.512647
0.518529
0.524299
0.529955
0.535498
0.540973
0.521403
0.516765
0.491946
0.447059
0.402127
0.372127
0.322036
0.256855
0.221516
0.185995
0.14543
0.104819
0.0641629
0.0434841
0.0277375
0.00199094
-0.0286878
-0.0494796
-0.055181
-0.0659276
-0.0919683
-0.103439
-0.100317
-0.0922398
-0.0886199
-0.108643
-0.11138
-0.0961765
-0.102828
-0.0870136
-0.0567647
-0.0451358
-0.0522172
-0.0560634
-0.0552036
-0.0604299
-0.0558598
-0.056086
-0.0559503
-0.0505656
-0.045181
-0.054819
-0.0595249
-0.0492308
-0.0389367
-0.0636199
-0.0682353
-0.0524435
-0.0411539
-0.0546607
-0.0633711
-0.0630769
-0.0745702
-0.0787331
-0.0907014
-0.104683
-0.108846
-0.110339
-0.123484
-0.13448
-0.139593
-0.139253
-0.133869
-0.128529
-0.128416
-0.128326
-0.138213
-0.143032
-0.132805
-0.132602
-0.15233
-0.156923
-0.141538
-0.131335
-0.141041
-0.155588
-0.130091
-0.129593
-0.154186
-0.158778
-0.138326
-0.132805
-0.147217
-0.156629
-0.156109
-0.13543
-0.124638
-0.148756
-0.147805
-0.13181
-0.140837
-0.139751
-0.143575
-0.142353
-0.145996
-0.149457
-0.122828
-0.126131
-0.129253
-0.122262
-0.140226
-0.123145
-0.10595
-0.118665
-0.13129
-0.128914
-0.101538
-0.104163
-0.116878
-0.109593
-0.0872625
-0.0900453
-0.0979865
-0.101109
-0.0845023
-0.0831222
-0.0869684
-0.0711539
-0.0356788
0.00459273
0.00954749
0.00918549
0.0235746
0.0327149
0.0466063
0.0452488
0.0487104
0.0619457
0.0349774
0.0178733
0.0406335
0.0432353
0.0407692
0.0132127
-0.00936654
-0.00690049
-0.0145023
-0.0571494
-0.0897512
-0.10224
-0.124615
-0.146765
-0.168756
-0.170656
-0.182376
-0.198914
-0.190407
-0.186719
-0.187851
-0.198869
-0.204819
-0.195634
-0.181335
-0.191968
-0.202489
-0.202873
-0.218326
-0.298756
-0.419095
-0.459299
-0.409525
-0.189774
0.205
0.794729
1.42448
1.88421
1.89385
1.29848
0.578213
0.107919
-0.0924661
-0.197896
-0.188281
-0.173575
-0.123914
-0.114299
-0.119661
-0.125023
-0.13543
-0.15086
-0.146244
-0.151629
-0.162104
-0.137602
-0.133009
-0.143348
-0.143733
-0.164118
-0.139525
-0.119955
-0.125385
-0.145792
-0.156176
-0.131516
-0.101855
-0.11724
-0.127624
-0.122896
-0.12319
-0.123462
-0.10871
-0.0990045
-0.0992308
-0.0994796
-0.104729
-0.0950226
-0.0803394
-0.0804751
-0.100701
-0.0909276
-0.0610181
-0.0462444
-0.0515158
-0.0567194
-0.0419004
-0.0221719
-0.0174208
-0.0125792
0.0121946
0.0169457
0.0117421
0.0165384
0.0463122
0.0611538
0.0759728
0.0808371
0.100701
0.125543
0.135452
0.145543
0.180814
0.211154
0.226471
0.241787
0.277172
0.317647
0.333122
0.35362
0.379208
0.404661
0.42509
0.435566
0.440973
0.466471
0.481923
0.477217
0.472511
0.477828
0.477941
0.437873
0.417805
0.387692
0.357511
0.327217
0.281878
0.241493
0.226063
0.190701
0.150339
0.124955
0.11457
0.0891629
0.0535747
0.0329638
0.0171946
-0.00359728
-0.0144796
-0.0255204
-0.0319457
-0.0538914
-0.066086
-0.0730995
-0.0790498
-0.0781674
-0.0796606
-0.073371
-0.0500226
-0.0365611
-0.0457014
-0.0480091
-0.0374209
-0.0326245
-0.0431675
-0.0585747
-0.0438236
-0.0337557
-0.0385521
-0.0483485
-0.0431675
-0.0279186
-0.0377376
-0.0576018
-0.0424661
-0.0223303
-0.0320815
-0.0568552
-0.0616742
-0.0364706
-0.0312896
-0.051086
-0.0558145
-0.0402489
-0.0391855
-0.062828
-0.0712669
-0.0601131
-0.0402941
-0.0576923
-0.0828507
-0.0956787
-0.0947737
-0.102443
-0.121787
-0.12509
-0.125226
-0.119615
-0.118756
-0.133009
-0.117443
-0.122195
-0.147036
-0.136674
-0.111199
-0.110656
-0.130136
-0.124615
-0.128937
-0.123213
-0.112511
-0.121742
-0.125928
-0.10509
-0.104253
-0.128326
-0.12733
-0.121222
-0.120068
-0.118869
-0.117602
-0.121267
-0.119864
-0.128326
-0.121674
-0.104955
-0.108145
-0.111199
-0.109118
-0.106923
-0.109638
-0.102376
-0.110023
-0.0925113
-0.0698868
-0.087285
-0.0997058
-0.0820814
-0.0744344
-0.0818326
-0.074276
-0.0617194
-0.0692986
-0.0770362
-0.0799774
-0.0730769
-0.0613348
-0.0599095
-0.0637783
-0.0677602
-0.0618778
-0.0561539
-0.0656788
-0.0653846
-0.0152263
0.00470585
0.0294344
0.0239819
0.043371
0.062647
0.0667195
0.0606335
0.0744118
0.0830996
0.0666516
0.0550452
0.0633711
0.076629
0.0797964
0.0629638
0.0411313
0.0191856
0.012172
-0.0147737
-0.0466968
-0.0686199
-0.0904977
-0.11224
-0.133869
-0.140339
-0.141629
-0.167783
-0.16871
-0.154502
-0.160249
-0.170814
-0.171154
-0.16138
-0.161584
-0.166742
-0.181787
-0.161674
-0.156516
-0.22638
-0.356222
-0.431086
-0.450928
-0.330724
-0.0504525
0.429819
1.04495
1.63509
1.91523
1.61541
0.890611
0.660747
-0.0391402
-0.20905
-0.253959
-0.213824
-0.173733
-0.123643
-0.0935294
-0.108484
-0.118462
-0.138348
-0.13819
-0.123077
-0.137919
-0.142851
-0.132805
-0.122647
-0.127489
-0.137353
-0.132127
-0.1219
-0.121719
-0.131561
-0.136425
-0.126222
-0.115973
-0.120724
-0.125543
-0.120339
-0.115136
-0.114955
-0.119729
-0.114434
-0.104095
-0.113846
-0.113665
-0.0834842
-0.0781901
-0.0929186
-0.107692
-0.0973982
-0.0671041
-0.0618552
-0.071629
-0.0663801
-0.0511086
-0.0508145
-0.0604751
-0.0452263
-0.0300453
-0.0248417
-0.0195702
0.00570133
0.0309502
0.0412217
0.0364706
0.0316968
0.0619683
0.0922398
0.0974887
0.112919
0.138439
0.164118
0.179751
0.19543
0.231199
0.262081
0.272919
0.283733
0.309593
0.340452
0.35629
0.367127
0.388054
0.403982
0.409842
0.420656
0.431222
0.426855
0.427466
0.417941
0.393235
0.378394
0.363507
0.323529
0.273507
0.248462
0.213371
0.173303
0.143235
0.118122
0.0880543
0.0529412
0.0227828
0.00757918
0.00728504
-0.0231674
-0.0537104
-0.0543213
-0.0452036
-0.0416516
-0.0735747
-0.0956787
-0.102285
-0.0825339
-0.065543
-0.0808597
-0.0785068
-0.0698869
-0.0675113
-0.0633484
-0.0551811
-0.0501358
-0.0457693
-0.0565159
-0.0620588
-0.0472172
-0.0570815
-0.06681
-0.0515158
-0.0461312
-0.0557918
-0.0655656
-0.0702489
-0.0549095
-0.0446154
-0.0593212
-0.0689593
-0.0686651
-0.0683484
-0.0679864
-0.082647
-0.0773077
-0.0668099
-0.0808823
-0.0894796
-0.0878281
-0.076448
-0.0811539
-0.0928733
-0.0852715
-0.0870588
-0.115769
-0.138891
-0.12405
-0.111222
-0.116719
-0.136222
-0.140249
-0.114344
-0.108778
-0.128507
-0.133303
-0.112964
-0.112557
-0.12724
-0.126878
-0.126448
-0.115973
-0.11043
-0.119955
-0.129457
-0.118891
-0.11319
-0.122443
-0.121674
-0.11086
-0.115068
-0.124185
-0.11819
-0.107172
-0.106041
-0.114864
-0.108597
-0.0972398
-0.0957918
-0.114185
-0.107534
-0.0858597
-0.084095
-0.0972624
-0.100317
-0.0883258
-0.0912896
-0.0841403
-0.0820362
-0.0899321
-0.0526923
-0.0705204
-0.0884389
-0.0863575
-0.064276
-0.0523077
-0.0604751
-0.0587783
-0.0523077
-0.046086
-0.0601131
-0.0643665
-0.0488235
-0.0433936
-0.0631674
-0.0532127
-0.0335068
-0.0239819
-0.00959276
0.00968327
0.0488009
0.0677149
0.0565159
0.0502941
0.0790272
0.0975113
0.105769
0.0838914
0.0670589
0.0851358
0.0830996
0.080905
0.0536426
0.0363575
0.0240046
0.0116064
-0.0108597
-0.0332805
-0.0406787
-0.0880542
-0.105294
-0.107353
-0.129321
-0.161131
-0.172737
-0.149253
-0.155679
-0.176923
-0.172986
-0.163891
-0.169706
-0.160475
-0.176154
-0.181787
-0.167217
-0.16767
-0.213145
-0.313552
-0.408891
-0.454253
-0.399661
-0.165
0.284706
0.439434
1.40916
1.82887
1.70348
1.05805
0.387715
0.0173756
-0.172986
-0.273371
-0.273823
-0.214276
-0.139661
-0.095
-0.120362
-0.145701
-0.121041
-0.11638
-0.131674
-0.152014
-0.152353
-0.122715
-0.123032
-0.133326
-0.13862
-0.123824
-0.118982
-0.134231
-0.134457
-0.124683
-0.119887
-0.120045
-0.130249
-0.11543
-0.110566
-0.115747
-0.120928
-0.121063
-0.101177
-0.0962444
-0.106358
-0.0965159
-0.0915838
-0.0867195
-0.0868553
-0.0919684
-0.0670136
-0.0620815
-0.0822625
-0.0572399
-0.0422625
-0.0423304
-0.0523756
-0.0524661
-0.0374661
-0.0224208
-0.0124208
-0.00742082
0.022647
0.0376923
0.0426923
0.0377149
0.0577828
0.0877375
0.10776
0.117851
0.132964
0.158235
0.163552
0.179005
0.204548
0.220136
0.235701
0.261312
0.292036
0.317828
0.328507
0.36414
0.369887
0.400634
0.416425
0.417104
0.432602
0.448077
0.468575
0.464005
0.449299
0.439593
0.424729
0.374751
0.344751
0.324661
0.284434
0.254186
0.22405
0.178869
0.153597
0.128371
0.0931448
0.0728959
0.0527149
0.0424887
-0.0027602
-0.0130091
-0.00328055
-0.00868781
-0.0395475
-0.0458371
-0.0373077
-0.0435068
-0.0586878
-0.0718779
-0.0593213
-0.0423756
-0.0335068
-0.0302489
-0.0249321
-0.00776017
-0.00735293
-0.0229186
-0.0140724
0.00975113
-0.00117646
-0.0317421
-0.0321493
-0.0176923
-0.0183711
-0.0339367
-0.0444797
-0.0350906
-0.0258145
-0.0165611
-0.0371267
-0.0526019
-0.0430544
-0.058439
-0.0786653
-0.0587558
-0.0537784
-0.0587331
-0.0735974
-0.0784164
-0.0581449
-0.0628282
-0.0825114
-0.0671946
-0.0567874
-0.0663801
-0.0909955
-0.0955656
-0.0651584
-0.0547738
-0.0893439
-0.0789592
-0.0685068
-0.0778959
-0.0870136
-0.0805203
-0.0637556
-0.0720361
-0.0810859
-0.0916968
-0.0997058
-0.0754524
-0.0938913
-0.123145
-0.122172
-0.120452
-0.131199
-0.140701
-0.134253
-0.122398
-0.125792
-0.119525
-0.123371
-0.117217
-0.110995
-0.129661
-0.118303
-0.106923
-0.10543
-0.123869
-0.122262
-0.100588
-0.103756
-0.10681
-0.0997737
-0.10267
-0.105339
-0.103054
-0.110769
-0.108439
-0.0809728
-0.0834389
-0.0958823
-0.0982579
-0.0855882
-0.088009
-0.0954751
-0.0831448
-0.076086
-0.0740498
-0.0721493
-0.0754525
-0.0738914
-0.0674661
-0.066267
-0.0702489
-0.0593213
-0.0584842
-0.0628733
-0.0674434
-0.0670362
-0.0517873
-0.0466516
-0.0615158
-0.0614027
-0.0615384
-0.066742
-0.071923
-0.0621945
-0.0525565
-0.063009
-0.0634841
-0.0689592
-0.0594343
-0.0550226
-0.0307691
-0.011561
0.0126472
0.0417422
0.0457467
0.0496381
0.0434164
0.0519685
0.05543
0.0588237
0.0570816
0.0552264
0.0532354
0.0561314
0.0590499
0.0469911
0.0247513
0.00735308
-0.0150452
-0.0375564
-0.0650678
-0.097466
-0.114751
-0.126923
-0.134027
-0.156086
-0.177918
-0.16457
-0.161131
-0.187489
-0.19362
-0.189661
-0.180701
-0.171584
-0.177194
-0.17767
-0.16319
-0.17362
-0.209027
-0.274457
-0.384751
-0.44
-0.450226
-0.255475
0.104276
0.634027
1.22871
1.82351
2.0183
1.98305
0.72276
0.167466
-0.0778054
-0.273099
-0.358484
-0.308823
-0.21414
-0.159457
-0.139819
-0.145158
-0.155498
-0.135882
-0.136131
-0.146403
-0.136697
-0.132081
-0.132421
-0.14267
-0.137919
-0.133122
-0.138281
-0.153462
-0.13871
-0.108982
-0.104231
-0.134502
-0.134706
-0.124842
-0.12
-0.135226
-0.13043
-0.130656
-0.100928
-0.0911086
-0.116335
-0.106584
-0.101697
-0.101787
-0.101968
-0.0971041
-0.082172
-0.0872172
-0.102376
-0.0725113
-0.0525792
-0.0577602
-0.0679412
-0.0530543
-0.0430769
-0.0431448
-0.0182579
-0.00839368
-0.00357467
0.0113122
0.0162443
0.0211538
0.0360633
0.0460181
0.0459276
0.0658823
0.100792
0.125882
0.126086
0.136312
0.166652
0.217104
0.232579
0.253032
0.273529
0.304095
0.334683
0.345271
0.365837
0.40138
0.407014
0.412557
0.433077
0.453575
0.464027
0.474366
0.45448
0.449525
0.42948
0.399366
0.369163
0.353982
0.323756
0.278416
0.238122
0.207851
0.167398
0.136991
0.111584
0.0711085
0.0407465
0.0204298
-0.0049548
-0.0152716
-0.0105657
-0.0159955
-0.05681
-0.0631222
-0.0546381
-0.0611765
-0.0718779
-0.0809955
-0.0676697
-0.0566064
-0.0579186
-0.0583711
-0.0289593
-0.0202489
-0.034095
-0.0391855
-0.0152262
-0.0167647
-0.0280996
-0.0240951
-0.0198869
-0.020543
-0.0162444
-0.0271268
-0.0479865
-0.0338236
-0.0296607
-0.0304299
-0.0411991
-0.041991
-0.0478055
-0.0635521
-0.0691856
-0.0697738
-0.0602942
-0.0557014
-0.0708824
-0.065905
-0.0559729
-0.0760181
-0.0859729
-0.0758598
-0.0707014
-0.0705204
-0.0703621
-0.0801585
-0.0648191
-0.0595928
-0.089344
-0.0990725
-0.0787784
-0.0835069
-0.0982354
-0.107919
-0.0724209
-0.0765385
-0.0950906
-0.073439
-0.0720815
-0.0716742
-0.0880769
-0.0969684
-0.0935973
-0.0971267
-0.10052
-0.126063
-0.130453
-0.115792
-0.125158
-0.133959
-0.127692
-0.126652
-0.110814
-0.125
-0.129072
-0.108032
-0.101878
-0.120724
-0.119367
-0.117851
-0.116154
-0.124457
-0.12267
-0.120701
-0.11362
-0.106516
-0.119299
-0.0920589
-0.094819
-0.107466
-0.110068
-0.102647
-0.0701811
-0.0777829
-0.08543
-0.0831676
-0.0710182
-0.0790273
-0.0871494
-0.08043
-0.0739368
-0.0725793
-0.0564028
-0.0704526
-0.0645929
-0.0388236
-0.0533485
-0.0681449
-0.0529639
-0.0528282
-0.0677603
-0.0727829
-0.0528509
-0.0530545
-0.0632807
-0.0685522
-0.0588915
-0.0492988
-0.0597286
-0.070249
-0.0558372
-0.0514933
-0.0572173
-0.0579639
-0.0487784
-0.0196834
-0.00565621
0.0183709
0.0222623
0.0410633
0.0498868
0.0385746
0.0421266
0.0705882
0.0839366
0.0770362
0.0650226
0.0580316
0.0609954
0.0638009
0.0565384
0.0442307
0.0218325
0.00436647
-0.0282127
-0.0407919
-0.0632806
-0.095724
-0.1181
-0.125294
-0.137421
-0.149457
-0.176357
-0.178122
-0.174638
-0.155905
-0.177104
-0.178122
-0.174004
-0.174842
-0.180656
-0.176335
-0.171968
-0.167579
-0.213213
-0.313688
-0.409163
-0.434615
-0.374955
-0.175317
0.239321
0.798959
1.40357
1.84824
1.82792
1.20262
0.962263
0.0719231
-0.138462
-0.248869
-0.254231
-0.204638
-0.140136
-0.100566
-0.101018
-0.126448
-0.141833
-0.11224
-0.107715
-0.128145
-0.148597
-0.12905
-0.119457
-0.129819
-0.145249
-0.130724
-0.121109
-0.121493
-0.116787
-0.122127
-0.112489
-0.107828
-0.108167
-0.113371
-0.108552
-0.108801
-0.114072
-0.109276
-0.09957
-0.0949321
-0.0902262
-0.10052
-0.0908597
-0.081018
-0.0912217
-0.0964705
-0.0716063
-0.041742
-0.0569457
-0.0720814
-0.0672398
-0.0424887
-0.0377149
-0.0478507
-0.0480769
-0.0282805
-0.0184389
-0.0136425
-0.0188461
0.0109955
0.0307918
0.0356335
0.0404751
0.0653394
0.0852489
0.0902036
0.100204
0.125271
0.155543
0.165792
0.166041
0.201357
0.231652
0.256946
0.272376
0.307873
0.348371
0.348869
0.359276
0.384683
0.400204
0.405701
0.411063
0.421335
0.446584
0.456652
0.441674
0.416652
0.406538
0.376267
0.340928
0.310543
0.290068
0.264502
0.208982
0.153439
0.127964
0.102466
0.0769909
0.0365158
0.0210407
0.0105656
-0.00488689
-0.0252941
-0.0307014
-0.0313348
-0.0374435
-0.0639367
-0.0706335
-0.0670815
-0.067534
-0.0811086
-0.0772398
-0.0706109
-0.0618778
-0.0532579
-0.0525113
-0.0528507
-0.0271946
-0.0324661
-0.0532579
-0.0390498
-0.0196154
-0.0198869
-0.0299774
-0.0400905
-0.0303167
-0.0205882
-0.0257692
-0.0359502
-0.0311539
-0.031448
-0.0518326
-0.0623077
-0.0479412
-0.0336199
-0.0492534
-0.0648869
-0.0606109
-0.0564253
-0.0673982
-0.0783711
-0.0743213
-0.0752489
-0.0911991
-0.0870362
-0.0828281
-0.0884616
-0.0790272
-0.0745249
-0.0848869
-0.0800453
-0.0701358
-0.0951584
-0.100091
-0.0850226
-0.0848643
-0.0995476
-0.0991629
-0.0988236
-0.0934616
-0.0881901
-0.0978281
-0.0973756
-0.0769458
-0.0915838
-0.106177
-0.0857014
-0.0751358
-0.0945928
-0.0936878
-0.0875566
-0.0806335
-0.0885747
-0.0967874
-0.0960634
-0.0772172
-0.080905
-0.10733
-0.105498
-0.0931675
-0.102579
-0.108643
-0.102919
-0.101131
-0.0986878
-0.101199
-0.108891
-0.0917647
-0.0847738
-0.10276
-0.100588
-0.0783711
-0.0761765
-0.0839593
-0.071629
-0.0692534
-0.0768552
-0.0845249
-0.0673077
-0.0552489
-0.0532579
-0.0413801
-0.0447059
-0.0531901
-0.0418778
-0.0357919
-0.0499095
-0.0541629
-0.0484842
-0.0479864
-0.0526244
-0.0523077
-0.056991
-0.0517647
-0.0465611
-0.0414027
-0.0512896
-0.0313122
-0.0264253
-0.0465611
-0.0466742
-0.0267647
-0.0319005
-0.0521041
-0.047353
-0.0375566
-0.0378054
-0.04319
-0.0485068
-0.0438009
-0.0491629
-0.0495702
-0.0499321
-0.0502941
-0.0457466
-0.0463575
-0.0520136
-0.0426244
-0.0382806
-0.054095
-0.0549774
-0.015905
0.0130995
0.0369457
0.0306335
0.0342986
0.0428507
0.061267
0.0844796
0.112624
0.120701
0.118597
0.111335
0.108982
0.0865158
0.0740045
0.031448
0.0188009
0.0111765
-0.0163801
-0.0590272
-0.0866742
-0.0942308
-0.106742
-0.11914
-0.146403
-0.158484
-0.14543
-0.15224
-0.173959
-0.150588
-0.146787
-0.162873
-0.168869
-0.154661
-0.145362
-0.151063
-0.166652
-0.167127
-0.217624
-0.247986
-0.418281
-0.443575
-0.358869
-0.104185
0.315475
0.885249
1.51502
1.92971
1.82946
1.10928
0.40405
0.0388009
-0.171471
-0.301765
-0.277059
-0.197285
-0.157557
-0.117783
-0.0979638
-0.118235
-0.123529
-0.113778
-0.109005
-0.109231
-0.109412
-0.129661
-0.139955
-0.125181
-0.120271
-0.140362
-0.145498
-0.120543
-0.110543
-0.120566
-0.125543
-0.105498
-0.10052
-0.110566
-0.110588
-0.0956335
-0.095724
-0.110769
-0.110837
-0.110882
-0.100837
-0.0957692
-0.0907918
-0.0756561
-0.0654525
-0.0703394
-0.0902715
-0.0801357
-0.0650226
-0.055
-0.0649321
-0.0598642
-0.0347511
-0.0245927
-0.0345022
-0.0394117
-0.0143212
-0.0041855
-0.00414026
0.00590499
0.0309729
0.0511312
0.0513122
0.056448
0.0816516
0.101855
0.112014
0.107308
0.13276
0.183303
0.203846
0.214412
0.229932
0.280588
0.301425
0.307421
0.338439
0.379434
0.400452
0.411538
0.427421
0.443258
0.458982
0.46457
0.455045
0.46543
0.470747
0.46095
0.426109
0.396222
0.381357
0.34138
0.296267
0.26629
0.24629
0.231131
0.141109
0.106109
0.0859955
0.0608823
0.0258371
0.0107692
0.00574661
-0.00927602
-0.024276
-0.0545701
-0.065
-0.0611312
-0.0723756
-0.0783937
-0.0733032
-0.0761086
-0.0714706
-0.0640498
-0.059638
-0.0456335
-0.0348869
-0.0323982
-0.0215385
-0.0166063
-0.0173529
-0.0381674
-0.0386652
-0.0340045
-0.0392534
-0.039638
-0.0353167
-0.0260181
-0.0316289
-0.0422398
-0.0428959
-0.0285068
-0.0290271
-0.0545475
-0.0699547
-0.0602941
-0.0505656
-0.0607466
-0.0757013
-0.0805656
-0.0804298
-0.0802262
-0.0799095
-0.0795249
-0.079095
-0.0736651
-0.0681448
-0.0776244
-0.0772172
-0.0767194
-0.0912669
-0.0908144
-0.0803167
-0.0947511
-0.104163
-0.103597
-0.0929412
-0.0870814
-0.0857013
-0.083914
-0.0870136
-0.0759729
-0.0863801
-0.104027
-0.0992986
-0.102217
-0.116199
-0.133439
-0.117036
-0.117851
-0.117421
-0.136086
-0.144434
-0.122986
-0.13181
-0.145792
-0.134819
-0.12371
-0.127557
-0.121335
-0.12491
-0.123371
-0.101765
-0.110068
-0.123167
-0.126199
-0.119276
-0.112172
-0.119864
-0.132511
-0.105068
-0.102534
-0.115045
-0.0924887
-0.0698869
-0.0723077
-0.0946832
-0.0920362
-0.084457
-0.0820814
-0.0948869
-0.0927828
-0.0708145
-0.0840272
-0.0823756
-0.0658824
-0.0695475
-0.0685973
-0.0577828
-0.0621041
-0.0615611
-0.0461539
-0.0608145
-0.075543
-0.0804073
-0.0653394
-0.0653846
-0.080543
-0.080724
-0.0459728
-0.0362896
-0.0816968
-0.0522172
-0.0377828
-0.063371
-0.0740497
-0.0748189
-0.0605656
-0.0663574
-0.0722172
-0.0532353
-0.0142986
-0.00549772
-0.00185519
0.0166742
0.0651584
0.108552
0.106855
0.0949774
0.0979638
0.106018
0.0939593
0.0517873
0.0395701
0.0271719
0.0146833
-0.0228054
-0.0502715
-0.0777602
-0.0902262
-0.102692
-0.125068
-0.132217
-0.144276
-0.166154
-0.167873
-0.174434
-0.175724
-0.166878
-0.187919
-0.178891
-0.169751
-0.175453
-0.186063
-0.176606
-0.162081
-0.187466
-0.252919
-0.358303
-0.433575
-0.448801
-0.26905
0.0557013
0.575452
1.16523
1.74005
1.9698
1.60946
0.814118
0.198891
-0.0663802
-0.241697
-0.292082
-0.247489
-0.182828
-0.123235
-0.0936878
-0.114095
-0.129457
-0.119842
-0.115181
-0.12052
-0.12586
-0.131109
-0.126403
-0.121765
-0.107127
-0.117489
-0.122783
-0.113054
-0.123394
-0.12862
-0.103846
-0.10414
-0.109321
-0.114389
-0.11448
-0.114729
-0.109955
-0.100158
-0.0903846
-0.0856561
-0.095905
-0.101041
-0.101222
-0.0863801
-0.0664705
-0.0716516
-0.0767647
-0.0667873
-0.0618778
-0.0670135
-0.0670588
-0.0571493
-0.0423529
-0.0425565
-0.0477149
-0.0328507
-0.0230317
-0.01819
-0.00823528
0.0168552
0.0367873
0.0467421
0.0517421
0.0666516
0.0915837
0.091448
0.101357
0.126244
0.166109
0.176109
0.186244
0.221425
0.251697
0.257081
0.277624
0.303394
0.354208
0.379932
0.355656
0.381425
0.422127
0.43267
0.448235
0.45371
0.464095
0.469389
0.464525
0.44448
0.439412
0.419412
0.369253
0.34905
0.308801
0.273484
0.243167
0.187805
0.147421
0.122104
0.106787
0.0664479
0.0310859
0.0207918
-0.00950229
-0.0348869
-0.0552037
-0.0305656
-0.0412217
-0.0673982
-0.078914
-0.0804525
-0.0711539
-0.0804299
-0.0973982
-0.0916968
-0.0633032
-0.0388236
-0.0410634
-0.0419005
-0.0304072
-0.0202036
-0.0258824
-0.0316969
-0.0273077
-0.0227828
-0.0281675
-0.0284389
-0.0288462
-0.0293892
-0.0351131
-0.0409729
-0.0417874
-0.0425792
-0.0434842
-0.0444118
-0.0502263
-0.045724
-0.0561991
-0.0717421
-0.0722172
-0.0725113
-0.0727602
-0.0728055
-0.0777376
-0.0826018
-0.0824887
-0.0723077
-0.0770815
-0.0768326
-0.0714706
-0.0761765
-0.0808824
-0.0855204
-0.0901358
-0.094819
-0.094457
-0.0790045
-0.0935294
-0.1031
-0.0926697
-0.081991
-0.0858145
-0.0892534
-0.0775566
-0.0807693
-0.0752715
-0.0816968
-0.0906335
-0.102262
-0.100814
-0.128914
-0.14414
-0.121041
-0.115973
-0.120045
-0.133643
-0.117127
-0.110814
-0.109751
-0.108756
-0.117557
-0.106222
-0.104796
-0.118258
-0.121584
-0.104887
-0.108054
-0.116154
-0.10405
-0.0968326
-0.0947285
-0.0874887
-0.0900905
-0.102692
-0.0902262
-0.0777149
-0.0902036
-0.0776697
-0.0601584
-0.0626923
-0.0853394
-0.0681448
-0.0611312
-0.0591403
-0.0623982
-0.0608597
-0.0544118
-0.0481674
-0.0521946
-0.0713801
-0.0556108
-0.0399774
-0.0595475
-0.069276
-0.0391629
-0.0391403
-0.0542081
-0.0542308
-0.0443439
-0.0445475
-0.0548642
-0.0602941
-0.0507013
-0.0411538
-0.0417194
-0.0623756
-0.0729864
-0.0535294
-0.0541629
-0.0798869
-0.0606561
-0.041448
-0.062353
-0.0634616
-0.029638
0.00916289
0.0129638
0.021629
0.0350905
0.0835068
0.116787
0.0999095
0.0878733
0.105792
0.113756
0.0915837
0.0342082
0.01681
0.0243439
0.0168552
-0.035724
-0.0533484
-0.0759276
-0.103416
-0.12586
-0.128213
-0.145407
-0.157398
-0.159253
-0.17595
-0.152489
-0.148891
-0.175113
-0.186176
-0.172172
-0.167964
-0.16871
-0.179366
-0.174977
-0.16552
-0.215995
-0.331448
-0.416878
-0.437285
-0.442557
-0.157873
0.26181
0.831538
1.43631
1.86602
1.77572
1.16534
0.449955
0.0246606
-0.160656
-0.251018
-0.251425
-0.20681
-0.142195
-0.102579
-0.107851
-0.128213
-0.138597
-0.128914
-0.129276
-0.129661
-0.140045
-0.130453
-0.12586
-0.126177
-0.126493
-0.13181
-0.127059
-0.117308
-0.11767
-0.122986
-0.11319
-0.113416
-0.11362
-0.123778
-0.103914
-0.0891403
-0.0993439
-0.114525
-0.0996833
-0.089819
-0.1
-0.110091
-0.0901357
-0.0802262
-0.0854072
-0.0954977
-0.085543
-0.0606787
-0.0558145
-0.0608371
-0.0608823
-0.0459276
-0.0359502
-0.0410407
-0.0261991
-0.00131221
0.00361992
0.00355205
0.00843893
0.0283937
0.0383258
0.0382127
0.0481675
0.0631222
0.0830091
0.0980091
0.118077
0.157986
0.177941
0.188077
0.183303
0.213529
0.258824
0.269253
0.294864
0.325611
0.361335
0.372059
0.362851
0.393665
0.434412
0.444932
0.450362
0.440837
0.46129
0.471539
0.461674
0.441697
0.426606
0.401425
0.366335
0.331131
0.295837
0.260588
0.230249
0.195
0.149796
0.109525
0.0892082
0.038914
0.0286199
0.0233711
-0.00192305
-0.0272624
-0.0326018
-0.0280769
-0.0390271
-0.0504072
-0.0719231
-0.0684163
-0.0635747
-0.0768552
-0.0876018
-0.0706335
-0.0516063
-0.0429864
-0.0472172
-0.0396832
-0.0290724
-0.0244344
-0.0304072
-0.0214932
-0.0174208
-0.0180995
-0.0438009
-0.0345701
-0.0204298
-0.0362669
-0.0421041
-0.0429638
-0.0287104
-0.0293665
-0.0399547
-0.0504299
-0.0457692
-0.0459955
-0.0562217
-0.0613348
-0.0513574
-0.051267
-0.0662443
-0.0760181
-0.070724
-0.0654072
-0.0751131
-0.0797964
-0.0693439
-0.0689593
-0.0737104
-0.0833936
-0.0730543
-0.0877375
-0.0924208
-0.0870814
-0.0866063
-0.0907692
-0.0845249
-0.0829864
-0.0913122
-0.0852941
-0.0808597
-0.0987783
-0.109389
-0.0908371
-0.0851584
-0.112738
-0.131538
-0.122602
-0.102376
-0.116199
-0.129615
-0.128213
-0.122127
-0.12129
-0.13052
-0.134661
-0.12862
-0.112421
-0.121109
-0.124774
-0.103348
-0.0969004
-0.100362
-0.11371
-0.101968
-0.0950226
-0.103032
-0.110905
-0.103688
-0.0964706
-0.0992307
-0.101833
-0.0943439
-0.0918099
-0.0893891
-0.0919004
-0.0793438
-0.0718552
-0.069457
-0.0671719
-0.085
-0.0729638
-0.0610859
-0.069457
-0.0630316
-0.0567194
-0.0605203
-0.0696606
-0.0690271
-0.0584615
-0.0530995
-0.0627601
-0.0625113
-0.0473755
-0.0374208
-0.0575565
-0.0678054
-0.0581448
-0.0485067
-0.0590045
-0.0695475
-0.0650905
-0.0557013
-0.0514479
-0.0772624
-0.0780995
-0.0589592
-0.0599773
-0.0611538
-0.032466
0.0112218
0.0349096
0.0434842
0.0518553
0.0951584
0.103303
0.10138
0.0843666
0.0921946
0.0949322
0.0675566
0.0351358
0.0276697
0.00518105
-0.0273982
-0.0550452
-0.0626244
-0.0851583
-0.0976244
-0.125
-0.117195
-0.154231
-0.171199
-0.177986
-0.184547
-0.170973
-0.187172
-0.183145
-0.169004
-0.169774
-0.165452
-0.171041
-0.181629
-0.167195
-0.187511
-0.272805
-0.373167
-0.428507
-0.433778
-0.284027
0.0607014
0.580407
1.19011
1.38484
2.01471
1.64459
0.834389
0.234118
-0.0511086
-0.256244
-0.326448
-0.276742
-0.207104
-0.142489
-0.112851
-0.113213
-0.138597
-0.154027
-0.139367
-0.124706
-0.135136
-0.145498
-0.135747
-0.11595
-0.126244
-0.146538
-0.126719
-0.121878
-0.132104
-0.142421
-0.117692
-0.112873
-0.123032
-0.128213
-0.113439
-0.108643
-0.113824
-0.108959
-0.109118
-0.0992308
-0.099276
-0.104457
-0.104615
-0.0847285
-0.0747964
-0.079819
-0.0899095
-0.0600226
-0.0501131
-0.055181
-0.0603167
-0.0654299
-0.0505882
-0.0506561
-0.0357014
-0.020724
0.00920814
0.0190724
0.0140045
0.0239367
0.0388688
0.0438009
0.043733
0.0586878
0.0837104
0.0986425
0.103462
0.128416
0.168416
0.208439
0.213507
0.208778
0.244231
0.294706
0.310136
0.32086
0.346652
0.382421
0.403145
0.418914
0.444683
0.470362
0.480973
0.476516
0.486855
0.507149
0.492466
0.472624
0.452602
0.442624
0.402602
0.352534
0.32724
0.2919
0.246652
0.20629
0.151018
0.110679
0.0854299
0.0602715
0.0300905
0.0199095
0.00468327
-0.00554297
-0.0556787
-0.0609955
-0.0517647
-0.0528959
-0.0692534
-0.0857466
-0.0765611
-0.0657466
-0.0775566
-0.0816742
-0.0799095
-0.0602036
-0.0522172
-0.0479412
-0.0463348
-0.0459502
-0.0465384
-0.0425339
-0.0282127
-0.0185294
-0.0236878
-0.0338461
-0.0340498
-0.0193891
-0.0249095
-0.0354977
-0.0211538
-0.0169004
-0.0376923
-0.0534841
-0.0492081
-0.0399547
-0.0607014
-0.076267
-0.0717873
-0.0473077
-0.0528507
-0.0781448
-0.0882353
-0.0783258
-0.0683032
-0.0732126
-0.0830769
-0.0828507
-0.072466
-0.0820362
-0.0966742
-0.0863122
-0.0808371
-0.0804298
-0.1
-0.10448
-0.0839819
-0.083552
-0.098009
-0.102443
-0.0767421
-0.0758145
-0.0744796
-0.0927602
-0.0809276
-0.0745927
-0.084638
-0.0817873
-0.0896606
-0.087104
-0.105837
-0.122941
-0.121606
-0.117466
-0.126991
-0.130611
-0.103891
-0.11224
-0.120769
-0.124389
-0.102919
-0.10129
-0.114615
-0.107828
-0.0858371
-0.103756
-0.106584
-0.0993665
-0.102014
-0.0995023
-0.0919457
-0.0943665
-0.106629
-0.0938235
-0.0660181
-0.0831674
-0.110249
-0.0774435
-0.0547285
-0.0721041
-0.0845249
-0.0621493
-0.045
-0.0479186
-0.071086
-0.0494797
-0.0530091
-0.0517421
-0.065724
-0.0699096
-0.0642082
-0.05862
-0.0531222
-0.0627376
-0.0673756
-0.0472172
-0.032172
-0.0521494
-0.0571267
-0.032172
-0.0323303
-0.0475566
-0.0527828
-0.0380317
-0.0383484
-0.0587557
-0.0491629
-0.0395702
-0.0500227
-0.0655883
-0.0562218
-0.0368552
-0.0576018
-0.0684616
-0.0393665
-0.0103394
-0.00140273
0.0024208
0.0261538
0.0547963
0.0833484
0.0917647
0.0901131
0.0983484
0.101403
0.0943665
0.0722851
0.0500226
0.0427375
0.0304298
0.0230769
-0.00925342
-0.051629
-0.0640271
-0.0963575
-0.098552
-0.105566
-0.132443
-0.164231
-0.175814
-0.15224
-0.153529
-0.184593
-0.170453
-0.156176
-0.166855
-0.167489
-0.162986
-0.158416
-0.153756
-0.189072
-0.244276
-0.339412
-0.409457
-0.434593
-0.309683
0.0103168
0.505317
0.675339
1.68023
1.97516
1.63016
0.875136
0.255023
-0.0251131
-0.200249
-0.260362
-0.240407
-0.17552
-0.115656
-0.0957918
-0.12586
-0.141018
-0.131244
-0.126357
-0.131357
-0.141493
-0.126697
-0.121833
-0.136946
-0.132104
-0.112217
-0.122262
-0.127308
-0.132376
-0.132376
-0.127466
-0.117624
-0.117647
-0.117579
-0.117579
-0.112602
-0.112557
-0.122489
-0.102421
-0.0973981
-0.10733
-0.117353
-0.102353
-0.082285
-0.082285
-0.0872624
-0.0771945
-0.0671267
-0.0721041
-0.0770814
-0.0569909
-0.0417647
-0.0415837
-0.0414932
-0.031267
-0.00597285
0.00420815
-0.00570135
-0.000520352
0.0147059
0.0248869
0.0250905
0.0352715
0.0604525
0.0756109
0.075724
0.105882
0.14595
0.166063
0.17629
0.186606
0.212036
0.247489
0.263009
0.273665
0.319434
0.340317
0.346244
0.372127
0.398032
0.418982
0.439774
0.430452
0.441176
0.476855
0.467557
0.453122
0.448416
0.44371
0.423937
0.379095
0.339163
0.31914
0.284027
0.238869
0.193824
0.153733
0.113552
0.0834615
0.0533258
0.0381674
0.0280543
0.0129864
-0.0220815
-0.0321493
-0.0323756
-0.0478733
-0.0688235
-0.0700453
-0.0713801
-0.0871267
-0.0964254
-0.0935521
-0.0648643
-0.0565611
-0.0720362
-0.0691177
-0.0395928
-0.0277602
-0.0371946
-0.0474209
-0.0379865
-0.0333937
-0.0384616
-0.0433937
-0.0382806
-0.0183258
-0.0185294
-0.0388462
-0.0442308
-0.0346606
-0.025181
-0.0358371
-0.0465158
-0.0372398
-0.0429638
-0.0636878
-0.0793891
-0.0649095
-0.0553394
-0.0557692
-0.0711765
-0.0714932
-0.071448
-0.0763801
-0.0862896
-0.081086
-0.0708598
-0.0756562
-0.0902489
-0.0797964
-0.0643439
-0.0689367
-0.0985068
-0.0879865
-0.0874435
-0.0919005
-0.0863575
-0.0857693
-0.0901584
-0.0845702
-0.0989367
-0.108122
-0.0918779
-0.0951584
-0.108235
-0.0964028
-0.0797059
-0.0856109
-0.098982
-0.115091
-0.118416
-0.111765
-0.127285
-0.139344
-0.119389
-0.108348
-0.106629
-0.124706
-0.117919
-0.106335
-0.119864
-0.118371
-0.106697
-0.104842
-0.0979186
-0.110882
-0.118756
-0.0966064
-0.094344
-0.106946
-0.0894571
-0.0818779
-0.0942761
-0.0917195
-0.0990951
-0.096448
-0.0738236
-0.0812444
-0.0937105
-0.076267
-0.0590272
-0.0619684
-0.07
-0.068258
-0.0667195
-0.0553394
-0.0642308
-0.0683711
-0.042534
-0.04681
-0.0562218
-0.060724
-0.0552263
-0.0499095
-0.0497512
-0.0446154
-0.0395249
-0.0494797
-0.0495249
-0.0546607
-0.0548643
-0.0400905
-0.0503846
-0.0657014
-0.0410407
-0.0314932
-0.036991
-0.062534
-0.0630996
-0.0637331
-0.0494344
-0.0651584
-0.0759503
-0.04681
-0.0377828
-0.0338688
-0.015
0.0187556
0.0373529
0.0408371
0.0492081
0.0925792
0.100747
0.0937556
0.096742
0.114593
0.0973077
0.049819
0.0222624
0.019819
0.0174434
0.00497732
-0.0775566
-0.0851132
-0.0925793
-0.114977
-0.12233
-0.12948
-0.156448
-0.163281
-0.17491
-0.176312
-0.167534
-0.168643
-0.174593
-0.18043
-0.171244
-0.171833
-0.18233
-0.182806
-0.173122
-0.198394
-0.293688
-0.398914
-0.434163
-0.389412
-0.349593
0.215226
0.764955
1.38466
1.88443
1.88921
1.27398
0.53371
0.103462
-0.136742
-0.256923
-0.262081
-0.21224
-0.157466
-0.122715
-0.103032
-0.10819
-0.133394
-0.138688
-0.118914
-0.11914
-0.119434
-0.119638
-0.124796
-0.124977
-0.125113
-0.140294
-0.120566
-0.100747
-0.115905
-0.126109
-0.121222
-0.116335
-0.116516
-0.116697
-0.116787
-0.116833
-0.101923
-0.101968
-0.112036
-0.0920815
-0.0771494
-0.102172
-0.107149
-0.0921041
-0.0820136
-0.0970588
-0.0921267
-0.0671041
-0.0620362
-0.0669231
-0.0767874
-0.0566969
-0.0365611
-0.0364254
-0.0414254
-0.0263801
0.0037104
0.00875565
0.00893664
0.0141403
0.049276
0.0643439
0.0694118
0.0743892
0.0894118
0.10948
0.119525
0.139661
0.169864
0.200068
0.225339
0.240747
0.261244
0.29681
0.307443
0.343258
0.369095
0.384932
0.410769
0.421674
0.452534
0.483213
0.468824
0.454367
0.459842
0.475339
0.48052
0.455634
0.430701
0.425701
0.390769
0.345792
0.300566
0.265385
0.230249
0.185091
0.129955
0.104774
0.0795928
0.0694118
0.0242308
0.00398193
-0.00622169
-0.0364027
-0.0615611
-0.0668326
-0.0675113
-0.0686878
-0.0850452
-0.0912217
-0.0772172
-0.0606109
-0.0615611
-0.0797285
-0.0656109
-0.0414253
-0.0350679
-0.0470362
-0.0359276
-0.0308598
-0.0363349
-0.0569684
-0.037353
-0.0224887
-0.0226471
-0.0578281
-0.0381674
-0.0186652
-0.0292308
-0.0449095
-0.0406335
-0.0412896
-0.0519909
-0.0628054
-0.0585068
-0.0440045
-0.0394344
-0.0597964
-0.0750679
-0.065362
-0.0654073
-0.0753846
-0.0753394
-0.0602489
-0.0650679
-0.0797964
-0.0795702
-0.0891855
-0.0837331
-0.0782806
-0.0828507
-0.097353
-0.0818778
-0.0914027
-0.110928
-0.0854751
-0.0750226
-0.0895249
-0.0989819
-0.103258
-0.102081
-0.100498
-0.108733
-0.112104
-0.0806561
-0.0768552
-0.100566
-0.111923
-0.125633
-0.129434
-0.125385
-0.137602
-0.137783
-0.116833
-0.110158
-0.133326
-0.136697
-0.125294
-0.128982
-0.122692
-0.116244
-0.109615
-0.107941
-0.116199
-0.119253
-0.112308
-0.105158
-0.107873
-0.100588
-0.0931901
-0.0956335
-0.0980996
-0.105453
-0.0877602
-0.0701131
-0.0824434
-0.0897285
-0.0770362
-0.0694118
-0.0718778
-0.0895249
-0.0823529
-0.0502941
-0.0634615
-0.0818326
-0.0754073
-0.0691629
-0.0581222
-0.0622851
-0.0665611
-0.0558371
-0.0404073
-0.0601584
-0.0649095
-0.0597738
-0.0597738
-0.0649095
-0.0600679
-0.055181
-0.050362
-0.0506561
-0.0610407
-0.0514254
-0.04681
-0.0523077
-0.062896
-0.0534389
-0.0589819
-0.064638
-0.0754073
-0.0763122
-0.0472851
-0.0534389
-0.0546154
-0.0157919
0.00796381
0.0364479
0.0448416
0.0532127
0.0964932
0.104593
0.0876244
0.0955203
0.113258
0.0859276
0.0385068
0.00604071
0.00857464
0.00601809
-0.00662898
-0.0741855
-0.08681
-0.0893439
-0.101787
-0.124072
-0.146244
-0.138281
-0.160158
-0.1769
-0.188484
-0.164887
-0.166109
-0.187217
-0.193145
-0.179072
-0.164842
-0.180385
-0.185792
-0.171176
-0.206516
-0.311878
-0.412285
-0.432624
-0.382896
-0.343213
0.236516
0.806312
1.42111
1.94588
1.96554
1.34029
0.550113
0.114887
-0.13043
-0.285679
-0.305905
-0.241222
-0.181674
-0.142081
-0.107466
-0.112738
-0.128077
-0.123439
-0.118756
-0.129072
-0.119434
-0.129819
-0.135158
-0.120475
-0.120769
-0.146086
-0.111425
-0.106674
-0.131923
-0.137217
-0.137421
-0.132579
-0.12276
-0.132941
-0.1381
-0.103235
-0.0984389
-0.118665
-0.113778
-0.103959
-0.0941855
-0.0993665
-0.109548
-0.0896832
-0.0898416
-0.0999547
-0.0800452
-0.0601131
-0.0702262
-0.0752941
-0.0704299
-0.0454751
-0.0404977
-0.0505882
-0.0506787
-0.030724
0.00429866
0.0193439
0.0143665
0.0143213
0.0392308
0.0441855
0.0441855
0.054095
0.0890046
0.123937
0.133846
0.153891
0.178891
0.193914
0.209163
0.234434
0.274887
0.30043
0.310973
0.336674
0.357466
0.388235
0.414072
0.41991
0.445588
0.471063
0.476448
0.476833
0.482172
0.472557
0.48767
0.457602
0.437579
0.417579
0.387489
0.342262
0.307059
0.266765
0.236516
0.201176
0.155837
0.115498
0.0901584
0.0797964
0.0244344
-0.00081449
-0.0211086
-0.041448
-0.0616968
-0.0621719
-0.0530769
-0.0693665
-0.0958371
-0.0921267
-0.0732127
-0.081629
-0.0976471
-0.0910181
-0.0620362
-0.0679864
-0.0668778
-0.0644344
-0.043914
-0.0394796
-0.0408145
-0.0474208
-0.0237104
-0.024638
-0.035362
-0.0559729
-0.0366063
-0.0272624
-0.0378733
-0.0483937
-0.0438914
-0.0342534
-0.0395475
-0.0497511
-0.0498416
-0.039819
-0.039819
-0.0647059
-0.0745022
-0.0493665
-0.0541176
-0.0788914
-0.0837556
-0.0735973
-0.073371
-0.08319
-0.0879185
-0.0776018
-0.0722851
-0.071991
-0.0817195
-0.0862896
-0.0804525
-0.0791403
-0.0776018
-0.0911991
-0.0857014
-0.0767421
-0.0902715
-0.111652
-0.100294
-0.129163
-0.145656
-0.128688
-0.125792
-0.130679
-0.144842
-0.158733
-0.142715
-0.121968
-0.116471
-0.13586
-0.135158
-0.119412
-0.123529
-0.137579
-0.131516
-0.130362
-0.12405
-0.127692
-0.13629
-0.114774
-0.123145
-0.13138
-0.11948
-0.107534
-0.115611
-0.123575
-0.126357
-0.104005
-0.0916063
-0.0891629
-0.0966968
-0.0891855
-0.0766063
-0.0940045
-0.0965611
-0.0640272
-0.0715158
-0.0841403
-0.0819683
-0.0699548
-0.0631448
-0.0614932
-0.0850679
-0.0738462
-0.0478054
-0.0469005
-0.0661991
-0.0656788
-0.0502489
-0.0600905
-0.0651358
-0.0603394
-0.0656561
-0.0511312
-0.0616064
-0.0771267
-0.0577602
-0.0485294
-0.0543666
-0.0652715
-0.0262444
0.00264703
0.0064027
0.0101131
0.0336425
0.0520588
0.0404072
0.0336425
0.0467873
0.0849321
0.0779638
0.0559502
0.0488235
0.0565837
0.0541403
0.0417194
0.0342534
0.0167194
-0.000837125
-0.0234616
-0.0510634
-0.0786426
-0.0911086
-0.118552
-0.140905
-0.133054
-0.150113
-0.162036
-0.193733
-0.190204
-0.166584
-0.162873
-0.189027
-0.185068
-0.170996
-0.176833
-0.197557
-0.188168
-0.173643
-0.199072
-0.294548
-0.409977
-0.440362
-0.410724
-0.221199
0.138348
0.708054
1.32776
1.82233
1.87697
1.37654
0.616041
0.400633
-0.0897738
-0.230226
-0.255724
-0.221244
-0.166674
-0.112082
-0.112444
-0.127896
-0.138394
-0.158869
-0.139299
-0.129751
-0.140226
-0.155747
-0.141267
-0.136765
-0.147285
-0.147738
-0.138235
-0.14371
-0.14414
-0.11457
-0.119955
-0.130339
-0.135769
-0.141199
-0.126584
-0.106878
-0.112195
-0.127511
-0.12776
-0.103077
-0.108394
-0.133597
-0.123846
-0.0991629
-0.0944118
-0.0946154
-0.0948416
-0.0850679
-0.0703846
-0.0657013
-0.0808597
-0.0760181
-0.061267
-0.0514932
-0.0466968
-0.0269683
-0.0121946
-0.00733031
0.00744345
0.00721721
0.0269457
0.0366063
0.0413801
0.0612217
0.0960407
0.100814
0.110747
0.140792
0.170882
0.196018
0.216222
0.231538
0.276855
0.302172
0.302579
0.32319
0.35871
0.384072
0.399276
0.424344
0.439389
0.459367
0.464208
0.458982
0.478665
0.483235
0.47267
0.436923
0.431131
0.420272
0.374367
0.328462
0.287443
0.261403
0.205294
0.159299
0.133462
0.112692
0.086991
0.0513801
0.025905
0.0104751
-0.00995475
-0.0402715
-0.0604072
-0.0555656
-0.0611086
-0.0722624
-0.0785973
-0.0697738
-0.0700679
-0.0938235
-0.100023
-0.0783484
-0.0643891
-0.0601358
-0.0482127
-0.0446606
-0.0366969
-0.0304751
-0.0346833
-0.0440272
-0.0483032
-0.0345023
-0.0428281
-0.0488914
-0.0475792
-0.0470136
-0.0693892
-0.0832579
-0.0747738
-0.065181
-0.0598869
-0.0693891
-0.0740498
-0.0690045
-0.0692081
-0.0844344
-0.0846154
-0.0747285
-0.0947059
-0.104729
-0.0998643
-0.0800226
-0.0802262
-0.100339
-0.105362
-0.100385
-0.105452
-0.110475
-0.115452
-0.110475
-0.110611
-0.110701
-0.125747
-0.125769
-0.115747
-0.115724
-0.120724
-0.110656
-0.12052
-0.120475
-0.120452
-0.125294
-0.115091
-0.109909
-0.124706
-0.139457
-0.124163
-0.108846
-0.10862
-0.108371
-0.1131
-0.117715
-0.117262
-0.116719
-0.111154
-0.105588
-0.109955
-0.114253
-0.103416
-0.107489
-0.116584
-0.120588
-0.124502
-0.128394
-0.11233
-0.0962896
-0.0652489
-0.0241629
-0.0180317
-0.0119457
0.0140271
0.0149095
0.0207013
0.0264253
0.0320588
0.0476244
0.0478959
0.0379864
0.0279185
0.0376244
0.0470814
0.0412217
0.0251357
0.00377828
-0.00778281
-0.0195249
-0.0613122
-0.0781674
-0.0951357
-0.112014
-0.133869
-0.150679
-0.177376
-0.19905
-0.210611
-0.191946
-0.183032
-0.188937
-0.194683
-0.175362
-0.171109
-0.186719
-0.197172
-0.207579
-0.192896
-0.208077
-0.29319
-0.398258
-0.443281
-0.438303
-0.418371
0.0614253
0.586267
1.1912
1.75618
1.91118
1.43618
0.681131
0.171109
-0.0839141
-0.253914
-0.283801
-0.243801
-0.188891
-0.133937
-0.118937
-0.133959
-0.149005
-0.149072
-0.144299
-0.129525
-0.129729
-0.124796
-0.129796
-0.129842
-0.134932
-0.140045
-0.150204
-0.135294
-0.130362
-0.130475
-0.130634
-0.115747
-0.11595
-0.126131
-0.126199
-0.111267
-0.111357
-0.121357
-0.116425
-0.106493
-0.121561
-0.121674
-0.111742
-0.0967195
-0.0917421
-0.0969004
-0.0870362
-0.0670588
-0.0520136
-0.0469457
-0.0669683
-0.0620362
-0.0470362
-0.0470362
-0.0370588
-0.0220588
-0.00703619
-0.0120588
-0.0120588
0.00789594
0.0328959
0.0379638
0.0328507
0.0626471
0.102511
0.127579
0.13276
0.148077
0.173439
0.218869
0.244389
0.259751
0.295068
0.320385
0.325633
0.35586
0.391086
0.41629
0.421403
0.431448
0.461516
0.486538
0.491493
0.491335
0.506131
0.495905
0.485475
0.474932
0.429389
0.408846
0.378416
0.322964
0.297421
0.2769
0.221538
0.156357
0.111199
0.0861538
0.0711991
0.0612896
0.0213348
0.00126696
-0.00380091
-0.0288688
-0.053914
-0.0690498
-0.0745023
-0.0804299
-0.0866516
-0.0878733
-0.063914
-0.0576923
-0.0786878
-0.0814706
-0.0665837
-0.0460633
-0.0438688
-0.0570815
-0.0501131
-0.0520588
-0.0823982
-0.0783032
-0.0709729
-0.0795249
-0.090724
-0.100814
-0.0950905
-0.0791177
-0.0633937
-0.0731222
-0.0730769
-0.0830996
-0.0980543
-0.108054
-0.103054
-0.0929864
-0.0880543
-0.108235
-0.118348
-0.103394
-0.0933937
-0.103484
-0.0985973
-0.10362
-0.118643
-0.118688
-0.118824
-0.128937
-0.124005
-0.12405
-0.124095
-0.119208
-0.119344
-0.134412
-0.139457
-0.12448
-0.114525
-0.12457
-0.139615
-0.144638
-0.129638
-0.124706
-0.139638
-0.139525
-0.129434
-0.129367
-0.139321
-0.134321
-0.129344
-0.124344
-0.144344
-0.164276
-0.129186
-0.114118
-0.113982
-0.143688
-0.138303
-0.127986
-0.132692
-0.142376
-0.136923
-0.101403
-0.0859728
-0.0804977
-0.06
-0.039638
-0.0393665
-0.0441176
-0.0338235
-0.00848416
-0.00332579
0.00178732
0.0018552
0.00683257
0.00676469
0.00162894
0.0063122
0.0159276
0.000475097
-0.0153168
-0.0611765
-0.0721946
-0.0783937
-0.104615
-0.150882
-0.172172
-0.168552
-0.199932
-0.226267
-0.217443
-0.203394
-0.194276
-0.205068
-0.215769
-0.206538
-0.202104
-0.217624
-0.218054
-0.198462
-0.193824
-0.21414
-0.234321
-0.324321
-0.429367
-0.454502
-0.439661
-0.179729
0.260249
0.815091
1.42493
2.00484
2.09971
1.42459
0.56948
0.104321
-0.125837
-0.321063
-0.39138
-0.336652
-0.231833
-0.166968
-0.152127
-0.16233
-0.157579
-0.157828
-0.1781
-0.153416
-0.138665
-0.138937
-0.149276
-0.159593
-0.139842
-0.120091
-0.140294
-0.150566
-0.145905
-0.111199
-0.116425
-0.136652
-0.136878
-0.127059
-0.127172
-0.12233
-0.127511
-0.117738
-0.117896
-0.118077
-0.10819
-0.0882127
-0.0782353
-0.078371
-0.0835294
-0.108643
-0.103801
-0.0990045
-0.0841629
-0.0642308
-0.0393213
-0.0393439
-0.0443891
-0.0244344
-0.0145701
-0.0147511
-0.014819
0.000248855
0.00538461
0.0103394
0.0302262
0.0501357
0.0700452
0.0849774
0.0949095
0.129955
0.155068
0.175271
0.210611
0.260973
0.301312
0.316652
0.312036
0.362534
0.403077
0.438688
0.464276
0.474796
0.505204
0.535475
0.540679
0.545815
0.575837
0.570747
0.575453
0.56
0.53948
0.528869
0.478167
0.432376
0.386606
0.350679
0.299638
0.238688
0.182873
0.14224
0.116674
0.106154
0.0357693
0.0104525
-0.0147737
-0.0249095
-0.0399773
-0.05
-0.0550452
-0.0901357
-0.105679
-0.0967194
-0.0877602
-0.0987104
-0.113597
-0.0964706
-0.0818099
-0.0843439
-0.084276
-0.0638688
-0.0415158
-0.0327828
-0.0406561
-0.0342081
-0.00850679
-0.00339367
-0.00943441
-0.032172
-0.0323077
-0.040362
-0.0558371
-0.0757014
-0.0721493
-0.0551358
-0.0661312
-0.0811765
-0.0755204
-0.0647738
-0.0692986
-0.0790045
-0.0838235
-0.0737783
-0.0736199
-0.0834163
-0.0981674
-0.107941
-0.102738
-0.112557
-0.127398
-0.11224
-0.106991
-0.111742
-0.131561
-0.11138
-0.116063
-0.145701
-0.160362
-0.140045
-0.119728
-0.124412
-0.129185
-0.118959
-0.11871
-0.138348
-0.142919
-0.152421
-0.141923
-0.136425
-0.135928
-0.145452
-0.134977
-0.149457
-0.163869
-0.153303
-0.132738
-0.127081
-0.131403
-0.145679
-0.139909
-0.129095
-0.128167
-0.142217
-0.151199
-0.134977
-0.128575
-0.132081
-0.130566
-0.129095
-0.132443
-0.140724
-0.133959
-0.112104
-0.085362
-0.0586425
-0.0368552
-0.0101131
0.0014932
0.0130543
0.0144344
0.0407466
0.0519231
0.0477828
0.0234389
0.0238235
0.0238914
0.0286652
0.0281901
0.0174208
0.00135749
-0.0299321
-0.0565158
-0.0782579
-0.0999547
-0.111833
-0.148778
-0.170656
-0.167511
-0.17414
-0.190633
-0.201923
-0.193122
-0.189163
-0.215
-0.220588
-0.196041
-0.201471
-0.206787
-0.216946
-0.212014
-0.192036
-0.191946
-0.246787
-0.356516
-0.436176
-0.465837
-0.405498
-0.0951584
0.385249
0.980611
1.641
2.16636
2.03667
1.28195
0.497285
0.0826923
-0.111946
-0.266652
-0.296357
-0.246109
-0.185882
-0.140656
-0.130498
-0.165339
-0.170181
-0.145023
-0.144887
-0.159864
-0.154819
-0.139774
-0.139751
-0.154683
-0.159593
-0.134434
-0.134344
-0.164276
-0.164208
-0.139231
-0.124208
-0.124231
-0.129231
-0.134186
-0.129072
-0.128891
-0.13871
-0.133575
-0.123416
-0.123303
-0.128281
-0.108281
-0.0931901
-0.0930769
-0.102941
-0.102873
-0.0927602
-0.0876018
-0.0874661
-0.0722625
-0.0620136
-0.0569005
-0.0569005
-0.0468778
-0.0268326
-0.0216742
-0.0316516
-0.0215611
-0.00133485
0.00895927
0.0141176
0.0241855
0.0492986
0.0744344
0.0795475
0.114683
0.149932
0.165362
0.180882
0.216493
0.25724
0.293009
0.313688
0.329457
0.380317
0.416199
0.426991
0.45276
0.473439
0.49414
0.509932
0.51552
0.510928
0.536109
0.546041
0.525792
0.495385
0.484955
0.444412
0.428733
0.363032
0.322285
0.271584
0.21586
0.165023
0.129231
0.0834389
0.0426471
0.0220136
0.011448
-0.0140498
-0.0444796
-0.0648416
-0.0800905
-0.0802941
-0.100611
-0.12638
-0.122421
-0.0985747
-0.0943665
-0.113756
-0.121131
-0.115747
-0.10224
-0.0863801
-0.0761312
-0.0743439
-0.066086
-0.0645701
-0.0640498
-0.059276
-0.039457
-0.0390271
-0.0478733
-0.0363575
-0.0249095
-0.0246154
-0.0362217
-0.0504073
-0.0404525
-0.0502263
-0.0706109
-0.0881901
-0.0870362
-0.0885068
-0.108959
-0.113643
-0.0880769
-0.0926923
-0.102579
-0.127557
-0.0974661
-0.0822624
-0.0970588
-0.116878
-0.121697
-0.121448
-0.131199
-0.141018
-0.140792
-0.110452
-0.100181
-0.119887
-0.13448
-0.12905
-0.128733
-0.153462
-0.153213
-0.127896
-0.137557
-0.152127
-0.136674
-0.106222
-0.100747
-0.105204
-0.144683
-0.124163
-0.123665
-0.148167
-0.167624
-0.137059
-0.116448
-0.130747
-0.145023
-0.134231
-0.118348
-0.117285
-0.131154
-0.13
-0.123801
-0.142443
-0.136018
-0.114525
-0.107941
-0.116244
-0.124434
-0.127557
-0.120656
-0.0986878
-0.0967421
-0.114842
-0.0779185
-0.0509955
-0.0292081
0.00251134
0.0241856
0.0406788
0.0369231
0.0279186
0.0385973
0.0491629
0.0543666
0.0291403
0.0235295
0.0576471
0.051448
0.0249774
0.0182353
0.00631224
-0.0157692
-0.0379864
-0.0652941
-0.0776923
-0.0850905
-0.0974887
-0.129728
-0.141923
-0.164027
-0.17086
-0.192398
-0.193733
-0.159909
-0.17595
-0.206833
-0.202534
-0.198032
-0.188439
-0.193869
-0.224185
-0.199457
-0.189547
-0.229593
-0.314547
-0.414457
-0.449344
-0.424163
-0.203959
0.211244
0.806425
0.996539
2.02672
2.16692
1.5621
0.737172
0.197262
-0.0325791
-0.177489
-0.232511
-0.222443
-0.162353
-0.117285
-0.11733
-0.142308
-0.147217
-0.147172
-0.142172
-0.15724
-0.167421
-0.147579
-0.147692
-0.172805
-0.162828
-0.147783
-0.157783
-0.162828
-0.147896
-0.137986
-0.123145
-0.133258
-0.138258
-0.143326
-0.138484
-0.133552
-0.138394
-0.143258
-0.118145
-0.113145
-0.118122
-0.1081
-0.0981448
-0.0932127
-0.09819
-0.108145
-0.0881222
-0.0781222
-0.0931222
-0.0981222
-0.0780317
-0.0679638
-0.0629638
-0.063009
-0.0380317
-0.0179864
-0.0179412
-0.0278959
-0.00282805
0.0172398
0.0222172
0.0321267
0.0571267
0.0872172
0.0971719
0.10224
0.127489
0.167851
0.188371
0.208959
0.234615
0.280249
0.310905
0.321584
0.337172
0.392873
0.428507
0.434072
0.454751
0.480385
0.495973
0.496516
0.511946
0.532353
0.527715
0.517941
0.498009
0.483167
0.448348
0.418303
0.373145
0.317919
0.277715
0.237421
0.182014
0.141742
0.106516
0.0711765
0.0307919
0.0104299
0.010181
-0.0101357
-0.0206561
-0.0610407
-0.0662896
-0.0667873
-0.0776697
-0.0940045
-0.10052
-0.0969683
-0.0976244
-0.101584
-0.0928959
-0.0883032
-0.0840498
-0.0792534
-0.0572172
-0.053914
-0.0680996
-0.0733484
-0.0542534
-0.0503846
-0.0614706
-0.0673303
-0.068009
-0.0535746
-0.0541629
-0.0597511
-0.0703393
-0.0607918
-0.0361312
-0.0514253
-0.0716063
-0.0716742
-0.0617647
-0.0667647
-0.0767194
-0.0817194
-0.0716742
-0.0665611
-0.0764027
-0.0862217
-0.0860859
-0.080905
-0.0757466
-0.0806787
-0.100566
-0.0903846
-0.0902262
-0.104728
-0.0885973
-0.0871493
-0.0957013
-0.109909
-0.100633
-0.0886878
-0.104593
-0.123054
-0.122443
-0.114819
-0.138937
-0.15052
-0.135769
-0.120226
-0.14448
-0.153756
-0.133213
-0.12776
-0.142443
-0.151991
-0.136448
-0.115837
-0.115158
-0.134412
-0.123552
-0.112602
-0.126606
-0.130498
-0.134231
-0.127896
-0.126471
-0.124955
-0.138213
-0.131335
-0.0994117
-0.117443
-0.125271
-0.112941
-0.100566
-0.0930995
-0.105566
-0.098009
-0.0804751
-0.0928054
-0.100136
-0.0925792
-0.0650905
-0.0876018
-0.100181
-0.0779864
-0.0609502
-0.064095
-0.0725339
-0.0711991
-0.0450452
-0.0391629
-0.0634842
-0.0680769
-0.0528733
-0.0528054
-0.0678733
-0.0580317
-0.0432805
-0.0486199
-0.0692308
-0.0549547
-0.0557918
-0.0567194
-0.0527375
-0.0438235
2.23517e-08
0.0387557
0.047353
0.0358145
0.0341403
0.0523982
0.0555882
0.0536652
0.0616516
0.0644797
0.0621493
0.0547964
0.0523756
0.0597964
0.062172
0.0345476
0.0118779
0.00416292
0.00147061
-0.0262443
-0.0689366
-0.0914706
-0.0990271
-0.126403
-0.148688
-0.160814
-0.157805
-0.159593
-0.176222
-0.177715
-0.178937
-0.17
-0.170995
-0.186878
-0.187624
-0.163281
-0.168891
-0.189593
-0.190181
-0.240724
-0.37629
-0.451787
-0.44224
-0.287692
0.0517874
0.561267
1.18081
1.76534
1.97991
1.51948
0.794072
0.253575
-0.0318778
-0.202353
-0.247805
-0.218326
-0.158869
-0.139344
-0.119819
-0.125317
-0.125792
-0.136267
-0.141697
-0.132127
-0.127602
-0.138032
-0.143416
-0.143801
-0.13914
-0.134593
-0.13509
-0.130588
-0.136063
-0.136538
-0.137059
-0.132511
-0.122941
-0.123326
-0.128665
-0.129027
-0.119367
-0.109729
-0.10509
-0.120385
-0.100656
-0.080905
-0.0761765
-0.0964027
-0.0967421
-0.0821041
-0.0773756
-0.0826244
-0.0728959
-0.0631674
-0.0634163
-0.0585747
-0.0536878
-0.028914
-0.0191855
-0.029457
-0.0197059
0.000113118
6.78667e-05
0.00995475
0.0297511
0.0495928
0.0745475
0.0844118
0.0892308
0.0991176
0.124095
0.139276
0.169547
0.20491
0.235226
0.245475
0.255769
0.296176
0.316674
0.337195
0.367602
0.393054
0.413529
0.43905
0.444502
0.444955
0.470385
0.480792
0.471131
0.466403
0.471538
0.461493
0.45138
0.391312
0.371154
0.34586
0.310475
0.255158
0.21491
0.19457
0.139163
0.0937556
0.0684615
0.04319
0.0178507
0.00244343
-0.0128733
-0.0131901
-0.028552
-0.0389367
-0.0495701
-0.0507919
-0.0623077
-0.0738235
-0.0747285
-0.0640498
-0.0609955
-0.0601358
-0.0716516
-0.0522172
-0.0348416
-0.0308145
-0.0493213
-0.0292081
-0.0199321
-0.0309502
-0.0369005
-0.0326018
-0.0282127
-0.038733
-0.0543439
-0.0399774
-0.0306561
-0.0313122
-0.0419457
-0.0425792
-0.0432579
-0.0589593
-0.0746154
-0.0552036
-0.0406561
-0.0410407
-0.0463575
-0.0616289
-0.0468099
-0.0318326
-0.0567647
-0.0766742
-0.0765385
-0.0612896
-0.0609955
-0.070724
-0.0654299
-0.0650453
-0.0847285
-0.0993665
-0.0889593
-0.073552
-0.0732127
-0.0829412
-0.0826018
-0.0720588
-0.0713122
-0.0800679
-0.0834163
-0.0766516
-0.080362
-0.0805204
-0.0777828
-0.0676923
-0.0803846
-0.11957
-0.147262
-0.121561
-0.107964
-0.137873
-0.146787
-0.125113
-0.113462
-0.122081
-0.131063
-0.130068
-0.108982
-0.117579
-0.116131
-0.0996154
-0.0880091
-0.106222
-0.124253
-0.117308
-0.0852489
-0.093009
-0.100656
-0.108258
-0.0807692
-0.0732579
-0.0907919
-0.103145
-0.0903846
-0.0726697
-0.0650905
-0.0625792
-0.0650679
-0.0774887
-0.0801584
-0.0680317
-0.056086
-0.0642986
-0.0777375
-0.0713801
-0.0551131
-0.054095
-0.0683031
-0.0726923
-0.0722624
-0.0569231
-0.0516289
-0.0564706
-0.0663801
-0.0613575
-0.0563122
-0.0614027
-0.0715837
-0.0618552
-0.0421493
-0.0524887
-0.0678507
-0.0682353
-0.0636652
-0.0592986
-0.0649774
-0.0507466
-0.0315611
-0.0125113
0.00151587
0.0204299
0.034276
0.0379864
0.0365385
0.0349774
0.0482806
0.0514706
0.0495475
0.0375113
0.0404525
0.0432579
0.0409503
0.0384616
0.0258598
0.0132127
-0.0144344
-0.0320814
-0.0447059
-0.0622172
-0.0847964
-0.122376
-0.139706
-0.137059
-0.149186
-0.181131
-0.192873
-0.179434
-0.175814
-0.191968
-0.193009
-0.183959
-0.174796
-0.170543
-0.176131
-0.161606
-0.162059
-0.202466
-0.252783
-0.353077
-0.433348
-0.45862
-0.348959
-0.0242534
0.46552
1.06032
1.66514
2.00495
1.69466
0.944299
0.314005
0.0036878
-0.196719
-0.302172
-0.287557
-0.222919
-0.133235
-0.103575
-0.108914
-0.149253
-0.124661
-0.110023
-0.120294
-0.150588
-0.150905
-0.126244
-0.131674
-0.142014
-0.142398
-0.132715
-0.128009
-0.128213
-0.118371
-0.133597
-0.148846
-0.149118
-0.124367
-0.104593
-0.114751
-0.139887
-0.145068
-0.120226
-0.105339
-0.105498
-0.110701
-0.105928
-0.106131
-0.106244
-0.101357
-0.0865158
-0.0716968
-0.0768778
-0.0820362
-0.0671946
-0.0523303
-0.0524661
-0.0675792
-0.0477149
-0.0278733
-0.0180317
-0.0231674
-0.0132806
0.00160632
0.00647057
0.0113122
0.0361312
0.0560633
0.0860407
0.0959955
0.106018
0.131131
0.166335
0.171584
0.196878
0.237285
0.267715
0.2881
0.298507
0.338914
0.374321
0.379728
0.400158
0.425611
0.466041
0.476493
0.4719
0.492217
0.507443
0.50267
0.472783
0.472715
0.487647
0.447466
0.427195
0.356923
0.316652
0.286244
0.245724
0.195226
0.149842
0.124434
0.0840272
0.0435973
0.0332127
0.0128281
-0.0125339
-0.0277828
-0.0380769
-0.0485747
-0.0544118
-0.0708824
-0.0778054
-0.0598642
-0.0764027
-0.0915385
-0.0895023
-0.0747738
-0.0722851
-0.0683032
-0.0657466
-0.0465385
-0.0251584
-0.0352489
-0.0363575
-0.0328281
-0.029095
-0.0500453
-0.0556109
-0.0559276
-0.0360634
-0.0312896
-0.0413801
-0.0463575
-0.0313349
-0.0463349
-0.0612896
-0.0360407
-0.0257919
-0.0256787
-0.0505656
-0.0654073
-0.060181
-0.0649774
-0.0697964
-0.0796833
-0.0645702
-0.0544797
-0.0542987
-0.0688009
-0.0779186
-0.0817647
-0.0904525
-0.0893213
-0.069276
-0.0711765
-0.0857466
-0.0931901
-0.107873
-0.117986
-0.129321
-0.132172
-0.133032
-0.122851
-0.116991
-0.126018
-0.135271
-0.134796
-0.124525
-0.124231
-0.133824
-0.128348
-0.112919
-0.122443
-0.131878
-0.126244
-0.115588
-0.134819
-0.148959
-0.127964
-0.121923
-0.120815
-0.124661
-0.113348
-0.106991
-0.125453
-0.128801
-0.117059
-0.105226
-0.0983258
-0.0962896
-0.104095
-0.101833
-0.099457
-0.0920136
-0.0945023
-0.0919683
-0.0793891
-0.0817873
-0.0941403
-0.0764932
-0.0489819
-0.0664706
-0.0739593
-0.0666516
-0.0594344
-0.0675792
-0.0659955
-0.0495928
-0.0383484
-0.0573303
-0.0665611
-0.0659503
-0.0505204
-0.0502715
-0.0451584
-0.0552489
-0.0654752
-0.0557693
-0.0512218
-0.0268326
0.0124434
0.031561
0.0355203
0.0295022
0.0433258
0.0519909
0.050543
0.0439819
0.0523303
0.0556108
0.0437783
0.0369231
0.05
0.0729864
0.0459049
0.0137556
0.00658369
0.00936649
-0.017896
-0.065181
-0.087353
-0.0943665
-0.10629
-0.118122
-0.144729
-0.156222
-0.177557
-0.183597
-0.164457
-0.165091
-0.165679
-0.176222
-0.171584
-0.156833
-0.156968
-0.172036
-0.166946
-0.161765
-0.211538
-0.306267
-0.391109
-0.430995
-0.365815
-0.110566
0.319751
0.904955
1.54516
2.04041
2.13566
1.30586
0.551018
0.126267
-0.108484
-0.263281
-0.273077
-0.207873
-0.147692
-0.117557
-0.102443
-0.107285
-0.112127
-0.106968
-0.106742
-0.111538
-0.12138
-0.121199
-0.120973
-0.120814
-0.120747
-0.120588
-0.125385
-0.110113
-0.109819
-0.114525
-0.129186
-0.113869
-0.103552
-0.103235
-0.107851
-0.0974208
-0.0969683
-0.106561
-0.111176
-0.100747
-0.0752036
-0.0696832
-0.084276
-0.0687783
-0.0632579
-0.0677828
-0.0672624
-0.0666289
-0.0510633
-0.0454525
-0.0448642
-0.0343665
-0.0138235
-0.00323528
-0.00764705
-0.00703619
0.00352942
0.0140724
0.0146154
0.015181
0.035724
0.0613348
0.0669005
0.0673756
0.0929864
0.118643
0.139412
0.160339
0.191312
0.20733
0.228439
0.249548
0.275679
0.311855
0.328009
0.339208
0.360339
0.381471
0.41767
0.428824
0.445068
0.466267
0.477376
0.468416
0.474434
0.480362
0.476177
0.446923
0.417579
0.393167
0.358801
0.319299
0.269683
0.23
0.200339
0.150769
0.116176
0.0914253
0.0565385
0.0266516
-0.00330317
-0.0283937
-0.048552
-0.0586651
-0.0687783
-0.0942081
-0.0801357
-0.0764479
-0.102896
-0.119004
-0.113891
-0.0868552
-0.0922398
-0.0946833
-0.0897285
-0.0692308
-0.0574887
-0.0741855
-0.0726471
-0.0521041
-0.0471267
-0.0571041
-0.0616969
-0.050905
-0.0349548
-0.0439367
-0.0530091
-0.0470815
-0.046086
-0.0500905
-0.0491177
-0.0481674
-0.0472398
-0.0513122
-0.0454299
-0.0445249
-0.0485973
-0.0625792
-0.071086
-0.0591403
-0.061991
-0.0749548
-0.0788009
-0.0693892
-0.0756335
-0.0864254
-0.0995476
-0.107783
-0.108575
-0.121063
-0.141493
-0.140792
-0.114412
-0.122941
-0.131629
-0.135588
-0.129706
-0.128801
-0.132851
-0.151878
-0.140814
-0.114661
-0.133462
-0.142285
-0.126109
-0.119842
-0.128597
-0.132353
-0.131018
-0.119638
-0.113348
-0.122036
-0.120588
-0.109027
-0.127489
-0.130882
-0.129163
-0.12233
-0.110385
-0.113416
-0.136471
-0.119299
-0.111991
-0.119661
-0.117262
-0.114706
-0.0920588
-0.0993891
-0.116719
-0.0888914
-0.0809955
-0.0930769
-0.100158
-0.087172
-0.0742081
-0.0763122
-0.0934389
-0.0956335
-0.0780316
-0.070543
-0.0882579
-0.0811765
-0.0642534
-0.0675565
-0.0761538
-0.075
-0.0691176
-0.0334615
-0.0130769
-0.00796378
0.0219683
0.0517421
0.0512896
0.0455883
0.0497512
0.0688236
0.0826471
0.0813349
0.0699774
0.0584842
0.0417421
0.0449548
0.0582127
0.0464027
0.00945705
-0.0176018
-0.0195927
-0.0164932
-0.0534615
-0.0704977
-0.102398
-0.12414
-0.145792
-0.172308
-0.178665
-0.179706
-0.165566
-0.171357
-0.182036
-0.182557
-0.182919
-0.1881
-0.183235
-0.183258
-0.173235
-0.177919
-0.18267
-0.207489
-0.297285
-0.397059
-0.446787
-0.436471
-0.226199
0.16905
0.314321
1.31459
1.83982
1.86509
1.31529
0.580453
0.135633
-0.0891855
-0.233982
-0.268778
-0.218643
-0.153439
-0.123348
-0.128303
-0.138213
-0.128122
-0.1431
-0.163077
-0.162919
-0.137783
-0.127738
-0.152647
-0.147557
-0.137511
-0.147421
-0.157285
-0.137081
-0.121855
-0.126674
-0.146448
-0.141244
-0.131131
-0.130973
-0.135792
-0.140633
-0.115407
-0.0950905
-0.124977
-0.134842
-0.114638
-0.094457
-0.114253
-0.124072
-0.108801
-0.0885973
-0.0884389
-0.09319
-0.0829412
-0.0626697
-0.0673982
-0.072172
-0.0518778
-0.0415385
-0.0312896
-0.016086
-0.0208824
-0.000610873
0.00961541
0.00484163
0.00502263
0.0302489
0.0554525
0.0656561
0.0808371
0.116244
0.141765
0.152353
0.158032
0.183801
0.219593
0.240362
0.251109
0.281968
0.327941
0.343914
0.349864
0.390724
0.406516
0.422353
0.428213
0.448982
0.469683
0.465317
0.450928
0.446493
0.461855
0.45224
0.422489
0.392602
0.357602
0.332511
0.277443
0.227353
0.20224
0.182195
0.147149
0.107014
0.0668325
0.0566063
0.0313348
0.0158597
-0.044638
-0.0301584
-0.020724
-0.0414706
-0.0576471
-0.059276
-0.0761312
-0.0829412
-0.0838235
-0.0779865
-0.0815159
-0.0705204
-0.0771946
-0.05362
-0.0324435
-0.0443892
-0.0633937
-0.0683259
-0.0437784
-0.0393892
-0.0647286
-0.0446833
-0.0293892
-0.0390046
-0.0436426
-0.0482579
-0.0378507
-0.0426019
-0.0573756
-0.0470362
-0.0415611
-0.0362217
-0.0359502
-0.0506335
-0.060362
-0.0651584
-0.064819
-0.0642308
-0.0731222
-0.0569005
-0.0552715
-0.0689593
-0.0738914
-0.0658371
-0.0754525
-0.107919
-0.0976245
-0.0968326
-0.112828
-0.12043
-0.126154
-0.120792
-0.119728
-0.11362
-0.122828
-0.11733
-0.111968
-0.131629
-0.141244
-0.12086
-0.125452
-0.139955
-0.139457
-0.133846
-0.118145
-0.127489
-0.136765
-0.131018
-0.105294
-0.11957
-0.123756
-0.122805
-0.11181
-0.125724
-0.129502
-0.138235
-0.126946
-0.115566
-0.119095
-0.117489
-0.105837
-0.109163
-0.117353
-0.115385
-0.118326
-0.106244
-0.103982
-0.106697
-0.0943213
-0.0819005
-0.0993891
-0.106855
-0.0994343
-0.0820814
-0.0697511
-0.0874434
-0.0852036
-0.0730995
-0.0661765
-0.069457
-0.0778959
-0.0716289
-0.0506108
-0.0697737
-0.0791176
-0.0586425
-0.0484162
-0.0435067
-0.0287556
0.0157919
0.0302037
0.0292534
0.0332353
0.047172
0.0510181
0.0495476
0.0479413
0.0461992
0.0493214
0.0622851
0.0651811
0.0630091
0.0707693
0.0384163
0.0159729
-0.0313348
-0.023733
-0.0462669
-0.0787782
-0.0811764
-0.0934615
-0.115633
-0.142647
-0.169434
-0.175995
-0.172398
-0.193665
-0.179751
-0.175701
-0.176674
-0.197308
-0.192805
-0.173145
-0.173326
-0.173439
-0.168597
-0.178778
-0.218823
-0.338823
-0.383869
-0.468846
-0.388823
-0.113778
0.326222
0.911199
1.56622
2.08122
1.94124
1.22122
0.491177
0.0961539
-0.163891
-0.328982
-0.32414
-0.234253
-0.169389
-0.14457
-0.129728
-0.119887
-0.125068
-0.135226
-0.135452
-0.125633
-0.140792
-0.145928
-0.141041
-0.136199
-0.131335
-0.131471
-0.131516
-0.126606
-0.131674
-0.131719
-0.136742
-0.13181
-0.116855
-0.111968
-0.127104
-0.122149
-0.117172
-0.107149
-0.102149
-0.102195
-0.0921946
-0.0971267
-0.0971493
-0.0971041
-0.0870588
-0.0920588
-0.0970135
-0.0969457
-0.0819231
-0.0619456
-0.0619456
-0.0618777
-0.0417646
-0.0367194
-0.0366967
-0.026742
-0.0166967
-0.00662886
0.00341639
0.00841638
0.0235295
0.0435748
0.04862
0.0637105
0.0938463
0.118982
0.139231
0.154661
0.175136
0.205656
0.226244
0.22681
0.282376
0.312964
0.328575
0.354118
0.389706
0.410407
0.421177
0.441923
0.452692
0.488281
0.473824
0.479163
0.489502
0.479729
0.479819
0.459977
0.41
0.394932
0.359864
0.299683
0.259389
0.224118
0.19371
0.158326
0.147828
0.0822398
0.0565158
0.0257692
-0.00995481
-0.040724
-0.0415159
-0.0422851
-0.0731675
-0.0843213
-0.0860182
-0.0878508
-0.0900001
-0.111878
-0.107534
-0.0911765
-0.101901
-0.114706
-0.0902037
-0.0610861
-0.0601811
-0.0676245
-0.0667421
-0.0518553
-0.0376245
-0.0434164
-0.0487784
-0.0337783
-0.0336199
-0.0534164
-0.0582353
-0.0430543
-0.0328507
-0.0576698
-0.0625114
-0.0624209
-0.0523304
-0.0522173
-0.0670363
-0.0616517
-0.0561992
-0.0599322
-0.0685521
-0.0724662
-0.067534
-0.0746155
-0.0894345
-0.0920589
-0.0866291
-0.105837
-0.121855
-0.134593
-0.120566
-0.115498
-0.134842
-0.149186
-0.133778
-0.13862
-0.13862
-0.133643
-0.133597
-0.128529
-0.138439
-0.138348
-0.138145
-0.137919
-0.137647
-0.14233
-0.137059
-0.111742
-0.12638
-0.136018
-0.140611
-0.125158
-0.129683
-0.134118
-0.143462
-0.132851
-0.132149
-0.126312
-0.135407
-0.129389
-0.123303
-0.132149
-0.14095
-0.119706
-0.113416
-0.116855
-0.120226
-0.103529
-0.10672
-0.114706
-0.122692
-0.115747
-0.108643
-0.0964933
-0.104299
-0.102217
-0.0900906
-0.0829186
-0.0809277
-0.093982
-0.0721042
-0.0704526
-0.0940273
-0.0928734
-0.0720363
-0.0714028
-0.0609956
-0.0508146
-0.0208372
-0.000972956
0.00852932
0.017828
0.0318551
0.0406787
0.0441176
0.0424433
0.0556787
0.0736877
0.0715158
0.0541854
0.0367646
0.0543212
0.0567194
0.0490723
-0.01362
-0.00647064
-0.0043892
-0.0622399
-0.0749548
-0.0675566
-0.0951358
-0.13767
-0.16
-0.152082
-0.158982
-0.175701
-0.187172
-0.183462
-0.169774
-0.175928
-0.191878
-0.187624
-0.173303
-0.173914
-0.179525
-0.180023
-0.190339
-0.230679
-0.246109
-0.426516
-0.44681
-0.387104
-0.132534
0.307104
0.916765
1.55138
1.98597
1.89063
1.1902
0.469751
0.0892534
-0.136222
-0.266674
-0.257195
-0.20776
-0.153326
-0.118914
-0.104457
-0.125
-0.135588
-0.141176
-0.126719
-0.132195
-0.137692
-0.148235
-0.138846
-0.124434
-0.134977
-0.13543
-0.125837
-0.126244
-0.12681
-0.127353
-0.132805
-0.133213
-0.118688
-0.12414
-0.124615
-0.115091
-0.120543
-0.120973
-0.116403
-0.0968326
-0.087285
-0.0976923
-0.103054
-0.0884163
-0.0888009
-0.0891403
-0.0995249
-0.0799095
-0.0552715
-0.0706787
-0.071086
-0.0463801
-0.0367873
-0.0422172
-0.0425792
-0.0129185
-0.00319003
-0.00857463
-0.00893663
0.0257693
0.0504073
0.0599774
0.0645928
0.079276
0.0990271
0.108824
0.123733
0.138756
0.158846
0.188959
0.199095
0.254253
0.27948
0.299774
0.32
0.350294
0.385679
0.405973
0.411131
0.42638
0.441697
0.466991
0.487014
0.482014
0.482081
0.471946
0.441719
0.426471
0.416131
0.385701
0.345181
0.299615
0.253982
0.213281
0.172421
0.156403
0.115362
0.084276
0.0481222
0.00694571
-0.0141855
-0.0153167
-0.0315385
-0.0728281
-0.0841855
-0.0607014
-0.0622398
-0.094638
-0.107149
-0.084276
-0.095181
-0.103982
-0.100045
-0.0831222
-0.0741403
-0.0554525
-0.0548869
-0.0525566
-0.04181
-0.0420362
-0.0478507
-0.0536199
-0.0390724
-0.0392534
-0.0493213
-0.0443213
-0.0343665
-0.0294796
-0.0496833
-0.0648416
-0.0600452
-0.050181
-0.0353394
-0.0452715
-0.0496607
-0.043914
-0.0677828
-0.0770136
-0.0475339
-0.040181
-0.0705656
-0.0937783
-0.0986878
-0.102285
-0.10267
-0.100181
-0.116154
-0.116244
-0.11086
-0.120566
-0.12552
-0.115679
-0.120905
-0.126154
-0.126312
-0.121471
-0.116538
-0.126629
-0.141719
-0.126742
-0.12181
-0.136855
-0.121878
-0.116787
-0.121629
-0.121561
-0.13638
-0.126131
-0.110905
-0.125656
-0.135317
-0.119887
-0.109412
-0.123824
-0.128167
-0.127557
-0.121923
-0.126154
-0.130317
-0.12448
-0.113552
-0.107511
-0.116244
-0.129932
-0.0985973
-0.0921493
-0.11052
-0.103824
-0.0871041
-0.0853394
-0.0935068
-0.091629
-0.0896607
-0.0726244
-0.0806787
-0.0888462
-0.0770588
-0.0604073
-0.0638462
-0.0824661
-0.0813122
-0.0603846
-0.0496833
-0.0493213
-0.0242308
0.0156109
0.0353167
0.0397511
0.0389367
0.0478507
0.0515385
0.0499321
0.0631222
0.0761991
0.0790272
0.0717421
0.059457
0.0670588
0.0695023
0.0418552
0.0242534
-0.00346155
-0.00117648
-0.0288688
-0.0515385
-0.0841177
-0.0965159
-0.103869
-0.136131
-0.1481
-0.14991
-0.151561
-0.173009
-0.179299
-0.170453
-0.171561
-0.182421
-0.178213
-0.163869
-0.159457
-0.154932
-0.175339
-0.180634
-0.220792
-0.325973
-0.366154
-0.451312
-0.361584
-0.0769005
0.392941
0.997851
1.61762
1.99233
1.71701
1.0017
0.366425
0.0362217
-0.164005
-0.269276
-0.244525
-0.169819
-0.115091
-0.110362
-0.110679
-0.116018
-0.116403
-0.136765
-0.142104
-0.122443
-0.112851
-0.1181
-0.123348
-0.10371
-0.11905
-0.139389
-0.119661
-0.114864
-0.120113
-0.120339
-0.125475
-0.110747
-0.106086
-0.10629
-0.126403
-0.126629
-0.0968779
-0.0920589
-0.107262
-0.107511
-0.0876471
-0.0777828
-0.0929412
-0.0880317
-0.0730995
-0.0583032
-0.0634389
-0.0735068
-0.0535747
-0.0386199
-0.0435973
-0.0436425
-0.0386651
-0.0336199
-0.0286651
-0.0137556
0.0111539
0.0111312
0.011086
0.0160634
0.0461539
0.0661991
0.0761086
0.0811086
0.111086
0.131154
0.146357
0.161674
0.182059
0.207579
0.233122
0.243733
0.289344
0.33491
0.345543
0.361267
0.376968
0.40267
0.428371
0.434095
0.444819
0.46043
0.475973
0.46638
0.461833
0.467127
0.44733
0.417489
0.402534
0.382534
0.327489
0.292376
0.252172
0.202081
0.18181
0.151403
0.130928
0.0804072
0.0747738
0.049095
0.0133937
-0.0273982
-0.0380769
-0.0538461
-0.0697511
-0.0758824
-0.0824434
-0.0841403
-0.0862896
-0.0881448
-0.0936651
-0.096991
-0.0873077
-0.0797738
-0.060543
-0.0474434
-0.0474887
-0.055362
-0.0646607
-0.0547285
-0.0552263
-0.0555204
-0.0654299
-0.0550453
-0.049638
-0.0492534
-0.0389367
-0.0385747
-0.0383032
-0.0480543
-0.0477602
-0.0673982
-0.0620136
-0.0517647
-0.0414027
-0.0357919
-0.0551131
-0.0686652
-0.0721267
-0.0661086
-0.0715385
-0.0592308
-0.0596606
-0.083009
-0.102941
-0.101833
-0.107081
-0.124072
-0.114502
-0.10905
-0.138077
-0.132127
-0.116448
-0.126109
-0.14095
-0.125724
-0.110362
-0.12
-0.139706
-0.139389
-0.138937
-0.123462
-0.137986
-0.152579
-0.132127
-0.106584
-0.11595
-0.140226
-0.12457
-0.114005
-0.143439
-0.15267
-0.12181
-0.120928
-0.104977
-0.123914
-0.127873
-0.111742
-0.105475
-0.129231
-0.132919
-0.136425
-0.129842
-0.118122
-0.11629
-0.119389
-0.107398
-0.110362
-0.118326
-0.111199
-0.104005
-0.101719
-0.0994796
-0.0922172
-0.095
-0.0827828
-0.0806561
-0.0986652
-0.0818326
-0.0751131
-0.0935973
-0.0873982
-0.0664027
-0.0906109
-0.0701584
-0.0448643
-0.0197511
-0.00977376
0.00486426
0.0192987
0.0385068
0.0625339
0.0411539
0.0395249
0.0627828
0.0709276
0.058914
0.0467195
0.059457
0.0821267
0.0696833
0.0521493
-0.0104751
-0.0230317
-0.0256108
-0.0532353
-0.0757692
-0.08819
-0.10552
-0.137873
-0.15
-0.171946
-0.18371
-0.195249
-0.196561
-0.192692
-0.183756
-0.194502
-0.195158
-0.195679
-0.186063
-0.191357
-0.201719
-0.177014
-0.182149
-0.252195
-0.287217
-0.437308
-0.45233
-0.34233
-0.0224434
0.472353
1.09231
1.74235
2.09226
1.84206
1.03695
0.346946
0.00678735
-0.203462
-0.31871
-0.29405
-0.224321
-0.164548
-0.119842
-0.120204
-0.135475
-0.140701
-0.136041
-0.121425
-0.136787
-0.147172
-0.147466
-0.127783
-0.133122
-0.148416
-0.153597
-0.148778
-0.134072
-0.114276
-0.109457
-0.124774
-0.125023
-0.120136
-0.130271
-0.125385
-0.100543
-0.105679
-0.120747
-0.0957919
-0.0859502
-0.101154
-0.11138
-0.0965837
-0.0767194
-0.0818099
-0.0869231
-0.0819231
-0.0569004
-0.0519909
-0.0621493
-0.0722172
-0.0472851
-0.0373529
-0.0374208
-0.0425113
-0.0175339
-0.00753394
-0.00262444
0.00730769
0.0323303
0.0473077
0.0572172
0.062172
0.0870815
0.102104
0.112149
0.122285
0.147511
0.187873
0.213303
0.218756
0.269344
0.314955
0.32552
0.336086
0.366697
0.402376
0.417986
0.433597
0.459299
0.475
0.490656
0.481018
0.486312
0.506652
0.491923
0.462127
0.432195
0.427217
0.387172
0.346991
0.306697
0.24638
0.206041
0.170701
0.155385
0.0950905
0.0747738
0.044457
0.00395926
-0.0166516
-0.0222851
-0.0329638
-0.0586199
-0.0693213
-0.0703846
-0.0766969
-0.108778
-0.121018
-0.092715
-0.0778959
-0.0957692
-0.105837
-0.0830091
-0.0585747
-0.0601584
-0.0803394
-0.0585294
-0.0281674
-0.023733
-0.0347285
-0.0455204
-0.0408371
-0.0358371
-0.0356335
-0.0403846
-0.0350679
-0.0197511
-0.0295022
-0.0341855
-0.0288914
-0.0336425
-0.0433936
-0.0531222
-0.0429185
-0.0427602
-0.0525339
-0.0523303
-0.0569457
-0.0510633
-0.0496833
-0.0732353
-0.0718552
-0.0662896
-0.0574887
-0.0713348
-0.0878733
-0.0967195
-0.105905
-0.112557
-0.110792
-0.111787
-0.111833
-0.116199
-0.125385
-0.124751
-0.139367
-0.149118
-0.133869
-0.113575
-0.128303
-0.127964
-0.127557
-0.122059
-0.121516
-0.126041
-0.130498
-0.129864
-0.119163
-0.133394
-0.142624
-0.121855
-0.110995
-0.125023
-0.129027
-0.107986
-0.101878
-0.110724
-0.124434
-0.123009
-0.106493
-0.109932
-0.133145
-0.121222
-0.0942534
-0.0922398
-0.115045
-0.107805
-0.0905204
-0.0830996
-0.0905656
-0.0930769
-0.0855656
-0.0780317
-0.0854525
-0.0928959
-0.0954977
-0.0732353
-0.076086
-0.0890045
-0.0671493
-0.0605204
-0.0641855
-0.0682579
-0.0675792
-0.0670588
-0.0616063
-0.0665158
-0.0666063
-0.0268778
0.0076697
0.00694571
0.00608598
0.0251358
0.0289819
0.0375792
0.0561086
0.0745928
0.0927828
0.0808371
0.0638914
0.0469231
0.044819
0.0525566
0.0452263
0.0178733
0.00547513
-0.0219457
-0.0443665
-0.0516742
-0.0738461
-0.0959729
-0.133077
-0.145045
-0.146787
-0.158462
-0.189796
-0.195928
-0.176833
-0.177579
-0.188213
-0.188756
-0.189186
-0.174502
-0.164729
-0.169864
-0.18991
-0.17991
-0.204887
-0.29491
-0.399842
-0.429683
-0.414661
-0.229751
0.150204
0.740317
1.36045
1.86552
1.9255
1.39048
0.645475
0.135543
-0.084457
-0.21948
-0.239457
-0.20448
-0.154593
-0.119819
-0.0949774
-0.100068
-0.105181
-0.130385
-0.120498
-0.130566
-0.140724
-0.130905
-0.120973
-0.131041
-0.141131
-0.146154
-0.121199
-0.106312
-0.11638
-0.136403
-0.116448
-0.111493
-0.116448
-0.11638
-0.121335
-0.111267
-0.106176
-0.111063
-0.11095
-0.0959276
-0.0958371
-0.0956787
-0.105543
-0.0805882
-0.0755656
-0.0904525
-0.0903393
-0.065181
-0.0550226
-0.0698416
-0.0746154
-0.049457
-0.0293439
-0.0292308
-0.034095
-0.0239593
-0.0138461
-0.0037104
0.0214254
0.0516063
0.0667873
0.0669683
0.0671267
0.0873982
0.107624
0.117783
0.118077
0.158575
0.18414
0.194729
0.215339
0.260973
0.276652
0.282466
0.318348
0.339321
0.370317
0.391199
0.401923
0.42267
0.453462
0.474253
0.474977
0.455611
0.476199
0.481719
0.457195
0.437557
0.422828
0.397986
0.3531
0.338077
0.258009
0.217851
0.182715
0.13767
0.107647
0.0926018
0.0625565
0.0274887
-0.00257921
-0.012534
-0.0324887
-0.0526245
-0.0577376
-0.0529186
-0.0684842
-0.0895023
-0.0856788
-0.0617421
-0.0669457
-0.0904525
-0.101312
-0.0893892
-0.0601358
-0.0505883
-0.0486199
-0.0551358
-0.0389819
-0.0339367
-0.0496154
-0.0503846
-0.0310181
-0.0213801
-0.0465837
-0.0467421
-0.0220136
-0.017353
-0.0378507
-0.0483032
-0.0237104
-0.0191177
-0.049457
-0.0547059
-0.0498869
-0.0550226
-0.0651584
-0.0601132
-0.0498869
-0.0495476
-0.0592082
-0.0638236
-0.0633258
-0.0627376
-0.0671267
-0.0866516
-0.0911539
-0.080543
-0.0849321
-0.0893665
-0.0937104
-0.0830091
-0.0772851
-0.0616968
-0.0710181
-0.0752941
-0.0695928
-0.0881448
-0.091267
-0.089276
-0.0928507
-0.0878733
-0.0900905
-0.0999321
-0.0925792
-0.10681
-0.124434
-0.113507
-0.109706
-0.124389
-0.128009
-0.126131
-0.119367
-0.137896
-0.131674
-0.115475
-0.104163
-0.112783
-0.12629
-0.129706
-0.113032
-0.111222
-0.109186
-0.11724
-0.110249
-0.107986
-0.120679
-0.108258
-0.0857692
-0.0882127
-0.085543
-0.0878281
-0.095
-0.0821041
-0.0942761
-0.0964254
-0.0886199
-0.0808597
-0.0782579
-0.0857918
-0.0834615
-0.0513122
-0.0492081
-0.0575339
-0.0661312
-0.0647964
-0.0686199
-0.0726471
-0.0717873
-0.066086
-0.050543
-0.065181
-0.0698869
-0.0497059
-0.0446154
-0.0545475
-0.0595475
-0.0646833
-0.0599095
-0.0701358
-0.075362
-0.0706788
-0.0661087
-0.0616969
-0.0723983
-0.078077
-0.0437783
-0.0195249
-0.0154525
0.00855199
0.0325113
0.0313574
0.0349547
0.0234389
0.0219004
0.0352489
0.0534615
0.0616289
0.0697737
0.0677828
0.0456108
0.033371
0.0261086
0.013733
-0.0136878
-0.0362218
-0.0438009
-0.0612444
-0.0886426
