ekg
0
-0.0183333
-0.038
-0.0871428
-0.0333333
0.0695455
0.111154
0.0693333
-0.00352939
-0.0328947
-0.0297619
-0.0423913
-0.0324
0.0161111
0.00258621
0.0101613
0.0393939
-0.00214287
-0.00324324
-0.000897437
-0.0296341
-0.0174419
0.0381111
0.11234
0.121837
0.107745
0.0812264
0.0837273
0.0151754
-0.0115254
0.0436066
0.0848413
0.147154
0.217015
0.198696
0.170986
0.177466
0.1742
0.131104
0.110886
0.0862963
0.0783132
0.0817059
0.0903449
0.113933
0.117692
0.121828
0.0907895
0.111289
0.171111
0.174059
0.0363593
0.135571
0.273925
0.439679
0.594369
0.717788
0.735261
0.474103
0.0997059
-0.213058
-0.473008
-0.7168
-0.948386
-1.07233
-1.17103
-1.16455
-1.13652
-1.12843
-1.08011
-1.0061
-0.907273
-0.868069
-0.923878
-0.959027
-0.969404
-1.01471
-0.820387
-0.691561
-0.642987
-0.579658
-0.521687
-0.468758
-0.421647
-0.298254
-0.180585
-0.14711
-0.150943
-0.164661
-0.163715
-0.157486
-0.163197
-0.188811
-0.208048
-0.121799
-0.011178
0.0220985
0.00202564
0.0761929
0.135176
0.149154
0.158744
0.254732
0.391015
0.422727
0.448223
0.542582
0.636233
0.718986
0.754475
0.797534
0.853801
0.909186
0.969027
0.968394
0.937896
0.907806
0.867692
0.832511
0.81767
0.743258
0.648846
0.619005
0.609095
0.554434
0.529548
0.389412
0.319186
0.283597
0.277783
0.306652
0.305181
0.263597
0.196878
0.169751
0.182262
0.174796
0.167285
0.154548
0.111199
0.107692
0.119276
0.115905
0.0826471
0.0893892
0.10095
0.0624661
0.0241403
0.0310634
0.0381448
0.0402037
0.0272172
0.0295023
0.0471267
0.0599548
0.0780091
0.101312
0.109977
0.108756
0.107828
0.15224
0.166629
0.155339
0.139548
0.194457
0.255204
0.226765
0.153643
0.130905
0.17767
0.243281
0.207579
0.0804751
-0.0728733
-0.11733
-0.117466
-0.117896
-0.0929412
-0.107783
-0.157715
-0.11767
-0.0123756
0.0683937
0.0542987
-0.030181
-0.100023
-0.149932
-0.174909
-0.188937
-0.177511
-0.0859276
0.0259955
0.1481
0.320407
0.503009
0.571154
0.414955
0.158846
-0.112308
-0.42819
-0.528869
-0.979525
-1.13536
-1.21122
-1.23195
-1.24231
-1.30722
-1.35201
-1.33201
-1.26676
-1.20645
-1.15602
-1.11518
-1.08371
-1.06665
-1.03455
-0.947851
-0.825928
-0.683869
-0.542036
-0.445996
-0.360882
-0.250905
-0.159615
-0.0616063
-0.0225113
-0.00753393
0.0432579
0.0298643
-0.102828
-0.214774
-0.201516
-0.108733
-0.0661991
-0.0586652
-0.0113122
0.0607466
0.122081
0.172986
0.228507
0.303937
0.349208
0.384163
0.468507
0.632149
0.720249
0.702738
0.684502
0.74595
0.832353
0.858348
0.888959
0.899502
0.905068
0.940611
0.931199
0.886629
0.836787
0.75681
0.656855
0.626765
0.601606
0.52629
0.450882
0.415317
0.389706
0.339027
0.263122
0.20681
0.165385
0.154027
0.167602
0.185701
0.183258
0.17552
0.167896
0.155204
0.222036
0.168213
0.0292082
-0.0793213
-0.0923077
-0.0352715
0.00131225
0.0172625
0.0431901
0.00968326
-0.0684389
-0.0863122
-0.0591629
-0.00714932
0.0107466
0.00416291
0.0130317
0.0420362
0.0858824
0.0897059
0.0585068
0.0423756
0.0713122
0.085362
0.0749095
0.0950453
0.105815
0.0923982
0.0998416
0.0777376
0.0950453
0.101222
0.026086
-0.0204751
-0.0223982
0.00861992
-0.0162444
-0.0715158
-0.0719005
-0.0674887
-0.0634163
-0.0394796
-0.0204751
0.018733
-0.00178734
-0.096991
-0.157014
-0.167036
-0.162149
-0.062172
-0.03181
0.0191176
0.140679
0.343032
0.585769
0.668665
0.432036
0.110882
-0.129819
-0.355204
-0.565407
-0.785294
-0.975181
-1.15568
-1.27686
-1.26812
-1.24387
-1.2541
-1.26905
-1.22873
-1.20817
-1.18229
-1.13118
-1.11489
-1.04846
-0.976923
-0.880339
-0.788462
-0.690611
-0.537489
-0.380204
-0.313891
-0.313145
-0.262602
-0.177149
-0.145882
-0.148597
-0.170362
-0.166629
-0.111244
-0.0800453
-0.0780543
-0.0657466
-0.0185294
0.00893665
0.0417873
0.0742534
0.135995
0.16724
0.208145
0.288643
0.393756
0.423348
0.412081
0.475452
0.59914
0.713054
0.766629
0.799434
0.876425
0.952805
1.02425
1.04025
0.980543
0.92543
0.885249
0.860181
0.850249
0.815453
0.695701
0.615724
0.590769
0.575905
0.560633
0.410068
0.404163
0.3881
0.347104
0.301063
0.239977
0.198665
0.162149
0.13543
0.123439
0.105973
0.0881448
0.0702489
0.0621041
0.0538009
0.0202715
-0.00864255
-0.0177149
-0.0018326
-0.00619911
-0.0303846
-0.0295249
0.00660633
0.0180543
0.0196606
0.0515837
0.0585746
0.0408371
0.0434841
0.0613575
0.0595475
0.037828
0.0358145
0.0638235
0.0970135
0.105407
0.104548
0.0989593
0.0986878
0.0640271
0.0754525
0.128077
0.136357
0.123643
0.119299
0.0838009
0.0523982
0.0250905
0.00180993
-0.00735296
0.0175565
0.0368778
0.0012217
-0.0843891
-0.150339
-0.176516
-0.172172
-0.192557
-0.202941
-0.198122
-0.16319
-0.1531
-0.137715
-0.126991
-0.185905
-0.164072
-0.0015837
0.191471
0.374615
0.502511
0.545656
0.394502
0.178597
-0.0272398
-0.102828
-0.47819
-0.70319
-0.928145
-1.07821
-1.15819
-1.24278
-1.35262
-1.34272
-1.2574
-1.18149
-1.13038
-1.08919
-1.07774
-1.01584
-0.863756
-0.791561
-0.844253
-0.871674
-0.793801
-0.626471
-0.449977
-0.323891
-0.267624
-0.215452
-0.192081
-0.203077
-0.193235
-0.152104
-0.134909
-0.13681
-0.108281
-0.0799774
-0.151719
-0.17862
-0.0506561
0.0772398
0.179299
0.21595
0.217285
0.263394
0.324321
0.384751
0.404661
0.43914
0.533213
0.656742
0.729593
0.766697
0.833326
0.854661
0.910769
0.971584
1.02201
1.0371
1.01735
0.932715
0.923054
0.898235
0.808348
0.723462
0.658575
0.653778
0.603959
0.549118
0.524321
0.499434
0.464118
0.438462
0.377647
0.331787
0.295724
0.234276
0.207624
0.190701
0.178258
0.140294
0.117081
0.0539367
0.035724
0.0724887
0.0843439
0.0559502
0.0422172
0.0334615
0.0350452
0.0569457
0.0641855
0.0665837
0.0788688
0.14086
0.17371
0.0965837
0.0543439
0.0773529
0.0806787
0.0685973
0.0966289
0.100656
0.12086
0.13138
0.0613575
0.0661312
0.0965611
0.143145
0.200679
0.19871
0.131968
0.109593
0.0911765
0.0120362
-0.0372625
-0.0682806
-0.0555656
-0.038914
-0.0578959
-0.107059
-0.0367194
0.0380091
-0.0324434
-0.112715
-0.137624
-0.127195
-0.111629
-0.115995
-0.135113
-0.178552
-0.146787
-0.0904298
-0.0492081
0.117353
0.329751
0.493077
0.526674
0.39543
0.144548
-0.0562217
-0.296968
-0.622421
-0.882602
-1.09274
-1.22287
-1.29281
-1.36265
-1.35292
-1.33821
-1.33785
-1.3019
-1.21538
-1.15864
-1.14704
-1.15054
-1.099
-1.02215
-0.960113
-0.892941
-0.780407
-0.641968
-0.488054
-0.394887
-0.332738
-0.286154
-0.249661
-0.187715
-0.11448
-0.125724
-0.145158
-0.153846
-0.106584
-0.043371
-0.0197737
-0.00642531
0.0167874
0.0403168
0.0387557
0.0415611
0.0888236
0.190769
0.252443
0.293937
0.340045
0.425996
0.52681
0.576991
0.63672
0.756018
0.839548
0.90733
0.944638
0.966109
0.957263
0.933145
0.954389
1.00081
0.981991
0.887805
0.813529
0.769276
0.760204
0.756086
0.741855
0.492851
0.468507
0.503824
0.434276
0.359661
0.459819
0.474729
0.269548
0.0292308
-0.0262669
0.0379412
0.106357
0.124344
0.0621041
0.0349548
0.0530543
0.0459955
0.0332353
0.0449774
-0.00352938
-0.0474434
-0.0465837
0.00454751
0.0111991
-0.00158371
-0.0441403
-0.021991
0.000542998
0.0486199
0.0915158
0.0845023
0.0578507
0.0664254
0.0597964
0.0629186
0.0610634
0.0842761
0.118145
0.118009
0.118258
0.0999322
0.0724887
0.140453
0.163484
0.135973
0.132308
0.112489
0.0516742
0.0244797
0.0210634
0.00674215
-0.0233031
-0.0287782
-0.0195701
-0.0552941
-0.0859955
-0.101629
-0.136923
-0.161742
-0.141357
-0.0812896
-0.041448
-0.0612896
-0.0907014
-0.0948416
-0.0889593
-0.172647
-0.210543
-0.0125792
0.275905
0.41957
0.493303
0.452149
0.216267
0.115882
-0.304525
-0.555045
-0.775611
-1.01104
-1.18615
-1.21606
-1.25066
-1.32511
-1.35473
-1.26939
-1.17385
-1.12808
-1.10222
-1.08613
-1.05977
-1.06742
-1.06966
-0.986787
-0.909005
-0.82629
-0.663303
-0.529932
-0.441719
-0.314389
-0.257919
-0.156765
-0.220091
-0.282149
-0.232828
-0.152308
-0.120928
-0.0935972
-0.115633
-0.092466
-0.0442307
-0.0209728
0.0963576
0.103778
0.0413802
0.0886426
0.14991
0.201199
0.257579
0.298258
0.362783
0.441833
0.550747
0.654389
0.737489
0.764774
0.766516
0.797941
0.884027
0.969864
1.00563
1.01606
1.01631
0.926539
0.827059
0.722534
0.657783
0.677715
0.667647
0.627602
0.60276
0.50819
0.408213
0.372738
0.437285
0.491968
0.471448
0.415656
0.304887
0.144027
0.102579
-0.0443665
-0.0268551
0.0452263
0.0624661
0.0497059
0.051629
0.103371
0.0799548
0.056267
0.0625566
0.0489367
0.075362
0.0967421
0.0934616
0.085362
0.0928055
0.075362
0.0329186
0.0105204
0.0181222
0.0957466
0.138756
0.11733
0.096086
0.0949321
0.154072
0.168416
0.127262
0.0857918
0.0603846
0.0819683
0.114683
0.127624
0.129955
0.0910181
0.0817647
0.0808371
0.0737557
0.0804977
0.0611312
0.0262895
-0.0438462
-0.064344
-0.020362
-0.0264933
-0.0819458
-0.0968779
-0.0267647
-0.0265611
-0.0564479
-0.241471
-0.256448
-0.191425
-0.13129
-0.0659955
-0.0152036
-0.0235747
0.0736199
0.301018
0.508846
0.566968
0.425747
0.164457
-0.0968778
-0.382919
-0.668643
-0.954118
-1.13952
-1.19545
-1.21631
-1.23654
-1.28154
-1.32622
-1.33118
-1.32638
-1.1809
-1.08491
-1.08887
-1.13758
-1.12102
-1.06941
-0.972534
-0.840385
-0.69819
-0.576041
-0.479253
-0.388348
-0.318213
-0.272647
-0.241516
-0.208507
-0.204593
-0.189457
-0.193507
-0.166833
-0.119525
-0.0820362
-0.049638
-0.0221493
-0.00934386
-0.0163348
0.0761991
0.167896
0.178824
0.149593
0.205679
0.271991
0.297896
0.357941
0.49181
0.604932
0.706878
0.773326
0.80457
0.825724
0.866606
0.902127
0.917466
0.917602
0.897489
0.877421
0.857444
0.842466
0.767534
0.742896
0.593281
0.543303
0.532941
0.492308
0.471629
0.491109
0.470837
0.390407
0.33448
0.287715
0.220453
0.183303
0.211267
0.243982
0.206425
0.0528281
-0.0559728
-0.0348642
0.0562896
0.0974887
0.0633937
0.00909503
0.00990951
0.0461991
0.0527602
-0.0204525
0.0115158
0.0531674
0.0897511
0.0820588
0.0145928
-0.0079638
0.0248642
0.0283484
0.0618099
0.115294
0.0932579
0.0864253
0.139842
0.178484
0.14767
0.122353
0.127195
0.167466
0.198801
0.191018
0.148416
0.100158
0.0460181
0.0259276
0.029457
-0.00334842
-0.00242083
0.0775113
0.0721041
-0.0333711
-0.0739141
-0.0396154
0.0143439
-0.00678733
-0.122738
-0.188032
-0.157986
-0.167941
-0.198145
-0.153665
-0.144027
-0.103778
-0.0178959
0.0686426
0.170633
0.362873
0.560566
0.54871
0.507127
0.125837
-0.0653394
-0.336629
-0.607783
-0.868801
-1.11468
-1.22029
-1.18048
-1.21043
-1.32036
-1.39029
-1.38038
-1.29523
-1.15977
-1.05932
-1.07373
-1.1429
-1.10674
-1.02536
-0.923801
-0.796855
-0.679457
-0.546629
-0.423869
-0.381765
-0.330566
-0.244842
-0.148462
-0.120724
-0.0819231
-0.0771719
-0.101267
-0.0644796
-0.0420362
-0.0994118
-0.101584
-0.00418552
0.0732806
0.100543
0.0974887
0.078914
0.110136
0.196335
0.292738
0.464299
0.580226
0.620407
0.615498
0.635724
0.660317
0.868869
0.936018
0.987262
0.988439
0.979887
1.00622
1.04188
1.01697
0.907014
0.857195
0.792444
0.722217
0.727127
0.727444
0.617987
0.568575
0.538778
0.443778
0.37371
0.383394
0.353077
0.287624
0.231719
0.24552
0.259276
0.207715
0.150453
0.107805
0.110204
0.10276
0.115272
0.132579
0.134502
0.0657692
0.0113349
0.0270588
0.0333937
0.0248417
0.0562896
0.0730996
0.0654525
0.0577602
0.0449095
0.0723756
0.0854751
0.0488462
0.0468326
0.0647285
0.0583711
0.0622625
0.146199
0.160453
0.119774
0.109253
0.103914
0.123914
0.164706
0.156787
0.129842
0.117624
0.0853167
0.0916968
0.117624
0.0972851
0.0556335
0.0424208
0.0178281
-0.0525792
-0.0825566
-0.0722172
-0.0723303
-0.0578281
-0.0332127
-0.0183032
-0.0179185
-0.0872398
-0.09681
-0.111742
-0.146493
-0.136086
-0.0949095
-0.0878507
-0.0856787
-0.00821265
0.165023
0.383643
0.527263
0.416041
0.130113
-0.105679
-0.335701
-0.610769
-0.825996
-0.985905
-1.10072
-1.17109
-1.2264
-1.29109
-1.25541
-1.22452
-1.12844
-1.06265
-1.07697
-1.20057
-1.28857
-1.19097
-1.08819
-1.10036
-1.09742
-0.919412
-0.72129
-0.557172
-0.458439
-0.415385
-0.377602
-0.306312
-0.185
-0.107308
-0.0880317
-0.0726697
-0.0711538
-0.0291403
-0.0168778
-0.0539593
-0.0552941
-0.061629
-0.0331448
-0.000248849
0.0566742
0.122647
0.16362
0.25491
0.340996
0.406629
0.477059
0.592376
0.722376
0.786493
0.784887
0.793213
0.836177
0.873756
0.915837
1.01271
1.11416
1.06025
0.931267
0.877263
0.882783
0.887692
0.767557
0.678009
0.678824
0.649344
0.569661
0.495136
0.470543
0.43043
0.29991
0.239231
0.203756
0.183824
0.183824
0.193122
0.242195
0.255769
0.183959
0.0915158
0.0736878
0.121109
0.0986878
0.0056335
-0.0878281
-0.0811765
-0.0642534
0.017647
0.0745701
0.146357
0.0879185
-0.0152262
-0.0276471
-0.0147059
-0.0314706
-0.0129865
0.0154977
0.0489592
0.0874434
0.0963801
0.0902036
0.133801
0.0630995
-0.00733036
0.0822398
0.1469
0.0969004
0.0525339
0.104118
0.156742
0.189163
0.185747
0.0514479
0.0609502
0.0639593
0.0208597
0.0120362
0.0629412
0.038733
-0.0158371
-0.0309276
-0.0609729
-0.120973
-0.0856108
-0.0399321
-0.124366
-0.169412
-0.144955
-0.0801357
-0.06
-0.0999547
-0.105068
-0.114728
-0.133575
0.0135747
0.21138
0.269389
0.587489
0.605815
0.334661
-0.0409049
-0.391154
-0.69638
-0.871787
-0.996787
-1.13656
-1.30149
-1.4114
-1.4214
-1.32145
-1.20124
-1.06075
-1.04959
-1.14846
-1.1671
-1.12029
-1.05819
-1.01609
-0.993643
-0.850498
-0.7269
-0.703643
-0.625814
-0.522986
-0.39052
-0.338801
-0.307421
-0.275724
-0.238145
-0.219751
-0.115249
0.0605656
0.0974887
-0.0300679
-0.107511
-0.045
0.0373303
0.0246154
0.0118778
0.134276
0.251584
0.287873
0.253348
0.223394
0.258348
0.378303
0.423009
0.532579
0.641787
0.825385
0.903077
0.82
0.771878
0.878756
0.975158
0.975453
0.895204
0.859819
0.844638
0.854796
0.840498
0.750996
0.605928
0.530679
0.485226
0.45957
0.479163
0.488914
0.418643
0.313529
0.328394
0.347783
0.206968
0.190611
0.198688
0.182036
0.185339
0.217828
0.224864
0.137308
0.069819
-0.0329864
-0.0762217
-0.0453167
0.00552037
0.0314706
0.0273303
-0.0313575
-0.0795927
-0.0575792
-0.0106109
0.0113801
0.0285294
0.0406335
0.0330091
0.0408371
0.0487104
0.0667647
0.0802036
0.109186
0.113326
0.147285
0.221244
0.235272
0.174412
0.124253
0.120226
0.136787
0.159955
0.168077
0.114887
0.0600227
0.0637104
0.0958145
0.0370814
-0.0121493
-0.0270136
-0.0477149
-0.049095
-0.025724
-0.0619909
-0.0824661
-0.171968
-0.136516
-0.106719
-0.131923
-0.141946
-0.0819231
-0.0518099
-0.0864706
-0.130385
-0.0638688
0.0326697
0.0695702
0.181991
0.384774
0.552647
0.580634
0.32905
0.0178281
-0.283281
-0.569185
-0.809615
-1.04484
-1.16036
-1.15097
-1.14115
-1.21102
-1.28115
-1.33649
-1.35638
-1.26077
-1.1398
-1.07889
-1.07819
-1.07747
-1.01106
-0.929321
-0.832059
-0.764683
-0.651991
-0.494095
-0.432828
-0.452805
-0.437738
-0.281719
-0.149955
-0.0977602
-0.0546832
-0.0654751
-0.105204
-0.108959
-0.0767873
-0.0392986
0.0279186
0.0644797
0.0356787
0.0373756
0.0845249
0.0958824
0.115973
0.220928
0.31638
0.371154
0.430543
0.464977
0.544434
0.678303
0.736109
0.698145
0.734457
0.835453
0.925905
0.980792
1.00559
0.985679
0.965679
0.860475
0.815023
0.73957
0.699344
0.684299
0.624186
0.578914
0.558507
0.508009
0.417466
0.336742
0.280905
0.23
0.219072
0.2231
0.22172
0.200294
0.15862
0.151493
0.098801
0.0257014
-0.0126696
0.0136199
0.0298191
0.0207693
-0.0137104
0.0267874
0.0325792
0.0133032
0.00900456
0.0249322
0.0611991
0.10267
0.119457
0.0612896
-0.0166968
0.000294156
0.0426245
0.0202715
0.0229186
0.0707919
0.0891176
0.0578054
0.0314932
0.055181
0.0692534
0.0637104
0.0484389
0.0988462
0.130362
0.137602
0.0747512
0.0307693
0.0205204
0.0739141
0.136018
0.117398
0.0432579
-0.0262896
-0.0711765
-0.0713801
-0.0372398
-0.0186878
-0.0104751
-0.0173303
-0.0734163
-0.103937
-0.0993892
-0.0799548
-0.12052
-0.16095
-0.176109
-0.100543
0.00572399
0.0325566
0.304774
0.527127
0.619457
0.501719
0.33448
0.15776
-0.0736878
-0.339706
-0.565634
-0.796584
-1.09242
-1.30801
-1.32333
-1.22321
-1.1679
-1.25781
-1.34781
-1.2426
-1.06742
-1.02224
-1.11176
-1.101
-1.02977
-1.02796
-1.04606
-0.908959
-0.636335
-0.453575
-0.376584
-0.370045
-0.348416
-0.262036
-0.206176
-0.214615
-0.161719
-0.112828
-0.108416
-0.148235
-0.167421
-0.151493
-0.104321
-0.0419231
0.0108145
0.0338009
0.0614027
0.118167
0.169231
0.20491
0.245294
0.265498
0.39543
0.485091
0.559796
0.604276
0.682873
0.769955
0.845996
0.941742
0.967625
0.968167
1.00835
1.01848
0.98871
0.948891
0.90905
0.849321
0.758982
0.718552
0.67905
0.640136
0.585724
0.505656
0.470271
0.434548
0.41371
0.358371
0.323348
0.277851
0.246471
0.204683
0.187986
0.201018
0.178326
0.14009
0.0968552
0.103801
0.150792
0.147014
0.112738
0.108394
0.104548
0.0211086
-0.102172
-0.130543
-0.0490272
0.0273982
0.0989819
0.155973
0.173394
0.166018
0.0887556
0.0815611
0.124593
0.147828
0.146357
0.18009
0.198914
0.132851
0.0421267
0.0268778
0.0970362
0.128733
0.11638
0.149276
0.196629
0.213507
0.204729
0.150023
0.11414
0.0720814
0.034095
-0.000203649
-0.035543
-0.0761086
-0.0961538
-0.0858371
-0.0759276
-0.0863801
-0.0816063
-0.0711086
-0.0401584
-0.0196606
-0.0743665
-0.154186
-0.149163
-0.123846
-0.112738
-0.090543
0.0374661
0.17086
0.249299
0.392715
0.561606
0.430815
0.115
-0.125792
-0.346516
-0.56181
-0.776991
-0.842285
-1.13258
-1.24262
-1.36231
-1.43672
-1.40111
-1.30545
-1.22957
-1.19828
-1.18188
-1.15057
-1.08437
-1.0224
-1.04989
-1.03708
-0.844072
-0.555837
-0.392851
-0.360249
-0.357692
-0.260747
-0.184389
-0.202104
-0.173258
-0.148213
-0.152353
-0.170679
-0.00800905
0.0602262
-0.0914253
-0.193145
-0.13
-0.0523982
0.0445475
0.171425
0.183122
0.0845928
0.0707692
0.201425
0.372014
0.442624
0.452851
0.532376
0.691584
0.800588
0.854005
0.846606
0.843688
0.950679
1.01749
1.02389
0.970091
0.946357
0.897262
0.847353
0.807217
0.787715
0.758643
0.709751
0.640747
0.611561
0.587262
0.52267
0.447896
0.412964
0.373009
0.29319
0.238281
0.2031
0.207104
0.210453
0.14862
0.081629
0.0941177
0.131335
0.133801
0.0712896
0.0380769
0.00979639
0.00205883
0.0344796
0.0061086
-0.00219458
0.00999999
0.0422398
0.0245475
-0.00276019
-0.0046154
-0.0164706
0.0366742
0.0499774
-0.00649321
0.00210408
0.0561765
0.150317
0.184434
0.0989593
0.0590045
0.0893665
0.0896154
0.0804525
0.0769231
0.103643
0.0861312
0.0745701
0.0721946
0.118303
0.148643
0.0530543
-0.0188914
-0.0219683
-0.014819
-0.0338009
-0.0638688
-0.0847964
-0.0811086
-0.0771267
-0.0824887
-0.132692
-0.133348
-0.083914
-0.0493212
-0.0996606
-0.139344
-0.138145
-0.146697
-0.125068
0.012172
0.17
0.273416
0.431946
0.560724
0.394955
0.0595928
-0.235566
-0.456176
-0.676991
-0.95767
-1.17251
-1.23692
-1.26197
-1.27204
-1.20695
-1.14147
-1.16066
-1.15453
-1.12355
-1.11305
-1.03253
-1.0612
-1.09419
-1.04695
-0.904434
-0.816991
-0.789434
-0.691516
-0.548371
-0.420996
-0.349683
-0.308416
-0.246244
-0.197443
-0.207647
-0.201878
-0.135
-0.102986
-0.150136
-0.157059
-0.113937
-0.0207918
0.0474208
0.0752036
0.0721493
0.113529
0.199932
0.236674
0.213258
0.274276
0.359774
0.479751
0.539344
0.568439
0.676833
0.824548
0.872082
0.849661
0.89181
1.06299
1.06855
0.894027
0.824548
0.960091
0.910452
0.770837
0.731244
0.681742
0.581991
0.496923
0.511855
0.50681
0.481787
0.446719
0.466267
0.385611
0.319864
0.249095
0.168145
0.0815384
0.0243665
0.0721945
0.0701131
0.0627828
0.0848642
0.0561991
0.0121945
0.0581674
0.0747737
0.00162892
-0.0166064
0.064457
0.0949547
-0.0244344
-0.0680091
0.0593212
0.126968
0.134819
0.103032
0.0514253
0.0897511
0.217557
0.210362
0.203982
0.253281
0.167443
-0.0585068
-0.104502
0.0445022
0.193801
0.223869
0.124706
0.100995
0.142941
0.120588
0.0127827
-0.00635752
0.113145
0.146606
0.0889366
0.054638
0.0142081
-0.0114706
-0.122195
-0.107715
-0.127783
-0.11767
-0.0727828
-0.0379186
-0.043009
-0.0730996
-0.132873
-0.122715
-0.112624
-0.172557
-0.086991
0.0389819
0.0600905
0.0566063
0.213756
0.441358
0.554321
0.417579
0.0611312
-0.215317
-0.457036
-0.75371
-0.834819
-1.06072
-1.1317
-1.1726
-1.22821
-1.31342
-1.24833
-1.08814
-1.02799
-1.10758
-1.21674
-1.22075
-1.17491
-1.11396
-1.03267
-0.940837
-0.823756
-0.726403
-0.638733
-0.580905
-0.548529
-0.446968
-0.291131
-0.185091
-0.188507
-0.201561
-0.168959
-0.149412
-0.153643
-0.137376
-0.115566
-0.0687557
-0.0171493
-0.0107692
-0.0197738
0.0357466
0.0664253
0.102104
0.162624
0.243326
0.348982
0.430272
0.49595
0.585792
0.619887
0.603529
0.651538
0.779027
0.971267
1.02787
1.01887
0.874683
0.865339
0.915973
0.976448
1.03174
1.00681
0.836131
0.620294
0.525271
0.465747
0.39638
0.366561
0.381041
0.450747
0.456131
0.33138
0.221086
0.205724
0.194208
0.205928
0.197602
0.155633
0.124547
0.11319
0.115611
0.127195
0.0985973
0.0300226
-0.0137783
-0.0127376
-0.00640274
0.0199321
0.0959502
0.126765
0.112579
0.0938235
0.0352036
-0.00300908
0.018914
0.0459954
0.0542534
0.0726244
0.0806108
0.0885068
0.0715158
0.0498869
0.0985067
0.127036
0.121176
0.116109
0.121041
0.120882
0.146629
0.138575
0.116086
0.113077
0.158575
0.202941
0.191154
0.122805
0.099095
0.054457
0.0191402
-0.0164253
-0.0271267
-0.0379412
-0.0440045
-0.0543892
-0.0790045
-0.0986652
-0.109253
-0.110181
-0.0858597
-0.0860181
-0.0958824
-0.100588
-0.139729
-0.108235
-0.00126697
0.140905
0.293122
0.490837
0.614299
0.49819
0.241946
0.0256561
-0.270566
-0.591674
-0.84224
-1.00256
-1.0529
-1.10817
-1.1433
-1.04342
-0.943529
-1.00333
-1.03783
-0.982217
-1.10149
-1.15552
-1.3641
-1.30731
-1.20543
-1.09339
-0.941358
-0.799593
-0.687715
-0.605724
-0.488891
-0.392647
-0.301538
-0.244887
-0.306946
-0.283009
-0.153552
-0.062172
-0.00497739
-0.0026697
-0.0454978
-0.0784163
-0.0964254
-0.0192308
0.0929864
0.0896154
0.075905
0.106946
0.227421
0.297783
0.473213
0.643281
0.613032
0.467262
0.425679
0.518281
0.690158
0.851493
0.932443
0.90319
0.843846
0.859367
0.914751
0.950249
0.965769
0.981539
0.947489
0.833213
0.698688
0.628959
0.583959
0.563778
0.35362
0.368348
0.452896
0.447443
0.367036
0.301199
0.260158
0.224231
0.178145
0.13138
0.154072
0.17129
0.128122
0.0900453
0.0769683
0.0533937
0.0243665
-0.00443438
0.00733032
0.0544344
0.0513122
0.0282353
0.105407
0.117624
0.0897511
0.02681
0.144095
0.151833
0.0399095
-0.0319457
0.0613348
0.129774
0.118552
0.0625792
0.0765158
0.130475
0.119706
0.0741403
0.0539593
0.0643213
0.0853167
0.0769231
0.0692987
0.0823303
0.11
0.106652
0.122443
0.111719
-0.020543
-0.0689593
-0.0530769
-0.0323529
-0.0220136
-0.0318778
-0.051267
-0.0752036
-0.119344
-0.118688
-0.0929412
-0.077828
-0.0829412
-0.0940271
-0.0599321
-0.015362
0.00972851
0.0455882
0.0621267
0.159163
0.381629
0.564683
0.582919
0.316131
0.0195249
-0.151878
-0.207534
-0.577262
-0.781946
-0.977104
-1.16271
-1.23814
-1.27783
-1.39213
-1.42638
-1.28023
-1.13387
-1.07249
-1.071
-1.15439
-1.18269
-1.11018
-1.02176
-0.908846
-0.766855
-0.615272
-0.463575
-0.336765
-0.235136
-0.213643
-0.256833
-0.26405
-0.225045
-0.234729
-0.2031
-0.170249
-0.166425
-0.117217
-0.0683937
-0.0702036
-0.0370136
0.0361539
0.0690724
0.110588
0.176833
0.193371
0.199842
0.286199
0.317172
0.347715
0.417783
0.567443
0.686539
0.800181
0.888281
0.895317
0.886493
0.972398
1.06819
1.0638
0.984186
0.89948
0.885045
0.855905
0.761833
0.722828
0.713349
0.723665
0.668869
0.569706
0.490724
0.456267
0.411086
0.371063
0.30129
0.276199
0.300181
0.288801
0.227647
0.14629
0.094638
0.0827149
0.0852489
0.10233
0.129005
0.105634
0.0674435
0.0344797
0.00599549
0.0422625
0.0591177
0.0613575
0.0536652
0.0361312
0.0639593
0.0719457
0.0649548
0.063077
0.04681
0.0557466
0.0897059
0.108982
0.103462
0.107715
0.121968
0.116674
0.111946
0.0925566
0.0832579
0.0839593
0.0704525
0.0583711
0.116946
0.215226
0.232285
0.123213
-0.0215384
-0.101629
-0.0281221
0.124502
0.216063
0.12181
-0.0879638
-0.203371
-0.149434
-0.14043
-0.200317
-0.229525
-0.233846
-0.148213
-0.107873
-0.122964
-0.162647
-0.0916969
-0.0402489
0.00162894
0.063914
0.207059
0.405747
0.514389
0.413371
0.13776
-0.117647
-0.353054
-0.609027
-0.864932
-1.06568
-1.18629
-1.21681
-1.21201
-1.28186
-1.32136
-1.28557
-1.18457
-1.10833
-1.08717
-1.07627
-1.13011
-1.10837
-1.05145
-0.979502
-0.93276
-0.85052
-0.722398
-0.578643
-0.38
-0.222195
-0.170226
-0.163529
-0.146199
-0.117647
-0.0790271
-0.0838235
-0.14276
-0.170588
-0.0976244
0.0307692
0.0594118
0.0331675
0.0216742
-0.000203602
0.00226247
0.099276
0.16595
0.187353
0.253416
0.409661
0.510928
0.521448
0.56129
0.585679
0.629593
0.762896
0.885837
0.968552
0.970747
0.942647
0.91853
1.02912
1.0998
0.961018
0.74733
0.688507
0.674525
0.620294
0.601131
0.592195
0.552987
0.398597
0.31405
0.314299
0.274412
0.24957
0.29948
0.294005
0.233303
0.157489
0.111629
0.130362
0.148439
0.0709277
-0.0217873
0.0152263
0.0972399
0.0995476
0.0518553
0.0283937
0.0443892
-0.0195474
-0.0329637
0.00452495
-0.00237553
0.0354525
0.132534
0.159457
0.106878
0.00454757
-0.00280538
0.0799095
0.0877602
0.0661313
0.130023
0.109095
0.0532127
0.0526924
0.097353
0.15724
0.117444
0.123507
0.235905
0.183891
0.051086
-0.00303163
0.0318326
0.14052
0.147783
0.133756
0.0938915
0.109186
0.0750906
-0.0189592
-0.0738461
-0.0791855
-0.104163
-0.12862
-0.0532805
0.00674212
-0.0531674
-0.107805
-0.127195
-0.11181
-0.00624429
0.0245249
-0.0593665
-0.0929864
0.0139593
0.201968
0.375792
0.519977
0.474276
0.198778
0.103439
-0.331923
-0.537579
-0.813597
-1.08468
-1.22029
-1.28523
-1.29993
-1.29973
-1.31455
-1.2491
-1.18353
-1.1529
-1.1321
-1.12624
-1.19014
-1.16819
-1.01077
-0.918439
-0.895814
-0.838054
-0.710588
-0.623213
-0.551199
-0.404932
-0.359593
-0.169344
-0.13267
-0.17362
-0.247624
-0.241199
-0.199955
-0.163032
-0.115611
-0.0932352
-0.125814
-0.0633257
-0.0158597
0.011086
0.0723982
0.143575
0.159231
0.214819
0.31052
0.381018
0.406041
0.415385
0.489186
0.62767
0.760634
0.792715
0.838824
0.89457
0.925453
0.941222
1.00172
0.977263
0.882806
0.84276
0.797466
0.757489
0.727466
0.687579
0.613213
0.563869
0.524208
0.473575
0.432896
0.402692
0.377353
0.306674
0.255996
0.209819
0.20319
0.216425
0.209457
0.202421
0.154887
0.0570589
0.0343213
0.106018
0.116946
0.0828055
0.103937
0.160498
0.187127
0.168937
0.0107466
-0.157195
-0.165023
-0.0531674
0.00373305
-0.0444796
-0.0624434
0.0550905
0.143439
0.137195
0.0207466
-0.0154525
0.0886199
0.117579
0.116425
0.120226
0.184118
0.198507
0.158869
0.135045
0.10672
0.0889819
0.0612218
0.0524435
0.0934163
0.14733
0.160023
0.136357
0.0914932
0.0562444
0.0206561
-9.04649e-05
-0.0209954
-0.117353
-0.153348
-0.0833936
-0.0630769
-0.0680543
-0.0682127
-0.108824
-0.124615
-0.104751
-0.139367
-0.153824
-0.0531674
0.0930317
0.289638
0.531425
0.733756
0.721312
0.379864
-0.0362217
-0.397534
-0.634299
-0.811177
-1.02256
-1.14837
-1.19378
-1.22412
-1.24977
-1.28536
-1.32577
-1.27102
-1.24106
-1.16575
-1.17509
-1.14925
-1.10821
-1.06163
-0.984593
-0.907557
-0.815566
-0.678258
-0.555815
-0.428869
-0.307851
-0.252828
-0.222783
-0.207489
-0.234842
-0.211312
-0.137036
-0.0866742
-0.110204
-0.0980317
-0.0806787
-0.0884389
-0.0561312
-0.028733
0.0934616
0.105204
0.0916742
0.137805
0.198484
0.268756
0.363643
0.412986
0.447036
0.540837
0.619118
0.691878
0.763846
0.854932
0.925815
0.961471
0.921584
0.896335
0.911516
0.907127
0.85767
0.822941
0.787285
0.731109
0.710452
0.650385
0.675204
0.599615
0.468937
0.368507
0.343281
0.333054
0.227104
0.150792
0.194909
0.328801
0.372149
0.270113
0.127941
0.0206561
0.0278054
0.0897285
0.101222
0.0572172
0.0027828
-0.0416742
-0.025905
0.0351584
0.0565611
0.0481221
-0.00531677
0.00149318
0.0186425
0.0508823
0.132919
0.11457
-0.0338688
-0.0866969
-0.00377831
0.0395927
0.0733258
0.132149
0.140973
0.114977
0.098914
0.128145
0.132489
0.127308
0.158032
0.184887
0.182828
0.155882
0.112466
0.117195
0.135181
0.157149
0.0785294
-0.0208824
-0.0757014
-0.0808598
-0.0564706
-0.0221494
-0.0280091
-0.0495249
-0.0459729
-0.0668552
-0.136855
-0.132059
-0.092828
-0.153597
-0.238643
-0.23819
-0.162511
-0.101584
-0.00518098
0.131652
0.378959
0.651742
0.674819
0.63319
0.171697
-0.0498643
-0.31129
-0.591968
-0.882014
-1.07733
-1.14785
-1.16321
-1.25353
-1.32389
-1.31919
-1.26889
-1.24844
-1.20296
-1.12729
-1.10615
-1.06959
-0.99267
-0.930837
-0.859118
-0.747149
-0.634955
-0.50267
-0.400656
-0.374072
-0.247941
-0.111516
-0.0590498
-0.125158
-0.155023
-0.103959
-0.0519683
0.0060181
-0.0357693
-0.147715
-0.154457
-0.0611765
-0.00773759
0.00538458
0.0778959
0.12957
0.130837
0.181855
0.232262
0.247217
0.331991
0.456833
0.551516
0.650611
0.693891
0.781041
0.807443
0.873756
0.964932
1.03072
1.02624
1.01656
1.00681
0.947127
0.892353
0.852489
0.767398
0.662353
0.627353
0.657443
0.652715
0.642647
0.582081
0.441538
0.34086
0.264661
0.208281
0.19724
0.181629
0.165656
0.088733
0.166086
0.207986
0.204842
0.197104
0.159638
0.121833
0.103575
0.0952036
0.1169
0.103959
0.0565837
0.0188461
-0.0194118
0.00712666
0.0744344
0.0621719
0.0653393
0.168756
0.207195
0.110679
-0.0107466
0.0225113
0.17095
0.210023
0.0940271
0.057828
0.0819683
0.116652
0.146493
0.1719
0.193122
0.21052
0.204072
0.172602
0.160792
0.147036
0.137421
0.0417421
-0.0551584
-0.0282806
0.0176697
-0.0117647
-0.0414027
-0.0115837
-0.011923
-0.0322398
-0.0675113
-0.097828
-0.108032
-0.157783
-0.192036
-0.186199
-0.125294
-0.0741403
-0.0428054
-0.0211991
0.0256335
0.153077
0.336063
0.504412
0.47362
0.203371
-0.136855
-0.397466
-0.608258
-0.863665
-1.11857
-1.20324
-1.22303
-1.28812
-1.35324
-1.36301
-1.36762
-1.36226
-1.27638
-1.21018
-1.16428
-1.13326
-1.1067
-1.01989
-0.897941
-0.815611
-0.782783
-0.739615
-0.591674
-0.414072
-0.32724
-0.280837
-0.234208
-0.221855
-0.213507
-0.17405
-0.118235
-0.0664253
-0.0439593
-0.0361991
-0.0285068
-0.0107239
0.012172
0.0652715
0.133394
0.106312
0.0582127
0.178756
0.344276
0.425317
0.416538
0.337195
0.3969
0.596335
0.790747
0.900362
0.909299
0.852919
0.820204
0.891968
0.963326
0.944887
0.936652
0.878235
0.779389
0.785249
0.805973
0.801561
0.632353
0.568597
0.514661
0.460339
0.441041
0.4419
0.407624
0.412715
0.382715
0.288303
0.248643
0.212851
0.141652
0.100045
0.128371
0.101403
0.0595701
0.0476018
0.0655882
0.0928281
0.124186
0.0906109
0.0578507
0.0306562
0.0178281
-0.00592759
0.000497773
0.0129865
0.0411765
0.0689819
0.031629
0.0296833
0.0681222
0.0966742
0.115136
0.0887104
-0.00280541
0.0102715
0.0686425
0.072466
0.102059
0.151742
0.211516
0.206652
0.187647
0.134842
0.0728733
0.0906788
0.137421
0.152692
0.156697
0.114661
0.0464932
0.0373303
0.0127828
-0.0470588
-0.062353
-0.0579186
-0.0536878
-0.0497059
-0.105769
-0.136312
-0.0813801
-0.0661086
-0.145701
-0.195656
-0.150498
-0.119774
-0.143756
-0.127828
-0.04181
0.115068
0.3081
0.466697
0.505611
0.409728
0.183846
-0.0721041
-0.382941
-0.663529
-0.863824
-0.969027
-1.03919
-1.1643
-1.22423
-1.23885
-1.24805
-1.21201
-1.04654
-0.886448
-0.980837
-1.16934
-1.26249
-1.14543
-0.948462
-0.901222
-0.968303
-0.929887
-0.731131
-0.658009
-0.366425
-0.286199
-0.230973
-0.289299
-0.335882
-0.26595
-0.175204
-0.14914
-0.14724
-0.144276
-0.150656
-0.172624
-0.134842
-0.0372624
0.0701131
0.0827828
0.0250905
0.0515384
0.112828
0.13905
0.239638
0.379706
0.439502
0.558665
0.612059
0.710294
0.707851
0.759502
0.785588
0.941448
1.1021
1.07301
0.87905
0.744864
0.790181
0.900317
0.890475
0.705656
0.525724
0.585882
0.65629
0.571493
0.471697
0.417172
0.412557
0.382557
0.357172
0.416267
0.360204
0.324027
0.20733
0.220452
0.223552
0.191606
0.129434
0.0469909
0.0291629
0.045724
0.00714932
-0.011267
0.00542988
0.0222851
0.0140045
-0.0242987
-0.0275113
0.0146154
0.0465837
0.0386426
0.0710407
0.118824
0.131968
0.100045
0.0580317
0.026267
0.024819
0.128145
0.186357
0.180091
0.194253
0.243507
0.262873
0.217624
0.138145
0.0995023
0.0765837
0.0790045
0.091086
0.11224
0.122262
0.11586
0.0932353
0.0847511
0.0707466
0.0564253
0.0216289
-0.038552
-0.0889367
-0.0893892
-0.00468329
0.0207239
0.0167421
-0.0228733
-0.0337783
-0.10043
-0.171312
-0.181493
-0.14233
-0.0687783
-0.0440724
0.097828
0.375633
0.639593
0.708552
0.457489
0.0511086
-0.295769
-0.537262
-0.707941
-0.888213
-1.10339
-1.25387
-1.29473
-1.30579
-1.31661
-1.32674
-1.41131
-1.331
-1.17595
-1.13579
-1.15018
-1.10437
-1.02828
-1.00167
-0.929842
-0.797692
-0.730656
-0.603575
-0.442195
-0.326199
-0.255272
-0.17914
-0.19681
-0.253846
-0.23086
-0.142081
-0.106787
-0.12509
-0.112579
-0.0650226
-0.0478507
-0.0653167
-0.047466
-0.04
-0.0530317
0.0035973
0.115
0.180928
0.211357
0.26681
0.356561
0.480747
0.554276
0.61267
0.685701
0.733462
0.775475
0.806629
0.877262
0.9231
0.93362
0.923801
0.893982
0.884163
0.824299
0.79914
0.70371
0.683371
0.653326
0.588281
0.51319
0.443213
0.408348
0.403122
0.407353
0.356335
0.329796
0.308235
0.242195
0.181448
0.140747
0.13414
0.1369
0.12414
0.131154
0.127738
0.0886199
0.0643665
0.0404073
0.0315385
0.0324208
0.0183484
0.00447965
0.0111539
0.00828057
-0.0144344
0.00796382
0.0356561
0.0384842
0.0361991
0.0443439
0.0679638
0.111765
0.205498
0.274208
0.217602
0.255814
0.44405
0.507262
0.286177
-0.00414025
-0.133665
-0.0970588
-0.014276
0.0487557
0.0605204
0.120498
0.0992987
0.00235294
-0.070543
-0.0995023
-0.0445476
0.0195927
0.02819
-0.00325794
-0.0693439
-0.100272
-0.0767873
-0.0882127
-0.0989593
-0.14948
-0.179729
-0.149638
-0.134457
-0.134525
-0.0942308
-0.0232579
0.0579865
0.204774
0.337308
0.375249
0.483552
0.377466
0.206403
0.00479641
-0.306765
-0.597783
-0.798145
-0.988371
-1.18389
-1.27946
-1.29982
-1.29991
-1.29977
-1.28975
-1.26986
-1.22489
-1.14934
-1.06344
-1.0076
-0.906787
-0.815385
-0.783303
-0.73629
-0.64957
-0.618326
-0.512851
-0.402783
-0.302195
-0.325068
-0.286787
-0.222624
-0.197127
-0.170226
-0.157104
-0.118507
-0.049638
-0.0159729
-0.0373077
-0.0337557
0.0194796
0.0517195
0.0483258
0.104615
0.190973
0.222534
0.343778
0.459457
0.40957
0.344118
0.353032
0.606199
0.768801
0.840724
0.812059
0.868281
0.999548
1.03063
0.97629
0.976516
1.04167
1.02686
0.962036
0.837104
0.7269
0.681606
0.626063
0.505701
0.430362
0.459819
0.454163
0.378575
0.337851
0.317014
0.31638
0.325837
0.299729
0.288416
0.337647
0.2619
0.119751
0.0858371
0.111154
0.111652
0.12267
0.148891
0.135113
0.0467421
-0.0316516
0.00479636
0.0560407
0.0776923
0.104842
0.182602
0.180566
0.0886425
0.0418552
0.0854299
0.14448
0.148416
0.136855
0.0599774
0.0282579
0.0818326
0.160407
0.148982
0.128394
0.133891
0.140023
0.136538
0.163281
0.155
0.0973756
0.0749548
0.137127
0.148462
0.11276
-0.00447965
-0.0622851
0.00429864
0.0497737
0.00943437
-0.0812217
-0.126742
-0.107059
-0.10233
-0.0777375
-0.102919
-0.127805
-0.0924434
-0.0419457
-0.0909276
-0.12448
-0.0429412
0.073733
0.245724
0.457964
0.585747
0.498914
0.227602
0.0162217
-0.169796
-0.475679
-0.816584
-1.09713
-1.26235
-1.34738
-1.39719
-1.41667
-1.42115
-1.41575
-1.27045
-1.20034
-1.16505
-1.184
-1.22253
-1.20115
-1.09948
-0.992466
-0.931041
-0.849955
-0.72362
-0.601154
-0.443507
-0.321561
-0.285136
-0.293733
-0.285407
-0.205452
-0.124819
-0.108281
-0.100362
-0.101652
-0.0776697
0.00122174
0.0293213
0.0720362
0.0648869
0.0973756
0.154412
0.186312
0.187941
0.248982
0.324683
0.380091
0.435407
0.510249
0.599367
0.673394
0.738054
0.832511
0.935769
0.977986
0.974412
0.940249
0.956041
0.96724
0.938575
0.924638
0.865385
0.841154
0.7269
0.677647
0.613394
0.584118
0.534638
0.444932
0.340204
0.265656
0.286154
0.391063
0.415362
0.354321
0.32319
0.342127
0.346357
0.205045
0.0374661
-0.0205882
0.0416516
0.124118
0.166606
0.129005
-0.0240724
-0.107828
-0.126109
0.011448
0.0591403
-0.0190497
-0.0777602
-0.0307013
0.0522851
0.10043
0.0685294
0.0217647
0.020181
0.0685068
0.0618326
0.070362
0.0992987
0.123552
0.10819
0.102624
0.112217
0.127783
0.144095
0.120928
0.108439
0.136493
0.123914
0.115068
0.0705883
0.100724
0.124751
0.0622398
-0.00683258
-0.026991
-0.0177602
-0.0736425
-0.109389
-0.095362
-0.0315159
0.0279638
-0.0270588
-0.146787
-0.166561
-0.127014
-0.0826697
-0.0530091
0.0172172
0.017828
-0.0358597
-0.0385294
0.078914
0.301312
0.384367
0.443054
0.147059
-0.183824
-0.389729
-0.590611
-0.831177
-1.02122
-1.14638
-1.25174
-1.18674
-1.14615
-1.23009
-1.26903
-1.24301
-1.18183
-1.12588
-1.07048
-1.03482
-0.988281
-0.965973
-0.848348
-0.710701
-0.698122
-0.785588
-0.813507
-0.6869
-0.485679
-0.279434
-0.142195
-0.113891
-0.169276
-0.203054
-0.220928
-0.218122
-0.174638
-0.105792
-0.0723756
-0.0341856
0.0588914
0.111923
0.0797738
0.0469004
0.0580769
0.113552
0.253982
0.384796
0.39043
0.385611
0.430543
0.450023
0.563959
0.82681
0.938439
0.879253
0.824796
0.845634
0.856878
0.90276
1.02749
0.982081
0.807036
0.742692
0.823326
0.883507
0.783484
0.628891
0.559276
0.48457
0.41457
0.399163
0.428597
0.457964
0.392036
0.281041
0.25
0.218778
0.217149
0.150181
0.0179185
-0.0298191
0.0272398
0.0891402
0.0958597
0.147647
0.154412
0.081199
-0.0221041
-0.0850679
-0.0879412
-0.0261087
0.0460407
0.09319
0.0653846
0.0125112
0.0548416
0.0974434
0.100611
0.0593891
0.0282126
0.0169004
0.125747
0.189819
0.219253
0.19914
0.174321
0.0993438
-0.000724062
0.0941854
0.259389
0.235452
0.131946
0.0538687
0.034751
0.11405
0.182285
0.119864
0.00167412
0.0126696
0.0679411
0.0525791
-0.0625566
-0.13733
-0.157398
-0.128009
-0.118937
-0.0497963
0.0596154
0.0542987
-0.0759728
-0.201018
-0.225814
-0.164796
-0.0682127
0.00798643
0.16362
0.354253
0.535792
0.568371
0.341629
0.0704299
-0.205543
-0.551901
-0.783145
-0.948959
-1.15946
-1.26475
-1.28507
-1.28534
-1.32548
-1.34554
-1.35561
-1.28584
-1.18088
-1.1005
-1.06975
-1.04853
-0.981674
-0.939887
-0.913507
-0.792149
-0.666109
-0.565317
-0.459208
-0.333281
-0.207828
-0.1869
-0.229774
-0.181606
-0.0720362
-0.115407
-0.202534
-0.209842
-0.147398
-0.114208
-0.115226
-0.151448
-0.0535973
0.0234616
0.0650226
0.116448
0.157828
0.229095
0.29543
0.326063
0.370475
0.439208
0.517353
0.590113
0.66733
0.788891
0.849932
0.860724
0.886312
0.896787
0.887579
0.873416
0.848982
0.80414
0.80862
0.812421
0.676358
0.661154
0.666358
0.631109
0.555679
0.515543
0.460294
0.389502
0.327941
0.241267
0.190023
0.184095
0.152308
0.084819
0.0921041
0.128733
0.0948416
0.095362
0.146222
0.177919
0.164887
0.126267
0.0567647
0.0725339
0.0997059
0.0423982
-0.0304525
-0.0436425
-0.0116289
0.0207466
0.0331448
-0.00963803
-0.0323529
0.0451131
0.137805
0.180701
0.174072
0.168054
0.191787
0.184819
0.148054
0.0816515
0.0906335
0.185068
0.219774
0.189977
0.115905
0.0877828
0.145633
0.163054
0.139118
0.163371
0.0956335
-0.0282806
-0.107647
-0.122443
-0.0624434
-0.0526923
-0.0583937
0.00563349
0.0446154
0.0331674
-0.0534615
-0.149683
-0.185475
-0.16095
-0.181131
-0.170724
-0.0950905
-0.0543665
0.0268326
0.188416
0.375475
0.523077
0.566199
0.404661
0.158167
-0.0632353
-0.329163
-0.65948
-0.980091
-1.11609
-1.12699
-1.21272
-1.32842
-1.3841
-1.33498
-1.23054
-1.19577
-1.23579
-1.24032
-1.18477
-1.16907
-1.07803
-0.916855
-0.795588
-0.694253
-0.608077
-0.552353
-0.537127
-0.466991
-0.351312
-0.239457
-0.201267
-0.211833
-0.206244
-0.209502
-0.211742
-0.11362
0.044819
0.0884389
-0.018371
-0.05
0.0334615
0.0317195
0.0189367
0.0954525
0.226674
0.362466
0.362692
0.262579
0.307104
0.566109
0.75448
0.786765
0.908348
0.949796
0.98129
1.00278
0.983937
0.899819
0.925769
1.04188
0.962806
0.733733
0.689502
0.749706
0.709525
0.679163
0.658914
0.643733
0.573235
0.487308
0.431199
0.415294
0.384774
0.354276
0.333394
0.387172
0.415701
0.248801
0.14638
0.123348
0.120158
0.13733
0.184457
0.216041
0.186991
0.00276019
-0.131086
-0.104638
0.0169005
0.108529
0.135181
0.0665159
-0.0511765
-0.113688
-0.0811086
0.0162443
0.0334616
0.0215611
0.105701
0.214977
0.229208
0.213394
0.172376
0.126471
0.0606109
0.0498416
0.0543891
0.0693213
0.11
0.106538
0.0938009
0.106471
0.159186
0.171335
0.107647
0.0481222
0.0174208
0.0295249
0.0147285
-0.0255882
-0.0152941
-2.26274e-05
-0.020362
-0.0261086
-0.0117421
-0.0219683
-0.0370136
-0.10733
-0.0928281
-0.0681222
-0.0883937
-0.0981901
-0.081991
-0.0352715
0.071448
0.238303
0.420769
0.558462
0.496606
0.245656
-0.0246606
-0.289842
-0.555294
-0.825973
-1.07676
-1.20253
-1.2679
-1.30249
-1.34165
-1.39602
-1.41034
-1.39946
-1.24371
-1.12799
-1.1171
-1.09088
-1.02407
-1.03206
-1.0007
-0.88957
-0.777602
-0.600181
-0.433303
-0.362149
-0.401177
-0.393869
-0.260995
-0.160973
-0.17991
-0.242692
-0.258824
-0.229163
-0.155181
-0.0767647
-0.0536199
-0.0152715
0.00348417
0.0322398
0.125339
0.187466
0.213914
0.255
0.271063
0.317014
0.402896
0.478439
0.563484
0.658009
0.741448
0.814276
0.861697
0.878937
0.925656
1.01708
1.08337
1.09489
1.06591
1.01634
0.971742
0.977489
0.90853
0.859751
0.570656
0.520724
0.565158
0.629457
0.659118
0.533937
0.348552
0.313348
0.243281
0.163054
0.177421
0.180837
0.153416
0.145453
0.152421
0.10957
0.0261539
-0.00253388
0.023801
0.0804525
0.11224
0.0742535
0.0115385
-0.0258823
-0.0329638
0.119796
0.217557
0.195656
0.0487783
-0.0330995
-0.0148189
0.0188688
0.0430091
0.0574435
0.0519458
0.0714933
0.105679
0.114774
0.124208
0.108733
0.0489141
0.0540046
0.154276
0.210113
0.131584
0.0988009
0.0717648
-0.0104977
-0.038733
-0.0328959
0.0115838
0.0595928
0.0712444
0.0517647
0.0469231
0.0217873
-0.0434389
-0.118846
-0.174729
-0.150769
-0.136629
-0.156697
-0.126697
-0.0819683
-0.0870814
-0.141561
-0.106041
-0.0204977
0.0454299
0.1269
0.27414
0.552195
0.630543
0.363801
0.257014
-0.239344
-0.555113
-0.785882
-1.03744
-1.29432
-1.37554
-1.29554
-1.17495
-1.25964
-1.37937
-1.39876
-1.26735
-1.12023
-1.05321
-1.02631
-1.03475
-1.0383
-1.05181
-0.994864
-0.827466
-0.680091
-0.603054
-0.566244
-0.494751
-0.453507
-0.316606
-0.198032
-0.127896
-0.19638
-0.258869
-0.250656
-0.206787
-0.147443
-0.107986
-0.108959
-0.0949774
-0.0170362
0.0706335
0.143009
0.170498
0.16267
0.204434
0.255611
0.341335
0.396493
0.476131
0.650543
0.794344
0.852195
0.859231
0.825996
0.96724
1.06771
1.05776
0.972964
0.953507
0.954253
0.904819
0.775158
0.640498
0.645837
0.661606
0.577489
0.538032
0.552851
0.537624
0.43233
0.331493
0.285249
0.264276
0.243484
0.257489
0.296312
0.250023
0.213235
0.0609276
0.0980543
0.104796
0.086629
0.113665
0.130543
0.102172
0.0884841
0.0495023
-0.0191855
0.0123303
0.069276
0.0967873
0.0945023
0.0471041
0.0449774
0.0283032
0.0267647
0.0750679
0.0931675
0.0615158
0.0399774
0.138462
0.207262
0.196493
0.120973
0.110407
0.135068
0.160113
0.150611
0.156425
0.142828
0.150656
0.133801
0.150679
0.187195
0.151719
0.125023
0.227127
0.268032
0.137624
-0.0732127
-0.138778
-0.0690046
-0.0347512
-0.106063
-0.267285
-0.347805
-0.272941
-0.232986
-0.12767
-0.0973982
-0.072353
-0.0972851
-0.131833
-0.0508371
0.110498
0.237014
0.373937
0.471606
0.339615
0.0129638
-0.243258
-0.48405
-0.695136
-0.880996
-1.07658
-1.22717
-1.24801
-1.2238
-1.26391
-1.32348
-1.31294
-1.20244
-1.16217
-1.06199
-1.09643
-1.15018
-1.08378
-1.02729
-0.990769
-0.924208
-0.782602
-0.59629
-0.420566
-0.350226
-0.274412
-0.181674
-0.107127
-0.107172
-0.115294
-0.117557
-0.103824
-0.104751
-0.131154
-0.128145
-0.0598416
0.0236425
0.0864706
0.108914
0.0461312
0.0879185
0.24905
0.369706
0.329932
0.289819
0.359299
0.438326
0.476923
0.599796
0.701878
0.767873
0.859005
0.939977
0.950769
0.906516
0.927308
0.968077
0.94871
0.854118
0.814163
0.76414
0.689163
0.659208
0.669163
0.608869
0.48871
0.398529
0.36319
0.357805
0.33224
0.326131
0.30457
0.268054
0.221471
0.164525
0.121968
0.109095
0.111109
0.0781449
0.0897738
0.106244
0.0675792
0.0740498
0.0854978
0.0571946
-0.000723943
-0.048552
-0.0161764
-0.00309953
0.030362
0.0435294
0.0608824
0.103145
0.131063
0.134321
0.0923756
0.0648417
0.122262
0.165339
0.108778
0.10776
0.151923
0.131199
0.100339
0.144638
0.214412
0.249887
0.195837
0.102172
0.0687104
0.12957
0.149389
0.118484
0.106425
-0.0169231
-0.0812896
-0.0514706
0.0478507
0.0622851
-0.103054
-0.223733
-0.184796
-0.100656
0.00909501
0.0439593
-0.0610181
-0.18138
-0.176991
-0.122285
-0.0821267
-0.0219457
0.133326
0.334208
0.516018
0.60371
0.461719
0.175023
-0.12629
-0.227149
-0.737851
-0.948552
-1.16928
-1.2948
-1.32002
-1.32523
-1.38557
-1.41077
-1.35063
-1.3052
-1.23975
-1.15995
-1.12029
-1.1148
-1.06371
-1.00803
-0.937602
-0.822172
-0.687263
-0.573394
-0.434638
-0.345271
-0.334751
-0.287896
-0.259887
-0.215679
-0.200226
-0.213145
-0.184864
-0.161312
-0.137986
-0.0797738
-0.0217421
0.0109955
0.0386425
0.0563801
0.0339593
0.0309276
0.0721719
0.138145
0.203484
0.298439
0.382919
0.477059
0.565679
0.638439
0.700407
0.762036
0.813507
0.834276
0.914367
0.954525
0.970023
0.94552
0.93095
0.890769
0.840045
0.784344
0.713733
0.663371
0.622896
0.562376
0.536855
0.49629
0.425837
0.390091
0.369389
0.343552
0.277217
0.210679
0.173937
0.161538
0.153778
0.155995
0.162941
0.0943891
0.070724
0.0772172
0.0988688
0.150271
0.201403
0.217602
0.119344
0.0213801
0.0333484
0.105407
0.142195
0.124027
0.0813348
0.0342307
0.00776015
0.0406335
0.0628733
0.0252488
-0.0017421
0.0121945
0.0764932
0.125362
0.124027
0.118054
0.0725339
0.102353
0.147466
0.153167
0.134706
0.117172
0.120068
0.132262
0.138009
0.107602
0.0671945
0.0495022
0.0404751
-0.00495479
-0.0860634
-0.132353
-0.113484
-0.089819
-0.0961086
-0.112104
-0.108145
-0.039095
0.0201357
-0.0156788
-0.0364932
0.0030769
0.00805428
0.0685068
0.254615
0.516471
0.658982
0.622127
0.430724
0.224548
0.0489819
-0.20629
-0.526946
-0.868032
-1.09414
-1.17507
-1.22077
-1.23656
-1.2471
-1.25713
-1.26683
-1.27649
-1.30118
-1.28591
-1.2157
-1.19079
-1.05602
-0.996222
-0.895747
-0.839321
-0.757919
-0.612172
-0.492104
-0.457036
-0.430792
-0.267805
-0.143507
-0.137534
-0.185068
-0.211448
-0.177624
-0.0177828
0.0870588
0.0364706
-0.0195249
-0.0309729
0.0172851
0.0702941
0.0925792
0.12957
0.156448
0.258009
0.258891
0.254321
0.344434
0.453778
0.547376
0.640498
0.722986
0.774796
0.816471
0.8981
0.969231
1.0052
1.00622
1.0074
0.973643
0.924796
0.86586
0.821629
0.807014
0.777398
0.717964
0.648439
0.578801
0.554027
0.433733
0.417873
0.441878
0.455656
0.404095
0.312285
0.270068
0.262783
0.190634
0.118167
0.0753394
0.0419457
0.0385521
0.0655204
0.082534
0.0595702
0.0516516
0.063733
0.0959729
0.048552
-0.0537104
-0.0607692
0.0224661
0.110724
0.133824
0.147036
0.105633
0.089457
0.0531448
0.0469231
0.100973
0.145
0.184434
0.234321
0.238937
0.203462
0.168484
0.133846
0.104638
0.0763575
0.0489819
0.0523303
0.0459502
0.00918555
-0.0784389
-0.117398
0.00708146
0.11
0.0915611
0.0673756
0.0279186
0.0583484
0.0487331
-0.0212443
-0.0714932
-0.0668552
-0.0572172
-0.0827149
-0.0832353
0.0113575
0.0962217
0.14681
0.0826245
-0.0511086
0.0404073
0.267285
0.484661
0.54224
0.340045
0.00357467
-0.267059
-0.557534
-0.847851
-1.0879
-1.15792
-1.39794
-1.43729
-1.39127
-1.35579
-1.32575
-1.31084
-1.29581
-1.19554
-1.15505
-1.169
-1.16742
-1.05038
-0.968688
-0.922172
-0.815362
-0.713869
-0.642941
-0.512398
-0.36681
-0.330452
-0.30767
-0.258462
-0.237557
-0.229932
-0.231516
-0.182489
-0.0978959
-0.0480995
-0.068733
-0.0696606
-0.0456561
-0.00239817
0.0651358
0.0824208
0.0795928
0.157127
0.264208
0.335815
0.417104
0.463348
0.498982
0.60862
0.692534
0.716131
0.788869
0.865792
0.947059
0.977851
0.943891
0.940204
0.916222
0.886946
0.887692
0.86371
0.795
0.731063
0.646493
0.566561
0.556923
0.552602
0.453009
0.328326
0.303484
0.363167
0.342511
0.271312
0.285272
0.26914
0.232805
0.261516
0.265
0.19819
0.131154
0.0985747
0.0803394
0.141629
0.122986
0.0247285
-0.0834842
-0.101833
0.0147738
0.101493
0.123846
0.0818326
0.0202262
-0.00115384
-0.0227602
-0.0293213
0.0392986
0.0877375
0.101584
0.0908823
0.0955882
0.115271
0.159955
0.125158
0.100814
0.111855
0.112511
0.11233
0.112624
0.149344
0.227217
0.215204
0.0823303
0.0581901
0.142896
0.105995
-0.0124434
-0.056991
-0.0370136
-0.0432579
-0.034638
0.0192534
0.0433485
0.0478281
0.0570815
0.0411086
0.000588268
-0.0945475
-0.199864
-0.21052
-0.145588
-0.120226
-0.104774
0.066086
0.277624
0.449774
0.517647
0.396222
0.119842
-0.116403
-0.422104
-0.767557
-0.943077
-1.07876
-1.23941
-1.33459
-1.29932
-1.27912
-1.27891
-1.14369
-1.04348
-1.0581
-1.10265
-1.20715
-1.22645
-1.13536
-1.03905
-1.01242
-0.925566
-0.79414
-0.67319
-0.607828
-0.487964
-0.37724
-0.269661
-0.19043
-0.239638
-0.26276
-0.170023
-0.116629
-0.117828
-0.153824
-0.169887
-0.155905
-0.107353
-0.0244117
0.00300907
0.0302489
0.122262
0.163643
0.164344
0.259661
0.304887
0.424774
0.448959
0.517738
0.60595
0.648597
0.705973
0.738032
0.75448
0.840362
0.956018
1.03149
0.987262
0.903054
0.883326
0.873054
0.792647
0.727579
0.712806
0.6781
0.57319
0.502964
0.517308
0.540792
0.493575
0.466629
0.330249
0.238891
0.162195
0.145339
0.14871
0.132398
0.120588
0.0879865
0.109864
0.161403
0.148009
0.0597286
0.0214706
0.0534616
0.0404073
-0.0180316
-0.0362896
0.0263123
0.0742535
0.0769684
0.109638
0.137398
0.125249
0.10819
0.0964254
0.0401584
0.104412
0.168959
0.168462
0.122828
0.146878
0.220407
0.203688
0.18733
0.211538
0.226403
0.177127
0.113462
0.0855204
0.0779638
0.105045
0.0955883
0.0200453
-0.0214932
-0.00952488
0.0114253
0.04181
0.00662901
-0.0589819
-0.0799095
-0.0960633
-0.0920136
-0.0571267
-0.0418552
-0.0517647
-0.076991
-0.0578507
-0.0488688
-0.0394344
-0.039638
-0.0550226
0.0649095
0.270995
0.478077
0.60552
0.482715
0.145091
-0.141878
-0.458054
-0.733959
-0.929593
-1.09993
-1.22038
-1.26597
-1.27665
-1.35735
-1.32812
-1.279
-1.24486
-1.21581
-1.17124
-1.13061
-1.10477
-1.04446
-0.963914
-0.908122
-0.821946
-0.716312
-0.606312
-0.516222
-0.426878
-0.351719
-0.280181
-0.217421
-0.193145
-0.162036
-0.154253
-0.165814
-0.137308
-0.113643
-0.0897285
-0.0362217
-0.00321265
0.0149095
0.0279186
0.0450679
0.126561
0.302941
0.459276
0.475091
0.405339
0.419683
0.488484
0.531493
0.504231
0.481335
0.557964
0.708733
0.833846
0.909321
0.895362
0.871199
0.901018
0.920249
0.914864
0.864955
0.799774
0.694231
0.583801
0.518416
0.4881
0.493145
0.473348
0.468122
0.462285
0.380905
0.273891
0.222217
0.220882
0.214502
0.191878
0.20405
0.251629
0.238846
0.140475
0.0119457
-0.00649323
0.0701131
0.0816742
0.0631448
0.0194344
0.0809955
0.0828507
-0.00527152
-0.0233485
0.0236199
0.0108145
-0.0266968
-0.0291855
0.0734615
0.141403
0.0941629
0.0419683
0.0553846
0.0790271
0.102986
0.137127
0.151267
0.140498
0.155023
0.219706
0.234208
0.10914
0.010181
-0.00280545
0.174796
0.246765
0.20724
0.10638
-0.0108371
-0.104208
-0.0885068
-0.0236878
-0.00950226
-0.0404978
-0.0667421
-0.0533711
0.00531672
0.0692986
0.103462
0.00246605
-0.153575
-0.169276
-0.0645928
-0.0294797
-0.049095
-0.0235068
0.112376
0.313643
0.375452
0.577692
0.450294
0.173371
-0.0830769
-0.334118
-0.624932
-0.920566
-1.11111
-1.21167
-1.26717
-1.33267
-1.32314
-1.27842
-1.31853
-1.32855
-1.24333
-1.16803
-1.12749
-1.09104
-1.01896
-0.917059
-0.85086
-0.820136
-0.719729
-0.674615
-0.530091
-0.440656
-0.260091
-0.14267
-0.193416
-0.257624
-0.215611
-0.0675113
0.0363122
-0.00463801
-0.11052
-0.0964027
-0.0225339
0.0253846
0.0726018
0.0691855
0.030724
0.0321946
0.123529
0.249751
0.365905
0.456674
0.451652
0.445701
0.458778
0.69129
0.763552
0.750769
0.817738
0.934253
0.995136
0.990543
0.930905
0.876652
0.867285
0.897624
0.862783
0.788235
0.708552
0.658439
0.663032
0.637647
0.607104
0.570996
0.479299
0.397919
0.427149
0.426154
0.32948
0.297376
0.220226
0.158213
0.180905
0.172919
0.11948
0.0860181
0.112986
0.140068
0.101177
0.0918326
0.0877376
0.104796
0.097534
0.105475
0.0880769
0.0654751
0.072534
0.095
0.113326
0.107195
0.151063
0.154729
0.113643
0.0979186
0.0925113
0.157376
0.2119
0.175882
0.114932
0.0795702
0.0995249
0.109593
0.129887
0.15086
0.142783
0.139932
0.15319
0.125882
0.0920362
0.0619231
0.0308824
0.0135973
-0.0101131
-0.0297285
-0.0299321
-0.0203846
-0.0159955
-0.02181
-0.0377376
-0.0538235
-0.109751
-0.120294
-0.105566
-0.140566
-0.13543
-0.0902715
-0.0144796
0.0969683
0.22862
0.330498
0.427398
0.419864
0.24276
-0.0182353
-0.298597
-0.564005
-0.849796
-1.11548
-1.24527
-1.27439
-1.29346
-1.34308
-1.3529
-1.24749
-1.20226
-1.12686
-1.14624
-1.12593
-1.11584
-1.09518
-1.08369
-1.07697
-1.00538
-0.849253
-0.633937
-0.514502
-0.47914
-0.452534
-0.34457
-0.250837
-0.199864
-0.212557
-0.209299
-0.205498
-0.156493
-0.0973756
-0.0879864
-0.0784163
-0.0342081
-0.0156561
0.0426244
0.095543
0.127941
0.224932
0.361697
0.40319
0.344367
0.355294
0.46086
0.575656
0.614842
0.6131
0.715498
0.882443
0.974186
0.995453
0.966584
0.95767
1.04912
1.05029
0.98129
0.902262
0.823054
0.738507
0.713778
0.643937
0.629118
0.55957
0.440158
0.340475
0.315294
0.340181
0.304774
0.288507
0.286923
0.265407
0.24371
0.211629
0.184208
0.161493
0.128462
0.085181
0.0614932
0.0479864
0.0402715
0.0527602
0.0100905
0.00778282
0.0706787
0.0935747
0.0463348
0.0290498
0.0472851
0.0558145
0.0841403
0.0827602
0.0516516
0.105543
0.174706
0.169072
0.123394
0.122398
0.136719
0.116606
0.121471
0.186154
0.146222
0.0665611
0.0522851
0.103801
0.146018
0.168529
0.165882
0.102647
0.0781901
0.0323982
0.0454525
0.0521946
-0.00751133
-0.0679412
-0.133235
-0.133484
-0.0890272
-0.0797285
-0.00515838
-0.0106561
-0.0708145
-0.0558824
-0.0158145
-0.0607014
-0.13052
-0.0752941
0.0345475
0.119457
0.285
0.486312
0.507534
0.298575
-0.0194796
-0.125814
-0.50595
-0.740701
-0.955475
-1.13525
-1.23538
-1.27061
-1.30054
-1.3752
-1.36986
-1.30455
-1.29419
-1.20846
-1.11744
-1.05615
-1.03946
-1.06805
-1.07661
-0.990475
-0.909751
-0.834276
-0.729095
-0.599412
-0.469299
-0.34233
-0.298145
-0.237466
-0.230747
-0.183054
-0.22457
-0.190204
-0.145633
-0.131244
-0.0619231
0.016991
0.0752262
0.0933032
0.0759276
0.0331222
0.0348869
0.121131
0.231448
0.26638
0.341493
0.496403
0.555724
0.539389
0.647489
0.790068
0.832104
0.838688
0.874638
0.950181
1.05032
1.03038
0.875701
0.821199
0.85181
0.782172
0.707172
0.672149
0.672149
0.652081
0.521991
0.436923
0.466878
0.406448
0.360453
0.368914
0.307376
0.251131
0.249932
0.268507
0.191652
0.0842308
0.056267
0.102986
0.0647964
0.081267
0.10733
0.0635973
0.0102941
0.0423756
0.0697059
0.0221041
0.0295475
0.0421719
0.0296154
0.0321267
0.0848417
0.112398
0.0502941
0.0183258
0.0316064
0.0550453
0.0985295
0.157624
0.157172
0.11681
0.106561
0.106335
0.110701
0.109502
0.198801
0.254072
0.270091
0.316968
0.459615
0.537308
0.364095
0.089276
-0.0860407
-0.128077
-0.146493
-0.156244
-0.0868325
-0.031742
-0.0515837
-0.116946
-0.122986
-0.0891629
-0.0953167
-0.131674
-0.157579
-0.198009
-0.203303
-0.0135747
0.00606333
0.00579183
0.0961312
0.246833
0.417466
0.558597
0.455543
0.143213
-0.183462
-0.424615
-0.635475
-0.881539
-1.06731
-1.17326
-1.21932
-1.25023
-1.31568
-1.30545
-1.24007
-1.22998
-1.19993
-1.11962
-1.09441
-1.09968
-0.994774
-0.933982
-0.947986
-0.93724
-0.821539
-0.67638
-0.571968
-0.477081
-0.385656
-0.307941
-0.184231
-0.119095
-0.0622398
-0.0588688
-0.115339
-0.151855
-0.153394
-0.12957
-0.0409955
0.0375113
0.0655204
0.0428054
0.0400679
0.0618778
0.0732127
0.194412
0.325045
0.420113
0.480068
0.489412
0.477783
0.48552
0.582873
0.724525
0.825385
0.900814
0.94638
0.981878
0.992398
0.932986
0.888235
0.843258
0.808439
0.78862
0.713371
0.648077
0.642805
0.642398
0.606923
0.586516
0.456086
0.365249
0.313914
0.327217
0.330204
0.272964
0.170814
0.0935294
0.0857466
0.122534
0.16914
0.225633
0.171855
0.068371
-0.00988692
-0.0330091
-0.000746652
0.0124434
0.0061764
0.0442081
0.0461538
0.0426696
0.109095
0.185633
0.187466
-0.0650679
-0.117104
-0.0340498
0.0389366
0.0720362
0.130452
0.183982
0.167443
0.151131
0.179796
0.188416
0.177602
0.146471
0.0953167
0.0946832
0.185656
0.182534
0.135181
0.107828
0.0892986
0.0137782
0.00160629
0.0433031
0.0140724
-0.00104077
0.0430995
0.0368552
-0.0643665
-0.160498
-0.131312
-0.0218552
-0.00746605
-0.0979864
-0.128394
-0.0339366
0.000452491
-0.0947511
-0.114729
0.0054525
0.160769
0.331606
0.472964
0.469819
0.267376
0.0204977
-0.196131
-0.477285
-0.782964
-1.0183
-1.07373
-1.21968
-1.27127
-1.32308
-1.3393
-1.39952
-1.32425
-1.16403
-1.1791
-1.20912
-1.189
-1.12889
-1.0638
-0.983643
-0.947692
-0.871312
-0.710566
-0.571222
-0.467602
-0.388077
-0.316606
-0.243529
-0.218869
-0.232964
-0.211018
-0.188145
-0.144842
-0.136471
-0.128122
-0.0897285
-0.031448
-0.00364253
0.0138235
0.0411991
0.0681674
0.114367
0.155385
0.190905
0.275905
0.375294
0.474593
0.572557
0.61491
0.646855
0.718348
0.804163
0.844615
0.875136
0.93629
0.962466
0.968235
0.953416
0.913054
0.847557
0.802104
0.781719
0.746403
0.665973
0.645385
0.605158
0.535385
0.470543
0.419344
0.382511
0.335271
0.308122
0.276109
0.249412
0.232624
0.160136
0.126946
0.133529
0.200068
0.291742
0.298348
0.274548
0.0706561
0.0420814
0.0137556
-0.0890724
-0.14181
-0.0298416
0.0921946
0.13
0.0883937
0.0964706
0.154321
0.192489
0.15586
0.0690045
0.00683258
0.0104525
0.0344796
0.0436652
0.0979412
0.15233
0.162059
0.1769
0.186448
0.135882
0.115814
0.116584
0.148145
0.145294
0.0875792
0.0540498
0.0743439
0.0883484
0.0408371
0.0122851
0.023009
0.0685294
0.157964
0.191719
0.0706335
-0.0753394
-0.121154
-0.0969683
-0.0674434
-0.0930995
-0.113665
-0.114072
0.000565592
0.105294
0.0156108
-0.0285747
0.112466
0.403801
0.565747
0.458665
0.167376
-0.0884389
-0.364231
-0.595023
-0.79052
-0.985656
-1.14079
-1.20095
-1.24124
-1.28663
-1.28192
-1.25172
-1.24145
-1.22611
-1.13566
-1.00011
-0.979276
-0.998529
-0.973122
-0.887828
-0.852738
-0.553032
-0.473416
-0.482919
-0.455792
-0.30733
-0.182489
-0.141199
-0.213462
-0.25914
-0.258982
-0.193643
-0.0837783
-0.0093439
0.00470587
-0.00651585
0.0270362
0.0651584
0.107511
0.104548
0.091629
0.118529
0.174842
0.270611
0.451018
0.510724
0.519615
0.512738
0.590317
0.732534
0.874208
0.955317
0.976425
0.937964
0.924864
0.966787
0.988462
1.009
0.949367
0.789638
0.739434
0.784095
0.694163
0.514502
0.429932
0.475113
0.515068
0.494887
0.449615
0.404027
0.382873
0.241063
0.26362
0.246041
0.138439
0.0856561
0.107624
0.119525
0.0916968
0.0989819
0.110928
0.0826697
0.0794118
0.0914254
0.0585747
0.0354977
0.0472398
0.114548
0.167398
0.0904525
0.0136878
0.00269232
0.0975792
0.198235
0.114231
0.0748416
-0.0203394
0.0540498
0.138801
0.163937
0.113914
0.098733
0.148937
0.194842
0.146018
0.0716742
0.0972398
0.193846
0.202059
0.0955656
0.00337102
-0.0304525
0.0346833
0.0535294
-0.0338462
-0.102081
-0.0909955
-0.055362
-0.0297059
-0.0142534
-0.00950226
-0.075181
-0.0759276
-0.086629
-0.0972625
-0.102624
-0.132511
-0.0820362
0.0185973
0.119027
0.254299
0.429774
0.542127
0.385158
0.0526244
-0.175045
-0.396018
-0.675453
-0.965045
-1.25554
-1.41606
-1.45111
-1.36072
-1.3052
-1.28448
-1.26878
-1.2381
-1.17717
-1.08615
-1.03511
-1.08398
-1.11303
-1.04713
-0.976018
-0.929932
-0.818824
-0.663371
-0.523507
-0.428801
-0.363303
-0.311923
-0.212149
-0.195724
-0.213348
-0.190339
-0.17681
-0.132511
-0.0726471
-0.0476018
-0.0428281
-0.0286878
-0.0399321
-0.00644797
0.0662443
0.0930091
0.114457
0.180905
0.277308
0.343733
0.384593
0.429253
0.518213
0.66638
0.724638
0.742602
0.839977
0.951878
0.978416
0.934072
0.919502
0.945747
0.972444
0.973801
0.944796
0.910588
0.900815
0.905792
0.801018
0.696584
0.606968
0.541674
0.386244
0.240973
0.166176
0.131267
0.100091
0.13319
0.185588
0.133213
0.0815159
0.0950453
0.112511
0.0293665
-0.00875564
0.0381901
0.0646606
0.0407919
-0.0477602
-0.110747
-0.0136425
0.0337783
0.101561
0.0743439
0.0822398
0.120249
0.11319
0.0663122
0.00968327
-0.0568326
-0.0530091
0.055724
0.154706
0.198959
0.198529
0.198281
0.228032
0.25776
0.197692
0.142873
0.213213
0.333778
0.325045
0.212195
0.144819
0.261697
0.317104
0.0865837
-0.135
-0.0679412
0.047715
-0.00787327
-0.129005
-0.175317
-0.111244
-0.0968326
-0.0924661
-0.113145
-0.14862
-0.143597
-0.118462
-0.153281
-0.138665
-0.114072
-0.114208
-0.0239367
0.141787
0.3381
0.470045
0.492624
0.390656
0.334005
-0.277421
-0.563394
-0.75414
-0.934615
-1.0648
-1.1948
-1.29962
-1.31946
-1.31957
-1.33991
-1.30514
-1.20032
-1.11523
-1.08991
-1.10459
-1.05934
-1.0088
-1.03321
-0.952579
-0.732376
-0.59819
-0.565566
-0.563167
-0.513643
-0.486471
-0.427149
-0.315928
-0.0979638
-0.0639593
-0.224774
-0.300588
-0.241086
-0.151154
-0.0811765
0.0234616
0.0678054
0.0370362
0.0404977
0.143009
0.225
0.186674
0.147534
0.142353
0.271109
0.468982
0.591199
0.653258
0.680249
0.6169
0.59319
0.779072
0.899683
0.944932
0.974796
1.02946
1.02891
0.983258
0.952511
0.937081
0.757579
0.583122
0.548416
0.588009
0.582376
0.511833
0.40638
0.365815
0.379842
0.333213
0.371425
0.32448
0.202262
0.135136
0.0879638
0.0803394
0.0823529
0.00938915
0.00651585
0.0735973
0.125792
0.108054
0.0900226
0.0967647
0.103552
0.096267
0.0744796
0.0866968
0.103122
0.120136
0.102783
0.0602489
0.0623303
0.0643891
0.0421041
0.0702941
0.0935973
0.0769004
0.025543
0.089638
0.128959
0.202851
0.176606
0.180769
0.160362
0.105294
0.0855204
0.101403
0.103009
0.1
0.0968778
0.0986878
0.0926244
0.0501131
-0.0380996
-0.0920814
-0.131697
-0.142127
-0.0932353
-0.0243213
0.0145475
-0.0119909
-0.0485973
-0.0895701
-0.0800226
-0.0652941
-0.0405656
-0.0505656
0.0244117
0.0692081
0.194412
0.455453
0.882421
1.07518
0.658258
0.0864027
-0.295475
-0.607149
-0.968122
-1.24285
-1.2974
-1.27314
-1.31921
-1.41489
-1.45529
-1.41572
-1.36088
-1.3307
-1.26534
-1.15975
-1.13351
-1.12724
-1.10188
-1.0174
-0.858597
-0.700068
-0.586493
-0.516765
-0.445045
-0.416742
-0.382511
-0.272127
-0.184661
-0.175701
-0.116176
-0.0114706
0.0733258
0.08819
0.0325113
-0.0883032
-0.183937
-0.135181
-0.00205884
0.13552
0.202398
0.228778
0.21
0.195634
0.235407
0.319887
0.36371
0.511968
0.674751
0.701991
0.713507
0.814389
0.925113
0.950701
0.870747
0.825792
0.871199
0.976674
1.03229
0.968145
0.888778
0.79871
0.743348
0.733032
0.687828
0.627466
0.607172
0.596629
0.565453
0.528846
0.451697
0.363914
0.346018
0.3281
0.219796
0.125611
0.101425
0.162579
0.209457
0.146267
0.052896
0.0694118
0.170928
0.222511
0.194457
0.13181
0.0543665
0.0119457
0.0351357
0.068914
0.0324887
0.0204299
0.0282127
0.0761086
0.119027
0.0922398
0.10095
0.170453
0.220566
0.185747
0.155498
0.140271
0.125136
0.109774
0.164321
0.179367
0.169661
0.205633
0.137715
0.00174209
-0.0581222
-0.0197285
0.0111539
0.0202942
-0.0319909
-0.101086
-0.121493
-0.0321493
-0.052715
-0.0937104
-0.0802941
-0.0217873
0.00708144
-0.038914
-0.124955
-0.185701
-0.240882
-0.176199
-0.0266742
0.117964
0.253054
0.433937
0.615385
0.477262
0.0947059
-0.23224
-0.503869
-0.785317
-1.06118
-1.27179
-1.35256
-1.36308
-1.3279
-1.34204
-1.26638
-1.26597
-1.32113
-1.36699
-1.40262
-1.31762
-1.12195
-1.01606
-1.05034
-1.02498
-0.875226
-0.795882
-0.696357
-0.532896
-0.473801
-0.472941
-0.375882
-0.277896
-0.243235
-0.201878
-0.14448
-0.136584
-0.138213
-0.089276
-0.124842
-0.185091
-0.115679
0.0582353
0.126765
0.104909
0.102647
0.164955
0.17681
0.223462
0.32991
0.435679
0.565701
0.690226
0.748869
0.781968
0.85414
1.00023
1.06572
1.03111
0.946697
0.937511
0.98319
0.98862
0.934186
0.89991
0.835701
0.74629
0.696516
0.686516
0.551312
0.415905
0.420362
0.474276
0.457896
0.396561
0.385588
0.374367
0.337805
0.205475
0.0478054
-0.000339374
0.0563122
0.063009
0.0594118
0.135498
0.146697
0.113303
0.105113
0.0821267
0.0996154
0.0971719
0.0443213
0.011267
-0.00633485
-0.00364254
-0.000859745
0.0364253
0.0482805
0.0454525
0.048733
0.0974434
0.131018
0.0696832
0.0286651
0.0529185
0.0921267
0.0910633
0.0700452
0.123891
0.162964
0.162715
0.14819
0.134027
0.17052
0.19276
0.138959
0.07319
0.0266742
0.0146154
-0.0137557
0.00671944
0.0370815
0.0274661
-0.0377828
-0.118597
-0.0747285
-0.0903394
-0.100882
-0.0567194
-0.0729412
-0.0944344
-0.120656
-0.110973
-0.0606109
-0.0104977
0.0996606
0.220905
0.257624
0.529389
0.5319
0.299955
0.0581448
-0.138235
-0.408891
-0.674208
-0.879683
-1.07009
-1.22027
-1.30014
-1.30468
-1.31971
-1.31023
-1.2805
-1.28495
-1.2543
-1.17385
-1.12355
-1.08317
-1.05796
-1.02305
-0.903575
-0.774457
-0.739706
-0.628394
-0.520679
-0.326833
-0.186018
-0.137873
-0.123258
-0.0933937
-0.0840272
-0.104819
-0.129977
-0.129751
-0.0496833
6.78785e-05
0.0291855
0.0577828
0.0410181
0.0540272
0.131086
0.202172
0.292828
0.353371
0.358846
0.33371
0.437783
0.490769
0.673077
0.819955
0.976312
0.986968
0.947308
0.997579
1.05303
1.01391
0.98009
0.951448
0.89733
0.827692
0.743303
0.69405
0.674525
0.60905
0.5731
0.562262
0.621674
0.650973
0.564615
0.412783
0.301041
0.294299
0.291946
0.284231
0.256629
0.22371
0.200158
0.131335
0.107647
0.124457
0.126878
0.11457
0.172376
0.210136
0.227738
0.320407
0.373643
0.2119
0.060362
0.0688235
0.0471493
-0.139299
-0.225452
-0.0964932
0.0625339
0.116561
0.0758597
0.0602489
0.0700453
0.109796
0.134027
0.158688
0.15414
0.11
0.130814
0.146606
0.0577602
0.0344118
0.12638
0.129615
0.0728054
0.0450453
0.0461539
-0.019095
-0.0656787
0.00160634
0.0332579
-0.0208824
-0.106018
-0.141674
-0.0870815
-0.0520362
-0.0519231
-0.0721267
-0.0426471
-0.0330995
-0.0134163
0.0165385
0.0566969
0.156946
0.347489
0.523643
0.505339
0.276923
0.0191855
-0.202805
-0.568982
-0.939593
-1.19973
-1.28964
-1.26443
-1.2391
-1.33378
-1.4138
-1.43398
-1.39885
-1.32342
-1.29785
-1.26729
-1.22688
-1.15156
-1.07088
-0.969729
-0.888281
-0.887149
-0.811765
-0.647421
-0.418326
-0.304027
-0.338235
-0.375611
-0.26086
-0.125566
-0.0933484
-0.125068
-0.130837
-0.171312
-0.231787
-0.122217
-0.0179412
-0.044095
-0.0656561
-0.0476244
0.140023
0.237104
0.223959
0.180792
0.252783
0.419751
0.530928
0.520837
0.574842
0.748484
0.771674
0.709344
0.806606
0.988326
1.0498
1.0007
0.946448
0.852489
0.793959
0.755362
0.751652
0.822625
0.828303
0.649367
0.580724
0.491312
0.481131
0.485769
0.460045
0.428484
0.396584
0.320181
0.244118
0.232602
0.200566
0.103326
0.160905
0.263416
0.150633
-0.0471946
-0.125271
-0.0634389
-0.00656112
0.0253846
0.0368778
0.00314477
-0.00527151
0.00658369
-0.0162444
-0.00891404
0.0936199
0.116131
0.0988235
0.0322172
0.0159276
0.084457
0.117715
0.0560181
-0.0602489
-0.0661765
0.0333032
0.0978281
0.112172
0.161471
0.15095
0.145837
0.150769
0.120973
0.107195
0.119615
0.182217
0.143891
0.0841176
0.0931221
0.100407
0.0310407
-0.0196154
-0.0305204
-0.0661086
-0.0964027
-0.0623077
-0.0439366
-0.0510181
-0.0829411
-0.0994117
-0.0858371
-0.0823077
-0.0637104
-0.0797737
-0.125452
-0.110475
0.0102036
0.171063
0.366991
0.518665
0.521697
0.370294
0.10862
-0.208235
-0.319434
-0.785113
-0.970724
-1.12609
-1.23129
-1.26747
-1.30925
-1.30016
-1.276
-1.2724
-1.23448
-1.17147
-1.11147
-1.09505
-1.09894
-1.07328
-1.03876
-0.949502
-0.82043
-0.731086
-0.65543
-0.553122
-0.439638
-0.369955
-0.273778
-0.231018
-0.162398
-0.138597
-0.174638
-0.255656
-0.241742
-0.148077
-0.0297511
0.0633484
0.0811991
0.0780317
0.0938236
0.119118
0.17491
0.240679
0.246131
0.239434
0.262149
0.349231
0.505928
0.582602
0.614253
0.665385
0.72129
0.812376
0.848235
0.898258
0.872443
0.881516
0.880928
0.890792
0.916018
0.935679
0.874751
0.743869
0.678032
0.631719
0.570498
0.484321
0.398077
0.361516
0.349344
0.326855
0.284299
0.246403
0.20724
0.117624
0.0882806
0.159186
0.180136
0.16129
0.102443
0.133733
0.175068
0.141222
0.0524661
-0.00599546
-0.0285747
0.0340498
0.0815158
0.0942987
0.0875792
0.111018
0.0745023
0.0275113
-0.0147511
0.0236425
0.102443
0.181267
0.180113
0.153891
0.167692
0.206516
0.23043
0.229683
0.223982
0.178462
0.103326
0.063733
0.124932
0.126719
0.0588688
0.0509729
0.0774435
0.0778733
0.0419683
0.0553846
0.0615158
-0.0385294
-0.0945023
0.0640045
0.122964
0.0217873
0.0956561
0.179751
0.293597
0.27733
0.0114706
-0.218801
-0.173846
-0.128914
0.180882
0.395656
0.53586
0.456855
0.213303
0.0152262
-0.227195
-0.559434
-0.796425
-0.967647
-1.09848
-1.18921
-1.28007
-1.38106
-1.4274
-1.41269
-1.34256
-1.22235
-1.16208
-1.11733
-0.957828
-0.937805
-1.05726
-1.04652
-1.00161
-0.558122
-0.460068
-0.396448
-0.387014
-0.391222
-0.414231
-0.390905
-0.275769
-0.203801
-0.255339
-0.256652
-0.138054
-0.0393891
-0.045181
-0.100837
-0.156041
-0.0512896
0.0830317
0.0964932
0.0740498
0.196403
0.288914
0.31052
0.31552
0.324706
0.448778
0.59233
0.644977
0.661946
0.829163
0.926787
0.968552
0.979027
0.984412
0.990588
0.982262
0.94871
0.944887
0.955611
0.921018
0.866538
0.732036
0.646991
0.621674
0.561131
0.460679
0.360566
0.305385
0.404344
0.432919
0.26138
0.209751
0.227783
0.220633
0.208348
0.190724
0.203032
0.190543
0.138213
0.115633
0.0327375
-0.0352263
-0.0332127
-0.046267
0.0209955
0.0936878
0.106244
0.0940498
0.0623529
0.0409955
0.0797511
0.118643
0.192647
0.241561
0.25052
0.115339
0.105882
0.106357
0.0819683
0.142647
0.208891
0.185339
0.115656
0.0798869
0.0795701
0.134502
0.175724
0.1731
0.131244
0.124072
0.0958371
0.0515385
0.121199
0.129434
0.0465158
-0.00714933
0.0235294
0.0636425
0.0434615
0.0227376
-0.208348
-0.224412
-0.135181
-0.0704977
0.0494118
0.0894344
-0.0196833
-0.118303
-0.117579
0.122873
0.433688
0.516674
0.410249
0.314344
0.168529
-0.0226471
-0.289005
-0.640068
-0.990656
-1.23075
-1.24595
-1.17629
-1.21633
-1.32609
-1.35577
-1.44543
-1.41036
-1.29491
-1.16367
-1.09235
-1.11143
-1.19007
-1.04828
-0.776561
-0.680045
-0.688914
-0.583032
-0.402466
-0.292217
-0.381991
-0.504253
-0.394706
-0.128869
-0.0268778
-0.168846
-0.284683
-0.280045
-0.175543
-0.0209955
0.028733
-0.0716742
-0.112262
-0.00371043
0.129005
0.236425
0.238484
0.164683
0.209276
0.367828
0.412285
0.402557
0.467262
0.626425
0.749955
0.783213
0.836177
0.868914
0.866222
0.858507
0.915995
0.983326
0.954706
0.885362
0.860792
0.851154
0.756652
0.71733
0.653258
0.569118
0.494525
0.434661
0.419932
0.405317
0.330769
0.270905
0.245656
0.149389
0.0674434
0.114548
0.186199
0.178348
0.121538
0.109638
0.122059
0.0690272
0.0604525
0.08681
0.0488462
0.0216516
0.0145023
0.00714935
0.0447059
0.0322851
0.0156561
0.034638
0.0284163
0.0419005
0.0756788
0.0499548
0.0688914
0.10224
0.109887
0.113077
0.132149
0.141697
0.162557
0.133846
0.0447285
0.0699321
0.139955
0.106063
0.0737783
0.0469231
-0.000610866
-0.00859729
0.0677828
0.0832805
0.037828
0.0407918
-0.00805429
-0.0480317
-0.0330996
0.00712665
0.0271266
-0.00825798
-0.0838009
-0.094819
-0.0906788
-0.14638
-0.161652
-0.111833
-0.0972172
-0.113213
-0.0885747
-0.0476018
0.0389593
0.210679
0.417964
0.53595
0.554367
0.162353
-0.145113
-0.391358
-0.635407
-0.85905
-1.10391
-1.21964
-1.22548
-1.24111
-1.27129
-1.27584
-1.29048
-1.23523
-1.13489
-1.09419
-1.07346
-0.982941
-0.72776
-0.551991
-0.650023
-0.797941
-0.842195
-0.772534
-0.612941
-0.557692
-0.501199
-0.462557
-0.347036
-0.345815
-0.434615
-0.411991
-0.272557
-0.167557
-0.102738
-0.0878281
-0.0382353
0.00495473
-0.0279412
-0.016448
0.0596833
0.105792
0.122059
0.143778
0.21043
0.336176
0.435973
0.530091
0.673258
0.885543
0.962647
0.914706
0.75086
0.746176
0.826742
0.892964
1.01405
1.08511
0.976312
0.802217
0.747828
0.783281
0.773009
0.722443
0.61724
0.492149
0.45733
0.472081
0.441244
0.375204
0.433891
0.547647
0.476584
0.344909
0.24276
0.205588
0.0384616
-0.0134389
-0.0307692
0.0211312
0.0624661
0.0636878
0.0198417
0.00588237
0.0469457
0.0484616
0.0407466
0.0436199
-0.0137556
-0.0162669
0.0314028
0.0395249
0.042534
0.0456562
0.0540724
0.0279865
0.0321267
0.0461086
0.0449548
0.123688
0.157398
0.206425
0.23095
0.285905
0.285905
0.260634
0.225249
0.180407
0.161719
0.189005
0.206629
0.214276
0.190272
0.0249095
-0.201471
-0.198914
-0.0823303
-0.0220588
-0.00737553
0.0371041
0.0764706
-0.0293439
-0.125407
-0.156878
-0.0831222
-0.0436652
0.0460634
0.0809502
0.0712896
-0.0222172
-0.134977
-0.123281
0.152692
0.448416
0.614502
0.586335
0.33862
-0.0885294
-0.47543
-0.636878
-0.643394
-0.905294
-1.24192
-1.39792
-1.42876
-1.4745
-1.415
-1.19991
-0.999593
-0.929502
-0.934434
-1.00403
-1.09855
-1.21317
-1.21281
-1.08733
-0.936787
-0.811742
-0.697195
-0.582534
-0.491742
-0.404842
-0.207398
-0.074638
-0.135317
-0.260181
-0.273281
-0.265181
-0.256109
-0.2169
-0.168077
-0.129367
0.0345249
0.147919
0.065181
0.0313575
-0.00330316
0.0917873
0.242195
0.328213
0.36905
0.379457
0.379796
0.529344
0.642398
0.669231
0.67095
0.642195
0.708213
0.788846
0.93957
1.03482
1.01529
1.00559
0.970588
0.82043
0.640181
0.585
0.654842
0.639163
0.603258
0.457557
0.446674
0.440272
0.418054
0.329864
0.246561
0.208665
0.231041
0.263507
0.216131
0.133778
0.0766516
-0.000339314
-0.0226018
0.0649774
0.132036
0.0984842
0.0147286
0.00606338
0.0473982
0.0593892
0.0320815
0.024819
0.00203624
-0.0116063
-0.0251583
0.0171268
0.0296833
0.0672625
0.0755657
0.0848869
0.134367
0.208348
0.211855
0.155679
0.135
0.119661
0.109208
0.108756
0.117941
0.137149
0.146561
0.157217
0.149163
0.146561
0.10371
0.0349548
0.0143892
0.0219005
0.0282806
0.0147965
-0.0346153
-0.0508144
0.00185524
0.0297964
-0.0268552
-0.123507
-0.144638
-0.139366
-0.132919
-0.141855
-0.121946
-0.0974887
-0.0836878
-0.055
0.0440498
0.24405
0.44
0.551629
0.50862
0.33595
0.163824
-0.0722398
-0.422466
-0.522692
-0.848439
-0.99448
-1.14068
-1.28197
-1.37308
-1.40387
-1.40968
-1.30986
-1.10937
-0.974005
-0.913869
-0.893869
-0.948575
-1.11303
-1.13724
-0.981448
-0.851109
-0.746742
-0.547624
-0.37819
-0.387828
-0.446109
-0.443077
-0.368507
-0.327579
-0.17
-0.206199
-0.196946
-0.132308
-0.0424434
-0.0081448
-0.0197511
-0.0118099
0.0558597
0.112919
0.12491
0.181606
0.308213
0.498891
0.729118
0.733371
0.65267
0.61181
0.595339
0.643235
0.675204
0.676403
0.672217
0.78733
0.82181
0.911674
1.01235
1.01335
0.973982
0.999186
0.869208
0.719208
0.684118
0.634027
0.598824
0.58319
0.517036
0.52095
0.534751
0.42362
0.242172
0.105543
0.123846
0.202466
0.210747
0.142828
0.159231
0.220747
0.212398
0.198846
0.080362
0.0469005
0.0484163
0.0602941
0.127195
0.154027
0.106131
0.0783937
0.115769
0.203462
0.166335
0.109389
0.167624
0.261176
0.170136
0.0347059
0.0942308
0.193371
0.0823304
-0.108688
-0.0295022
0.155068
0.160068
0.190023
0.214638
0.259434
0.199887
0.116154
0.0833485
0.121131
0.138597
0.105475
0.0666516
0.0118326
-0.0546154
-0.0716742
-0.0301357
0.000904996
0.0163122
0.00104075
-0.0348868
-0.00606332
0.00266969
-0.0480995
-0.112692
-0.106606
-0.12043
-0.0993213
-0.0135068
0.00656107
0.0364932
0.136923
0.343054
0.540045
0.578009
0.396697
0.0954751
-0.225792
-0.501991
-0.722987
-0.938937
-1.11425
-1.23448
-1.32943
-1.41407
-1.43842
-1.41776
-1.37229
-1.24188
-1.12115
-1.14005
-1.21907
-1.20785
-1.00604
-0.923394
-0.790045
-0.877172
-0.875385
-0.71457
-0.539412
-0.379005
-0.28733
-0.254321
-0.17
-0.0437783
-0.0315159
-0.133326
-0.224434
-0.21586
-0.117715
-0.0247738
0.00391402
0.00814479
0.0125113
0.026086
0.118982
0.231516
0.268733
0.316493
0.349118
0.435498
0.490701
0.560226
0.569434
0.653145
0.866018
0.998258
0.96043
0.922489
0.969186
0.965882
0.982127
0.99819
0.928982
0.914751
0.925792
0.821991
0.718032
0.673937
0.614774
0.585792
0.536086
0.450543
0.370226
0.339683
0.237602
0.195226
0.18905
0.213688
0.217398
0.179864
0.0876697
0.016086
0.0538914
0.146584
0.13957
0.0978507
0.120453
0.112534
0.0945476
0.122851
0.0812444
0.0643213
0.047172
0.0547512
0.0873304
0.0705657
0.0345702
0.0288236
0.0379186
0.091991
0.116086
0.130385
0.119231
0.0574888
0.0414028
0.0814933
0.116833
0.126923
0.126991
0.132149
0.1781
0.154751
0.0717421
0.0594118
0.0721494
0.0445928
-0.00400448
-0.0190497
0.0045702
0.0271494
0.0335295
-0.0359049
-0.100656
-0.120633
-0.11129
-0.0925566
-0.0788688
-0.0699321
-0.0852489
-0.125226
-0.0957692
-0.106629
-0.122036
-0.126561
-0.0612217
0.0398416
0.190973
0.357036
0.478688
0.465973
0.214932
-0.0800226
-0.375091
-0.680068
-0.874321
-0.988665
-1.04398
-0.975023
-0.921109
-0.851244
-1.14538
-1.41448
-1.4788
-1.35335
-1.23799
-1.17235
-1.16649
-1.28081
-1.23484
-1.06851
-0.986765
-0.970158
-0.878959
-0.687986
-0.492805
-0.416448
-0.378213
-0.283846
-0.203032
-0.205362
-0.211652
-0.192376
-0.117624
-0.0884389
-0.0697511
-0.065543
-0.0659276
-0.05138
0.012353
0.0699774
0.202217
0.339186
0.355928
0.506923
0.762285
0.696991
0.496176
0.419706
0.518145
0.605611
0.612398
0.663552
0.804389
0.860407
0.82172
0.802557
0.892851
0.923281
0.903914
0.654706
0.650679
0.686403
0.696968
0.70224
0.637127
0.476946
0.351652
0.331244
0.385769
0.380181
0.344661
0.333801
0.447262
0.530407
0.322443
0.0693892
0.00162898
0.0788236
0.170701
0.172376
0.0288914
-0.0246154
0.1069
0.153281
0.174661
0.0561991
-0.0171719
-0.0204298
-0.00328055
0.00411765
0.0516968
0.0546833
0.00264706
-0.0443891
0.0186651
0.126833
0.155317
0.14414
0.1081
0.151833
0.255543
0.244729
0.153982
0.158167
0.267398
0.236991
0.132036
0.147896
0.179706
0.217127
0.00943437
-0.139344
-0.0844118
-0.026086
-0.0694571
-0.0486878
0.051742
0.107059
0.112805
-0.0112444
-0.150204
-0.145837
-0.107873
-0.070181
-0.05181
-0.0327149
0.016991
0.0814706
0.0497512
-0.0116968
-0.0269457
0.0481901
0.198348
0.248937
0.500385
0.447783
0.160747
-0.130882
-0.492127
-0.858235
-1.09425
-1.20498
-1.29559
-1.2414
-1.1479
-1.25475
-1.45188
-1.54353
-1.40989
-1.22486
-1.16975
-1.15891
-1.1921
-1.10514
-0.992715
-0.945113
-0.869118
-0.729774
-0.685973
-0.466312
-0.350633
-0.299412
-0.296742
-0.291923
-0.255588
-0.148348
-0.0606561
-0.0573303
-0.098552
-0.139706
-0.141878
-0.118959
-0.0908371
-0.0326696
0.0699774
0.126991
0.142376
0.136584
0.150656
0.189299
0.232195
0.335023
0.50276
0.565973
0.75491
0.762964
0.739344
0.784887
0.865679
0.911765
0.952443
1.00242
0.972082
0.916946
0.902195
0.877941
0.827964
0.752104
0.646063
0.614186
0.597851
0.517195
0.456109
0.394118
0.356787
0.344638
0.297692
0.240815
0.223733
0.261267
0.228484
0.155498
0.132149
0.133167
0.119005
0.105815
0.108167
0.0799322
0.0364707
0.0227829
0.0346381
0.021267
0.00714939
0.0631675
0.129887
0.12233
0.0805657
0.0491177
0.022534
0.0313802
0.0800906
0.153122
0.191222
0.184977
0.159344
0.113891
0.043439
0.0981901
0.248077
0.232738
0.132172
0.126991
0.137692
0.134208
0.135973
0.123665
0.0759277
0.021629
0.025905
0.0681222
0.0340046
-0.0509049
-0.0711991
0.032896
0.197149
0.281855
0.330769
0.208439
0.140679
-0.116131
-0.0919005
-0.132624
-0.223552
-0.254548
-0.214842
-0.00959277
0.270701
0.425995
0.461765
0.36319
0.22095
0.104321
-0.167059
-0.503371
-0.784457
-1.0252
-1.14561
-1.19584
-1.26627
-1.30183
-1.32742
-1.35303
-1.36364
-1.36414
-1.24398
-1.16801
-0.967036
-0.831629
-0.821516
-0.671425
-0.511493
-0.532014
-0.52267
-0.513077
-0.5881
-0.596244
-0.473145
-0.348778
-0.31871
-0.281041
-0.177262
-0.152873
-0.123213
-0.0235294
-0.0489819
-0.124525
-0.070362
0.0633032
0.111516
0.324344
0.221968
0.128937
0.235068
0.391199
0.427104
0.457262
0.526833
0.545475
0.583303
0.635815
0.753326
0.905407
0.976742
1.02783
1.07382
0.969729
0.820611
0.846561
0.912217
0.992534
0.907783
0.7481
0.763416
0.788484
0.69362
0.493937
0.343824
0.378235
0.467285
0.380837
0.289118
0.302285
0.29543
0.193507
0.101222
0.0833937
0.105181
0.111516
0.148009
0.170113
0.162172
0.0638235
-0.0545701
-0.0827602
-0.0857014
-0.0383484
0.00429863
0.0620362
0.0848869
0.178145
0.106742
0.0453167
0.0188914
0.0625566
0.0816289
0.0765611
0.147195
0.228303
0.234299
0.160385
0.115294
0.160204
0.215023
0.19448
0.123643
0.113077
0.148824
0.22595
0.263643
0.166357
0.0937556
0.0753394
0.0711538
0.0556335
0.00355203
-0.044819
-0.0242308
0.0108823
0.0461086
0.021086
-0.0292308
-0.0398869
-0.031086
-0.0426471
-0.143891
-0.23414
-0.189367
-0.059095
-0.00823528
0.0035068
0.0706561
0.208167
0.335272
0.442896
0.416403
0.184796
-0.0876244
-0.394842
-0.506222
-1.00172
-1.20136
-1.29552
-1.30489
-1.33919
-1.36287
-1.35681
-1.31652
-1.25633
-1.23057
-1.24964
-1.23287
-1.10154
-0.995611
-1.05421
-1.06219
-0.930317
-0.808801
-0.647828
-0.522738
-0.467919
-0.427195
-0.359751
-0.260566
-0.219819
-0.187579
-0.16914
-0.165543
-0.16681
-0.117217
-0.0723304
-0.0581901
-0.0502262
-0.0525113
0.00142533
0.0563122
0.0952941
0.192805
0.264321
0.320882
0.41233
0.488077
0.568054
0.652692
0.71172
0.789729
0.886901
0.928688
0.960407
0.98181
0.998213
0.994434
0.985407
0.991222
0.956878
0.897104
0.831968
0.75233
0.682805
0.603032
0.518439
0.489389
0.464751
0.384683
0.34948
0.369208
0.348529
0.282285
0.231131
0.139887
0.0579412
0.0654525
0.0930317
0.0756562
0.0682353
0.105634
0.0872625
0.00323531
-0.0201584
0.0128507
0.0464706
0.0195702
0.0575792
0.110747
0.133869
0.141991
0.144977
0.132851
0.11638
0.0402941
0.0247738
0.0541855
0.103439
0.19776
0.267489
0.197104
0.0958597
0.164163
0.253054
0.258281
0.0742987
0.135226
0.216199
0.287986
0.185453
0.0031448
-0.0443439
0.127195
0.201946
0.134819
-0.0371493
-0.200362
-0.214367
-0.159072
-0.158914
-0.209072
-0.194661
-0.115701
-0.0517195
-0.0622625
-0.0626018
-0.0480769
-0.0686652
-0.0836652
-0.0932353
-0.0833711
-0.0288236
0.0710859
0.251742
0.458778
0.552036
0.400543
0.134072
-0.102081
-0.377692
-0.65819
-0.878529
-1.01867
-1.19876
-1.36387
-1.36396
-1.11862
-0.943281
-1.04817
-1.30317
-1.48778
-1.38197
-1.25597
-1.18484
-1.1586
-1.04217
-0.970498
-0.888801
-0.797511
-0.667014
-0.542059
-0.446403
-0.373891
-0.329751
-0.244525
-0.198213
-0.125724
-0.067172
-0.117851
-0.188281
-0.108371
-0.0188009
-0.0696606
-0.041086
0.0819683
0.0743439
0.0560633
0.122466
0.163756
0.174683
0.240158
0.355407
0.480272
0.534412
0.637896
0.800588
0.847489
0.788869
0.824842
0.890407
0.910905
1.01158
1.14729
1.04258
0.807715
0.707873
0.723145
0.668213
0.613326
0.618507
0.603688
0.583778
0.563733
0.44362
0.398394
0.312534
0.306335
0.295113
0.273756
0.19733
0.215814
0.30871
0.321018
0.238416
0.0757918
-0.0471267
-0.0158371
0.0410633
-0.00162899
-0.0240498
0.0330316
0.0444796
0.025905
0.148416
0.256629
0.109819
-0.112738
-0.141109
-0.0843213
-0.0667421
-0.0340272
0.0334841
0.136154
0.168756
0.121674
0.10052
0.110271
0.150385
0.150407
0.160362
0.225204
0.28509
0.335294
0.290747
0.146946
0.00395921
0.00635742
0.0430769
0.038552
0.0128054
0.0207239
0.00780539
-0.030362
-0.0490046
-0.0586879
-0.0294571
-0.0954978
-0.0954752
-0.049887
-0.0401358
-0.086629
-0.143778
-0.160271
-0.106312
-0.0724887
-0.0687557
-0.0439593
0.0166516
0.177557
0.428733
0.600158
0.517308
0.199909
-0.12233
-0.334186
-0.555249
-0.801018
-1.04167
-1.22208
-1.2724
-1.38301
-1.36857
-1.3388
-1.29405
-1.24905
-1.17853
-1.11828
-1.07824
-1.07769
-1.07695
-1.0117
-0.941539
-0.876154
-0.780747
-0.685362
-0.600747
-0.505181
-0.378462
-0.256335
-0.17819
-0.162964
-0.155792
-0.167127
-0.147308
-0.122579
-0.0837556
-0.0654072
-0.0372398
0.000339329
0.0476696
0.0802941
0.117851
0.160294
0.172308
0.188122
0.258439
0.323484
0.363077
0.44681
0.560158
0.651946
0.713439
0.745272
0.797127
0.893416
0.963937
0.953846
0.878869
0.869231
0.879299
0.883959
0.838688
0.793348
0.72276
0.642738
0.583258
0.578167
0.597172
0.550633
0.433665
0.40638
0.404231
0.386855
0.484615
0.482557
0.270068
0.0718326
0.00843892
0.0100905
0.0114027
0.0277828
0.0297964
0.0168326
0.0638235
0.0808597
0.107602
0.113869
0.110453
0.117466
0.149412
0.16595
0.0675566
-0.100475
-0.138348
-0.0909502
-0.0179638
0.0406335
0.0491403
0.0977376
0.176539
0.195339
0.154118
0.112783
0.136403
0.235317
0.279729
0.159706
0.0498191
0.0647738
0.0951584
0.171742
0.139208
0.136403
0.172285
0.126561
0.0296833
0.00178742
0.0379186
0.0280318
-0.0577375
-0.0787104
-0.0251583
-0.0266063
-0.0880769
-0.129434
-0.135701
-0.0966289
-0.082353
-0.137964
-0.153643
-0.0441629
0.0307466
0.0859729
0.196629
0.247919
0.514751
0.461629
0.248665
0.0964932
-0.0949774
-0.491109
-0.901991
-1.13278
-1.25357
-1.33914
-1.37466
-1.37029
-1.31593
-1.24156
-1.2421
-1.30226
-1.30206
-1.29652
-1.22115
-1.07609
-1.01088
-1.03534
-0.939887
-0.759796
-0.695317
-0.426335
-0.341923
-0.321199
-0.309299
-0.261041
-0.245928
-0.224344
-0.206833
-0.214163
-0.181267
-0.102919
-0.0491176
-0.0104072
0.0379638
0.0459729
0.0436199
0.0407919
0.0276018
0.129389
0.290747
0.386154
0.396086
0.520679
0.599774
0.598552
0.651765
0.79871
0.84448
0.874774
0.949977
0.944955
0.869977
0.925023
0.985
0.930158
0.850249
0.810294
0.740204
0.679955
0.689706
0.754502
0.749253
0.658462
0.58681
0.51
0.373145
0.271063
0.228846
0.211199
0.213348
0.225633
0.187692
0.159253
0.155701
0.1469
0.0732805
-0.0446154
-0.0475792
0.048552
0.114638
0.101357
0.0788688
0.0566968
0.029638
0.0626923
0.105068
0.107398
0.0752715
0.0590045
0.0729186
0.0662217
0.0592534
0.0728281
0.106719
0.125475
0.149344
0.143462
0.157851
0.172308
0.186403
0.150407
0.120045
0.120317
0.0911086
0.0472851
0.0233711
0.100543
0.162692
0.113778
0.0791177
0.0786652
0.0315158
0.00728508
-0.01819
-0.0640271
-0.0656109
-0.0180317
-0.0150679
-0.00119909
0.00368778
-0.046086
-0.106516
-0.15733
-0.0883484
-0.0241176
-0.049095
-0.0635068
0.0120362
0.122873
0.334548
0.551516
0.544751
0.313281
0.0820362
-0.169027
-0.48448
-0.740136
-0.955701
-1.06602
-1.12645
-1.21679
-1.31165
-1.33633
-1.30613
-1.29557
-1.29464
-1.24891
-1.17364
-1.1486
-1.09817
-1.00215
-0.920747
-0.844909
-0.74948
-0.579434
-0.454548
-0.383054
-0.314186
-0.263982
-0.233348
-0.170814
-0.152172
-0.143167
-0.128688
-0.108733
-0.0637783
-0.0141403
0.0352263
0.0791403
0.0975566
0.130769
0.168801
0.201584
0.233914
0.240769
0.307104
0.437624
0.532059
0.640747
0.738959
0.791674
0.864095
0.936086
0.922715
1.00425
1.06557
0.951539
0.847172
0.937534
0.962873
0.853439
0.754412
0.65052
0.621131
0.631199
0.736131
0.650882
0.505362
0.354887
0.309615
0.364118
0.407986
0.346516
0.279842
0.253258
0.191357
0.134072
0.116357
0.118462
0.145543
0.152421
0.124344
0.0614932
0.00364254
0.0306335
0.102941
0.130543
0.0832127
0.10638
0.119796
0.10319
0.0817873
0.130271
0.173959
0.132851
0.21138
0.36
0.279457
0.134276
-0.0158371
-0.0907918
-0.00574659
0.0790724
0.12871
0.14871
0.119072
0.0596154
0.0452489
0.076086
0.0723077
0.0747285
0.0683258
0.091629
0.0635294
0.0343439
-0.0558144
-0.00233027
-0.0102036
-0.0591629
-0.0535068
-0.0528507
-0.0925113
-0.0928733
-0.0436652
-0.0893439
-0.174774
-0.145204
-0.0605882
-0.0358144
-0.031018
-0.0110633
-0.0103846
0.115633
0.321878
0.478688
0.506448
0.199774
-0.181719
-0.432941
-0.498891
-0.844389
-1.09443
-1.24937
-1.29923
-1.34405
-1.39894
-1.40857
-1.38796
-1.35715
-1.30636
-1.25079
-1.14502
-1.0936
-1.08179
-1.04486
-1.00337
-0.956584
-0.814525
-0.687738
-0.596222
-0.479864
-0.398824
-0.337104
-0.278778
-0.254163
-0.2031
-0.190837
-0.223145
-0.154932
-0.0404751
-0.0105656
-0.101493
-0.143122
-0.0450452
0.0578959
0.130543
0.223665
0.296584
0.263597
0.209819
0.280249
0.420633
0.495973
0.56052
0.579412
0.673054
0.786199
0.878462
0.934977
0.95638
1.01794
0.974457
0.895566
0.896335
0.901968
0.787534
0.698258
0.759163
0.709932
0.605543
0.576018
0.531335
0.511584
0.447127
0.382873
0.422851
0.407692
0.277805
0.207285
0.211041
0.184027
0.136516
0.129186
0.121946
0.114502
0.101674
0.0384616
0.00490956
0.0363123
0.0631222
0.0102037
-0.0327601
0.0241629
0.101448
0.108891
0.0715385
0.0540724
0.0971268
0.120317
0.0933259
0.0313575
0.00957018
0.0676245
0.135747
0.139434
0.0931901
0.09181
0.125769
0.165294
0.185294
0.200317
0.135272
0.140566
0.166855
0.139072
0.10181
0.104729
0.136199
0.140815
0.124299
0.0472852
-0.001561
-0.0212895
-0.0414253
-0.0517646
-0.0325565
-0.0584162
-0.0795248
-0.0909049
-0.0573303
-0.00371038
-0.0295701
-0.149502
-0.21405
-0.218778
-0.128484
-0.13819
-0.0781222
0.0672851
0.228688
0.356176
0.474276
0.392443
0.105973
-0.195181
-0.436312
-0.641968
-0.852104
-1.07238
-1.25747
-1.3324
-1.25731
-1.20265
-1.24317
-1.24333
-1.16771
-1.1664
-1.20486
-1.14835
-1.12219
-0.991516
-0.925928
-0.870045
-0.754005
-0.673394
-0.643575
-0.593643
-0.452579
-0.299864
-0.265633
-0.265023
-0.237964
-0.164819
-0.14095
-0.156833
-0.10224
-0.053009
-0.0540498
-0.0599095
0.00873305
0.0617873
0.0894796
0.0912896
0.0825339
0.0885068
0.224186
0.339683
0.434638
0.498552
0.516448
0.538394
0.574615
0.620747
0.687376
0.784072
0.890204
0.945882
0.961471
0.956787
0.897104
0.831968
0.841787
0.856606
0.796538
0.73129
0.656018
0.590566
0.530271
0.495453
0.490407
0.494615
0.458213
0.456403
0.444344
0.372104
0.314412
0.261267
0.218122
0.180023
0.101697
0.103122
0.139525
0.0656561
-0.0281448
-0.0267421
0.0148416
0.00113121
0.0126244
0.039819
0.0374208
0.0801357
0.137715
0.0797964
0.0117421
0.00429866
0.0574435
0.015905
0.0593439
0.137896
0.176674
0.215882
0.155317
0.0545928
0.0185747
0.0674208
0.0963349
0.135634
0.229864
0.294231
0.199231
0.0500453
0.0314932
0.0984389
0.08
0.065362
0.0795023
0.0175792
-0.0954298
-0.10948
-0.0945927
-0.0305429
-0.0219683
-0.0331674
-0.0491176
-0.0452489
-0.126357
-0.222172
-0.192873
-0.128688
-0.0945249
-0.055362
0.0244344
0.0894344
0.119683
0.270452
0.456765
0.518303
0.375136
0.0975566
-0.184163
-0.470453
-0.731629
-1.01776
-1.2586
-1.31434
-1.41514
-1.45075
-1.48124
-1.46167
-1.40215
-1.37733
-1.32726
-1.17708
-1.07176
-1.07658
-1.07674
-0.996471
-0.890747
-0.790181
-0.634615
-0.420679
-0.286968
-0.312308
-0.426358
-0.443869
-0.319389
-0.2231
-0.255498
-0.217149
-0.173665
-0.0353846
-0.0670362
-0.0983484
-0.0545249
0.074095
0.0975792
0.110385
0.0675566
0.0140724
0.0949321
0.240407
0.321041
0.396403
0.516199
0.630769
0.739389
0.797172
0.79948
0.82638
0.917828
0.993688
1.01423
1.00959
0.999457
0.979072
0.909231
0.934706
0.88948
0.76371
0.678122
0.637715
0.592443
0.657127
0.671154
0.519638
0.382986
0.336448
0.319706
0.278077
0.221742
0.164502
0.171538
0.182986
0.128959
0.0945701
0.0753167
0.0811538
0.0872851
0.118937
0.126109
0.108394
0.0952941
0.101968
0.103959
0.080905
0.0480317
0.0409954
0.074095
0.0916289
0.10448
0.102986
0.132104
0.15629
0.155339
0.154366
0.148462
0.157579
0.131787
0.116109
0.175317
0.199434
0.189095
0.20957
0.21043
0.211403
0.173009
0.155385
0.142715
0.154366
0.115
0.0492307
0.0170588
0.0240724
0.0200226
0.0097285
-0.0110408
-0.0123756
-0.00382354
-0.0353168
-0.0466742
-0.0574661
-0.0730996
-0.0835747
-0.123213
-0.112376
-0.0419683
-0.0122851
-0.00794118
0.111855
0.16733
0.539231
0.607941
0.432217
0.191063
-0.0852263
-0.431154
-0.726652
-0.962263
-1.11342
-1.14941
-1.16498
-1.24491
-1.31
-1.3248
-1.33928
-1.37364
-1.29824
-1.22267
-1.13715
-1.02681
-0.946222
-0.975317
-0.949638
-0.82405
-0.783235
-0.642715
-0.512715
-0.457127
-0.404864
-0.335928
-0.27552
-0.193665
-0.105566
-0.0566063
-0.0820814
-0.187443
-0.20319
-0.0488462
0.0954072
0.0941176
0.0621946
0.0849547
0.162195
0.259389
0.321516
0.352941
0.388529
0.39862
0.423416
0.442715
0.686312
0.889186
0.961516
0.968281
1.01452
1.03541
1.046
1.02167
1.00242
0.953258
0.834299
0.77052
0.801154
0.795679
0.784887
0.729525
0.559864
0.470294
0.485339
0.40509
0.280023
0.215068
0.214796
0.239027
0.232896
0.226471
0.144638
0.0323529
0.0395475
0.131561
0.18862
0.110633
0.0126018
-0.00518103
0.00217192
0.014638
0.0321719
0.104728
0.11224
0.0598642
0.0879412
0.110769
0.028733
-0.0230769
0.0101131
0.0586425
0.0825113
0.0715384
0.0507013
0.0399321
-0.0256561
-0.0361991
-0.0218326
-0.057353
-0.058077
0.0311991
0.191041
0.346267
0.351697
0.302715
0.143846
-0.0383258
-0.0250453
0.0474434
-0.0361991
-0.136086
-0.112738
-0.000859752
0.0749547
0.0651131
0.000113092
-0.0149095
-0.0254299
-0.136312
-0.17724
-0.0882805
-0.0295475
-0.0654977
-0.111041
-0.136176
-0.120995
-0.0554751
0.0648643
0.150317
0.211403
0.382828
0.600023
0.522783
0.150747
-0.196063
-0.43233
-0.678213
-0.933665
-1.12873
-1.26362
-1.30869
-1.2943
-1.28995
-1.31493
-1.31916
-1.26344
-1.23312
-1.16281
-1.08699
-1.05545
-1.04842
-0.996584
-0.930226
-0.879276
-0.808824
-0.709299
-0.60457
-0.474072
-0.332353
-0.265249
-0.210882
-0.155023
-0.157986
-0.155
-0.13129
-0.15733
-0.203597
-0.0749321
0.189072
0.273167
0.167285
-0.00873302
-0.025905
0.10095
0.192466
0.173077
0.152783
0.257081
0.396131
0.479706
0.547783
0.635543
0.747534
0.838145
0.863462
0.91319
0.94819
0.948303
0.91353
0.883914
0.859321
0.804661
0.77991
0.775204
0.760272
0.619751
0.609163
0.54914
0.509095
0.508416
0.427081
0.335543
0.304072
0.287466
0.245385
0.198145
0.180701
0.187828
0.154186
0.160091
0.170634
0.116719
0.0633484
0.0254299
0.0175114
0.0493439
0.045181
0.0104525
0.00631226
0.0132127
0.010543
0.0527828
0.0799548
0.0774661
0.070181
0.0679638
0.0561539
0.0849095
0.0983258
0.0908598
0.0987331
0.112715
0.11724
0.101629
0.0957919
0.134932
0.139276
0.148801
0.149072
0.135181
0.101561
0.0735521
0.0816516
0.0941177
0.0949548
0.0393665
0.00719459
-0.0163348
-0.0258371
-0.031267
-0.0325566
-0.0339819
-0.0552715
-0.0666968
-0.103213
-0.10948
-0.065362
-0.0563801
-0.102195
-0.177602
-0.23767
-0.1731
-0.0434163
0.0467194
0.172353
0.388416
0.580068
0.607489
0.405724
0.324389
-0.132014
-0.44319
-0.693846
-0.929208
-1.10971
-1.2157
-1.2867
-1.33749
-1.38283
-1.40726
-1.42124
-1.44543
-1.36011
-1.23529
-1.14514
-1.02491
-0.949683
-0.924842
-0.870113
-0.740566
-0.636561
-0.572805
-0.482873
-0.286063
-0.207873
0.0214253
0.0270588
-0.0661086
-0.178416
-0.220362
-0.206697
-0.167376
-0.118145
-0.0442986
0.0241629
0.11233
0.164457
0.071086
0.00271495
0.0993439
0.285928
0.386448
0.400973
0.425068
0.513756
0.541878
0.524412
0.61129
0.797738
0.863846
0.944796
0.915498
0.955815
1.01091
1.01577
1.02068
1.08088
1.02086
0.900815
0.740679
0.560294
0.479842
0.519434
0.558756
0.592986
0.572172
0.421018
0.284457
0.35267
0.440747
0.328529
0.175814
0.11776
0.114276
0.120633
0.102172
0.0738688
0.100588
0.0573982
-0.0407014
-0.0388688
-0.00244344
-0.0311538
0.0304977
0.0176471
-0.0149095
0.0975792
0.150294
0.108122
0.115973
0.169118
0.152217
0.135679
0.169299
0.1631
0.10233
0.0719231
0.131652
0.15629
0.140679
0.0948416
0.179027
0.203575
0.168846
0.10957
0.0859502
0.0584163
-0.00325792
-0.0499321
-0.00262442
0.0792082
0.0789367
0.012353
-0.0654072
-0.044276
0.0760633
0.0359728
-0.0695701
-0.0552263
-0.00604072
-0.0370362
-0.113122
-0.194412
-0.115475
-0.0760407
-0.0111538
-0.0406787
0.0150679
0.136109
0.307579
0.504615
0.621765
0.44371
0.135701
-0.0814027
-0.302647
-0.546923
-0.775475
-0.964344
-1.07882
-1.24443
-1.41529
-1.45066
-1.39045
-1.30995
-1.25937
-1.1683
-1.06686
-1.12579
-1.16495
-1.15371
-0.996968
-0.865204
-0.79862
-0.722285
-0.636448
-0.551538
-0.422036
-0.316063
-0.267919
-0.218484
-0.142579
-0.100543
-0.0922851
-0.0684842
-0.0737104
-0.0935294
-0.0330317
-0.0478733
-0.0182127
0.0554977
0.0781448
0.120158
0.217036
0.243982
0.256109
0.338032
0.424186
0.509774
0.560452
0.625996
0.750204
0.843054
0.945045
0.966357
0.922557
0.928914
0.930136
0.921267
0.902149
0.902489
0.957715
0.957738
0.882421
0.782398
0.717195
0.651652
0.571719
0.52733
0.518009
0.453394
0.468801
0.393891
0.342964
0.296946
0.17095
0.0892534
0.106946
0.139615
0.152353
0.130136
0.0677149
0.0554751
0.0278054
0.0197963
0.00167417
-0.0212217
-0.0190046
0.00800901
0.03
0.0526923
0.0610407
0.039276
0.0473529
0.0551357
0.0481674
0.0372172
0.06638
0.040362
0.0297058
0.0446153
0.049276
0.0683031
0.102421
0.117557
0.107873
0.0980995
0.113077
0.0735068
0.0345927
0.0413348
0.123869
0.237217
0.320407
0.317647
0.203869
-0.00642532
-0.168054
-0.200611
-0.188959
0.00692304
0.0619909
-0.0238236
-0.115
-0.120995
-0.0866063
-0.117059
-0.161968
-0.181199
-0.210995
-0.215928
-0.150814
-0.0652036
-0.0193212
0.0517647
0.243326
0.47095
0.539231
0.297579
0.00110861
-0.219955
-0.465543
-0.745543
-0.975294
-1.03986
-1.24939
-1.3343
-1.34452
-1.32923
-1.33885
-1.28814
-1.23213
-1.17129
-1.10025
-1.07346
-1.07676
-1.05032
-1.02848
-1.03645
-0.984163
-0.862466
-0.675996
-0.524615
-0.388507
-0.236652
-0.198371
-0.243778
-0.232941
-0.17595
-0.152919
-0.118801
-0.0791855
0.0153846
0.0749095
0.0844796
0.12371
0.177398
0.165339
0.107421
0.0590272
0.140317
0.196697
0.258575
0.474729
0.535452
0.530181
0.628846
0.736787
0.80448
0.817036
0.794118
0.795633
0.841901
0.963167
1.00423
0.970158
0.895475
0.840339
0.820204
0.775158
0.665226
0.600498
0.62595
0.596131
0.586177
0.556154
0.456109
0.396041
0.335814
0.275317
0.203982
0.232421
0.300226
0.202579
0.0597964
0.0621946
0.149683
0.176697
0.133235
0.109457
0.135611
0.157036
0.0940724
-0.0481448
-0.144548
-0.135611
-0.0219909
0.0258371
-0.00196834
-0.0198869
0.0323529
0.0454977
0.0691176
0.112692
0.130973
0.12457
0.138688
0.107805
0.056629
0.120317
0.109253
0.108507
0.153145
0.223281
0.24371
0.21448
0.065905
0.00816742
0.125724
0.192421
0.147986
0.0875339
0.0259276
0.00305431
-0.040905
-0.0402489
0.0243665
0.0585294
-0.0122624
-0.0629412
-0.118575
-0.129163
-0.0797964
-0.0953167
-0.175407
-0.140317
-0.0853846
-0.100385
-0.0702262
-0.0500905
0.120136
0.225837
0.362443
0.509819
0.442715
0.146041
-0.190385
-0.461652
-0.718009
-0.959774
-1.22136
-1.33179
-1.26602
-1.2548
-1.33851
-1.36262
-1.3067
-1.20575
-1.095
-1.03446
-0.973959
-1.05792
-1.15163
-1.06527
-1.01812
-0.841086
-0.729729
-0.648733
-0.572919
-0.507489
-0.387081
-0.280769
-0.282941
-0.288281
-0.261652
-0.228869
-0.100543
-0.0119683
0.0017647
0.0204977
0.0291629
0.0173755
-0.00481902
0.0428507
0.090362
0.122738
0.129366
0.129457
0.198529
0.237262
0.416357
0.485837
0.634796
0.758009
0.825566
0.80267
0.77448
0.87138
0.993167
1.02428
0.999932
0.945498
0.890837
0.835724
0.734977
0.654367
0.608959
0.573959
0.553869
0.548416
0.527896
0.527353
0.481244
0.410226
0.389819
0.319389
0.243348
0.216765
0.239751
0.25224
0.169548
0.0961991
0.0777602
0.054638
0.0367195
0.0338009
0.0807466
0.121833
0.12267
0.0690498
0.0211313
0.0230996
0.0302715
0.0277828
0.0354299
0.0530317
0.0708824
0.0839141
0.0617195
0.0495702
0.0280317
0.0667874
0.130701
0.165272
0.139955
0.123982
0.153077
0.162466
0.14681
0.141267
0.170814
0.186267
0.172285
0.153982
0.176403
0.233665
0.214729
0.129208
0.152149
0.288824
0.259457
0.023914
-0.217511
-0.238869
-0.209887
-0.125995
-0.112376
-0.0787557
-0.0594344
-0.0842986
-0.134005
-0.183824
-0.194208
-0.160339
-0.131448
-0.0571945
0.0785521
0.250249
0.392262
0.539525
0.551787
0.324842
-0.0114932
-0.372851
-0.689253
-0.905543
-1.06181
-1.19253
-1.28276
-1.30258
-1.33208
-1.34179
-1.31699
-1.26258
-1.25796
-1.23801
-1.1029
-0.86267
-0.697195
-0.681629
-0.821516
-0.976335
-0.831629
-0.597036
-0.547127
-0.586312
-0.514638
-0.442376
-0.383575
-0.267602
-0.18009
-0.121855
-0.0385068
0.00981903
0.0182579
-0.0983936
-0.125362
-0.0927149
-0.0154977
0.0464706
0.0533032
0.119977
0.266606
0.27767
0.192783
0.222376
0.356425
0.49491
0.562715
0.625407
0.732195
0.868281
0.888846
0.864276
0.889661
0.91
0.910023
0.950113
0.945385
0.940747
0.850769
0.830362
0.724819
0.58914
0.538326
0.507602
0.456968
0.486244
0.575249
0.498914
0.317149
0.199842
0.157398
0.0649548
0.0275566
0.0943892
0.11595
0.107421
0.103665
0.109661
0.110701
0.0820815
0.0634615
0.0497511
0.0361086
0.00285068
-0.0298869
-0.0174661
0.0499548
0.0728507
0.0615837
0.0604299
0.143484
0.190724
0.12319
0.055905
0.0890951
0.142489
0.086086
0.0147738
0.0386878
0.122466
0.161109
0.229796
0.308665
0.272828
0.117466
0.017715
0.0286878
0.0502489
0.117602
0.065
0.0363801
0.0361991
0.0344344
0.0263801
0.0422172
0.0370815
0.00131226
-0.0901357
-0.157285
-0.119751
-0.0368552
0.0112896
-0.000271471
-0.0411312
-0.0570814
-0.087828
-0.151991
-0.109706
0.0226923
0.179095
0.344276
0.509819
0.556674
0.419118
0.201561
0.0391629
-0.207896
-0.569502
-0.880362
-1.06572
-1.14577
-1.19548
-1.27514
-1.35493
-1.36536
-1.32588
-1.26618
-1.23118
-1.20618
-1.19122
-1.18109
-1.10036
-0.959751
-0.864864
-0.81552
-0.766018
-0.641516
-0.592443
-0.378054
-0.301878
-0.253462
-0.233258
-0.236493
-0.233371
-0.15448
-0.11052
-0.09681
-0.103213
-0.0688688
-0.00898188
0.0360634
0.085
0.123077
0.120068
0.12681
0.173439
0.255158
0.316923
0.407919
0.512443
0.585747
0.653371
0.68043
0.826946
0.873213
0.924208
0.98491
1.02516
1.01018
0.965679
0.981697
0.987828
0.953643
0.888824
0.828349
0.772602
0.687398
0.607692
0.562896
0.512692
0.457036
0.40138
0.335928
0.315204
0.298801
0.272014
0.265181
0.267783
0.194706
0.176425
0.158167
0.139615
0.136222
0.103213
0.0753168
0.0771494
0.0887783
0.100362
0.0719005
0.0739819
0.071267
0.0786878
0.0661991
0.0336652
0.0611765
0.119276
0.127896
0.186787
0.320724
0.359683
0.268733
0.238371
0.228348
0.0781222
0.117805
0.207624
0.0973982
-0.0580995
-0.0683258
0.012353
0.128891
0.19586
0.143597
0.0667874
0.0294797
0.0661991
0.0623304
0.0174209
-0.0395475
-0.0732579
-0.0978054
-0.10276
-0.0780995
-0.0539593
-0.045181
-0.0660859
-0.0965158
-0.0966742
-0.0468326
-0.0421041
-0.0273077
-0.0223303
0.00298642
0.0687783
0.209706
0.300679
0.431968
0.589276
0.576968
0.285588
-0.075181
-0.450475
-0.820724
-1.09649
-1.24706
-1.26192
-1.16652
-1.14631
-1.31631
-1.52633
-1.5812
-1.44066
-1.38495
-1.19396
-1.16783
-1.19183
-1.18077
-1.09937
-1.00278
-0.85629
-0.7
-0.589118
-0.553507
-0.467941
-0.340928
-0.252534
-0.187692
-0.0821493
-0.0145701
-0.106018
-0.236538
-0.266493
-0.196448
-0.0567195
0.0676697
0.1069
0.0111312
-0.0203167
0.032172
0.118982
0.225543
0.316946
0.328032
0.328575
0.418665
0.543303
0.612579
0.686425
0.769796
0.842217
0.924027
1.0307
1.06733
1.06346
1.00432
0.910045
0.855815
0.876674
0.907579
0.853122
0.753643
0.694072
0.674434
0.684683
0.669548
0.559299
0.444344
0.354367
0.259253
0.194457
0.219389
0.178575
0.157489
0.196222
0.178778
0.135905
0.118235
0.115045
0.0961765
0.0273756
-0.00590496
0.0663122
0.0638914
0.0114027
-0.0162896
-0.0190271
-0.0515158
-0.0686878
0.0242987
0.0974434
0.0957466
0.104186
0.137828
0.171742
0.170905
0.0903846
0.0249321
0.0244118
0.0590724
0.109095
0.109163
0.0794344
0.0848416
0.120656
0.186652
0.228122
0.209796
0.111968
0.0801583
0.0934842
0.0353167
-0.0247964
-0.0216063
0.080181
0.0257692
-0.0644118
-0.0946606
-0.0492534
-0.023733
0.000610851
0.00886878
-0.0531674
-0.054638
-0.095905
-0.141787
-0.117896
-0.0996833
-0.106674
-0.0979412
0.00201357
0.142919
0.299729
0.422624
0.455724
0.27914
0.0184163
-0.251719
-0.346697
-0.756357
-0.985837
-1.23568
-1.34581
-1.34097
-1.30602
-1.29581
-1.3202
-1.37464
-1.30964
-1.15473
-1.04943
-1.0438
-1.06285
-1.04654
-0.990249
-0.908914
-0.822443
-0.766312
-0.676109
-0.566244
-0.425747
-0.303756
-0.284887
-0.284118
-0.167195
-0.129253
-0.115453
-0.111335
-0.107353
-0.0935294
-0.0294118
-0.0101357
0.0189366
0.0524435
0.0752715
0.137715
0.199887
0.201561
0.22276
0.318258
0.388054
0.49233
0.57138
0.604729
0.637511
0.749932
0.886674
0.932828
0.938801
0.934729
0.910566
0.875928
0.881018
0.86638
0.826674
0.791787
0.761923
0.741923
0.666425
0.585362
0.494231
0.428575
0.378235
0.332964
0.302602
0.277127
0.220995
0.188869
0.175905
0.137986
0.110475
0.107851
0.0798643
0.0563122
-0.00773755
0.0179864
0.0538914
0.100566
0.123077
0.055543
0.0128959
0.0504299
0.117805
0.114887
0.0522172
0.0404299
0.0587783
0.0570136
0.00520361
-0.00142533
0.0867647
0.115023
0.124072
0.138552
0.148416
0.253032
0.327036
0.451063
0.505362
0.425136
0.250339
0.185928
0.142149
0.0140272
0.00624434
0.0235973
-0.0395701
-0.0838235
-0.0594118
-0.0304299
-0.0134615
-0.0376244
-0.118054
-0.159072
-0.130272
-0.0611765
-0.0420815
-0.00805429
0.00581449
-0.0198869
-0.0652941
-0.0658823
-0.041448
-0.0413801
-0.0356108
-0.0544344
-0.00332578
0.187738
0.453914
0.595656
0.532851
0.270679
-0.0655882
-0.381538
-0.602534
-0.833032
-1.0833
-1.24851
-1.27371
-1.21885
-1.25423
-1.34477
-1.40032
-1.33541
-1.20502
-1.10943
-1.06367
-1.06276
-1.07183
-1.00586
-0.944819
-0.893801
-0.817941
-0.702466
-0.597376
-0.477534
-0.341946
-0.24957
-0.220747
-0.205588
-0.194389
-0.147353
-0.10957
-0.0865158
-0.0628507
-0.0639366
-0.0850226
-0.0464027
0.0421267
0.160453
0.278167
0.255136
0.191425
0.192195
0.252534
0.317534
0.467081
0.610995
0.734186
0.726154
0.671901
0.746946
0.827036
0.922444
1.03796
1.12301
1.14821
1.01912
0.815475
0.726674
0.717421
0.6881
0.663326
0.668145
0.617805
0.527489
0.446946
0.386176
0.370249
0.378914
0.447172
0.460407
0.298778
0.147149
0.065
0.0821945
0.174593
0.197443
0.160611
0.0534841
-0.0292082
-0.0125792
-0.011267
-0.000135794
0.045837
0.0472171
-0.015905
-0.0391856
-0.0175792
-0.0207919
0.0111086
0.0280995
0.055362
0.0728054
0.115181
0.0826923
0.0906335
0.0788461
0.0574661
0.0265611
0.115928
0.260362
0.259977
0.0997964
-0.0407014
-0.0768326
0.0171719
0.111855
0.142398
0.109095
0.121652
0.123575
0.0443212
-0.0108145
-0.00717196
-0.0100452
-0.0343891
-0.0497511
-0.0606561
-0.0864253
-0.0319457
0.0522398
0.0561086
-0.0306109
-0.117285
-0.153326
-0.143891
-0.124253
-0.139683
-0.140113
-0.0698643
-0.00432127
0.125882
0.281244
0.392376
0.474118
0.416493
0.154751
-0.121403
-0.412624
-0.648891
-0.860023
-1.06086
-1.11629
-1.26656
-1.36206
-1.39762
-1.36308
-1.36317
-1.39276
-1.33688
-1.2607
-1.17477
-1.10919
-1.05885
-1.01344
-0.938145
-0.852873
-0.72224
-0.462421
-0.227489
-0.0965837
-0.104321
-0.195679
-0.235045
-0.182579
-0.179118
-0.284774
-0.324932
-0.255407
-0.211222
-0.227398
-0.0789366
0.089638
0.133054
0.0756109
0.12224
0.198167
0.238597
0.283801
0.373824
0.473937
0.478824
0.492873
0.624932
0.781154
0.842127
0.818213
0.874321
0.995045
1.03993
1.01448
1.01919
1.01382
0.918552
0.818484
0.723213
0.692692
0.672353
0.657014
0.661199
0.660272
0.579457
0.463597
0.442398
0.446086
0.424253
0.387059
0.334706
0.246516
0.162783
0.104163
0.0658824
0.0474661
0.118416
0.263801
0.213914
0.114367
0.115475
0.127149
0.0789593
0.156131
0.153552
0.0108371
-0.0368552
0.0757692
0.168688
0.141742
0.0949774
0.038371
0.0368326
0.0656561
0.045
0.11948
0.173801
0.162986
0.152217
0.151516
0.165814
0.155294
0.0700226
0.065
0.190226
0.231109
0.177851
0.150113
0.132557
0.0747285
0.0358824
0.0757692
0.0942534
0.0664706
0.0374887
-0.0274434
-0.0524434
0.00703618
0.00626694
-0.0547738
-0.110769
-0.147149
-0.148484
-0.109547
-0.0904298
-0.0910407
-0.0462896
-0.0112896
0.0688914
0.214321
0.270294
0.567127
0.530249
0.259367
0.0342308
-0.190656
-0.53586
-0.826448
-0.961742
-1.13181
-1.37235
-1.50833
-1.52421
-1.4548
-1.40548
-1.45561
-1.41505
-1.27396
-1.15821
-1.08247
-1.03147
-0.995498
-0.944661
-0.893778
-0.828032
-0.803326
-0.514321
-0.409095
-0.331833
-0.258122
-0.233235
-0.1769
-0.0890497
-0.0851584
-0.090724
-0.0608371
-0.0560859
-0.0418552
0.0168552
0.0201584
-0.0316063
0.00108598
0.113371
0.180452
0.182511
0.22948
0.330792
0.406448
0.496742
0.591652
0.620837
0.78914
0.881629
0.948462
1.01986
1.05079
1.03143
1.01744
1.04394
1.0652
1.01615
0.921991
0.857511
0.787828
0.733529
0.684186
0.62405
0.558281
0.492557
0.44181
0.390385
0.348982
0.312624
0.290679
0.263122
0.240724
0.194185
0.142964
0.101109
0.0986199
0.121063
0.0686651
0.0159955
0.032828
0.0449321
0.0328054
0.000656061
-0.00162899
0.0411538
0.0438461
0.0062443
0.0091176
0.0279185
0.0721719
0.126041
0.134344
0.0924434
0.0562217
0.0156787
0.0399095
0.0640045
0.148439
0.108167
0.102602
0.13681
0.161244
0.146244
0.141742
0.14733
0.167828
0.133597
0.074638
0.0525339
0.0712443
0.0392307
-0.0237783
-0.0489593
-0.0108824
-0.0339367
-0.0925113
-0.106946
-0.0676018
-0.0338462
-0.0702036
-0.0816516
-0.0681901
-0.069819
-0.156109
-0.151946
-0.117376
-0.107376
-0.0722398
-0.00708144
0.0635294
0.184593
0.411086
0.572534
0.430136
0.133303
-0.128145
-0.414321
-0.680249
-0.895226
-1.07957
-1.22398
-1.31862
-1.29321
-1.27292
-1.25792
-1.2626
-1.2771
-1.17701
-1.10197
-1.05147
-1.04559
-1.10468
-1.07405
-0.948032
-0.861199
-0.794208
-0.668122
-0.523235
-0.427443
-0.359977
-0.315882
-0.241063
-0.184457
-0.187195
-0.134163
-0.120249
-0.135475
-0.095362
-0.000452507
0.00882352
0.0122172
0.0300226
0.0729412
0.175973
0.288778
0.396199
0.528032
0.483914
0.424231
0.559321
0.729186
0.678462
0.567081
0.554729
0.686357
0.817421
0.833416
0.815023
0.866584
0.892466
0.827715
0.782738
0.828077
0.803507
0.758643
0.758801
0.763824
0.618575
0.453281
0.373077
0.432828
0.532376
0.516833
0.345995
0.259548
0.31267
0.285701
0.158484
0.0612896
0.128575
0.220543
0.192579
0.0694796
0.00622173
0.0230769
0.125023
0.212195
0.209502
0.0967195
-0.121131
-0.233733
-0.241222
0.011267
0.0488009
0.00667419
-0.015362
0.00255655
0.030905
0.0246154
0.0334389
0.122376
0.191516
0.160792
0.125181
0.164389
0.188846
0.168529
0.188281
0.218213
0.168145
0.118167
0.0888236
0.125837
0.163937
0.146606
0.137851
0.147783
0.11129
-0.0515611
-0.115679
-0.110566
-0.0804525
-0.0753394
-0.0605656
0.00382355
-0.0217194
-0.0725565
-0.0488914
-0.019819
-0.0203394
-0.0507013
-0.0660181
0.0289366
0.033914
-0.0808371
-0.0350679
0.251471
0.538778
0.501719
0.220113
-0.0761312
-0.167127
-0.532624
-0.697625
-0.882715
-1.05294
-1.22342
-1.349
-1.3991
-1.32353
-1.19812
-1.12281
-1.19765
-1.28242
-1.29661
-1.27532
-1.1936
-1.03147
-0.944796
-0.928824
-0.897873
-0.791833
-0.666471
-0.496719
-0.321538
-0.235068
-0.217149
-0.32276
-0.356742
-0.249163
-0.081086
-0.0083258
-0.0802941
-0.121765
-0.048371
-0.000203565
0.0430317
0.0762444
0.0986652
0.105339
0.166584
0.273032
0.309276
0.340113
0.44448
0.502783
0.551244
0.634706
0.716787
0.792149
0.857602
0.878982
0.935407
0.956086
0.926425
0.911878
0.882511
0.818054
0.778552
0.768756
0.727896
0.666018
0.603869
0.567828
0.531968
0.490905
0.444729
0.338348
0.301901
0.315204
0.258009
0.205724
0.193597
0.171086
0.127964
0.0796607
0.0665385
0.0631448
0.0596154
0.126131
0.177715
0.15948
0.0859955
0.00714935
-0.0413574
-0.0241176
0.00380094
0.0319684
0.0648643
0.1269
0.108756
-0.0392534
-0.136493
-0.0382126
0.0658824
0.0655883
0.125317
0.219706
0.228959
0.213145
0.227443
0.22172
0.100656
0.124977
0.190045
0.160362
0.056086
0.0126697
0.0199095
0.0169457
0.00305434
-0.0120362
-0.052828
-0.115588
-0.109321
-0.0387556
0.0161539
0.0107919
-0.0752715
-0.141787
-0.112986
-0.10371
-0.0643439
-0.0503394
-0.0917421
-0.0983258
-0.0997285
-0.070543
-0.0256109
0.059638
0.189955
0.33
0.420181
0.435928
0.323009
0.166923
-0.0230995
-0.33319
-0.714208
-1.0105
-1.09647
-1.09181
-1.19672
-1.26167
-1.25697
-1.25215
-1.26697
-1.25624
-1.22534
-1.2248
-1.20966
-1.19428
-1.04844
-0.972919
-0.818122
-0.668507
-0.649253
-0.675226
-0.495045
-0.208235
-0.154819
-0.259457
-0.287466
-0.234299
-0.210543
-0.206538
-0.132511
-0.0133937
0.00572401
-0.0301583
-0.00124431
0.12224
0.185317
0.202828
0.209796
0.22129
0.23233
0.302919
0.352738
0.406946
0.530679
0.643552
0.68086
0.737647
0.839027
0.920113
0.905634
0.945837
0.99586
1.01602
0.951765
0.862805
0.88862
1.00389
0.963756
0.778348
0.617828
0.572285
0.596742
0.62638
0.606109
0.585362
0.44871
0.341448
0.179208
0.11233
0.0853168
0.112873
0.169977
0.216787
0.193507
0.170136
0.231538
0.242376
0.0836425
-0.0843665
-0.127398
-0.030724
0.110882
0.117738
0.0397964
0.00699094
0.0694796
0.13724
0.185249
0.153439
0.126878
0.0158597
0.0452262
0.0943665
0.0981448
0.117149
0.171471
0.176086
0.180724
0.205249
0.184774
0.134299
0.129299
0.144638
0.145226
0.23638
0.313326
0.315679
0.193054
-0.0351358
-0.183982
-0.153484
-0.0592308
-0.0419231
-0.0161765
-0.000837129
-0.0354072
-0.110385
-0.0907692
-0.0564253
-0.102036
-0.192602
-0.213394
-0.124253
-0.0399321
-0.0450453
-0.0500226
0.045362
0.226154
0.362647
0.494774
0.58681
0.408982
0.127195
-0.153032
-0.5181
-0.859186
-1.066
-1.1774
-1.26367
-1.28518
-1.33591
-1.40057
-1.43977
-1.40326
-1.34593
-1.31339
-1.24652
-1.16029
-1.08937
-1.02837
-0.972557
-0.907059
-0.807127
-0.68776
-0.5531
-0.477511
-0.370294
-0.296833
-0.2669
-0.180272
-0.112534
-0.063733
-0.0841403
-0.134276
-0.134819
-0.0910633
-0.0325339
-0.00814479
0.0167421
0.0706335
0.112851
0.14948
0.151403
0.203597
0.300475
0.361923
0.407421
0.507127
0.535815
0.569118
0.726652
0.924027
1.00133
1.00855
1.04545
1.09217
1.0988
1.02998
0.935113
0.90957
0.869344
0.839819
0.790769
0.741425
0.696448
0.616222
0.516018
0.40095
0.371154
0.39129
0.331018
0.244661
0.212986
0.231222
0.214367
0.156629
0.133959
0.146335
0.133801
0.131584
0.13405
0.0607466
0.0323077
0.0640271
0.0709955
0.0392534
0.0435973
0.0578506
0.0711991
0.058552
0.0104977
-0.0271267
0.0215611
0.0709728
0.0756787
0.0605656
0.0452036
0.069457
0.13405
0.128891
0.103507
0.162783
0.206855
0.166335
0.0566289
0.0423755
0.108326
0.0949773
0.0973756
0.109796
0.152421
0.100588
0.0533258
-0.00481904
0.0106787
0.124072
0.245837
0.196425
0.176176
0.22043
0.104683
-0.0261765
-0.122149
-0.333281
-0.499299
-0.435475
-0.241674
-0.0924887
-0.033009
-0.0482579
-0.00787332
0.123077
0.289231
0.460769
0.512738
0.415339
0.0884841
-0.132624
-0.358348
-0.653733
-0.913484
-1.10799
-1.2324
-1.27181
-1.24652
-1.18147
-1.10622
-1.18063
-1.33009
-1.29457
-1.08407
-0.998235
-1.03688
-1.06563
-1.01473
-0.938824
-0.863122
-0.792873
-0.727987
-0.708394
-0.563032
-0.495339
-0.415294
-0.338982
-0.281833
-0.253575
-0.15905
-0.033914
0.0509728
0.0455204
-0.0549774
-0.100634
-0.0514706
0.032285
0.105747
0.138416
0.205588
0.252376
0.248484
0.23914
0.30957
0.444434
0.548529
0.621833
0.649683
0.866991
0.908846
0.905317
0.891425
0.847308
0.898348
1.01919
1.04457
1.02493
0.970407
0.775724
0.610837
0.630996
0.706041
0.696109
0.636041
0.570679
0.37491
0.234186
0.198597
0.17776
0.201584
0.215023
0.162919
0.145566
0.152896
0.139774
0.166629
0.16862
0.0755656
-0.0279864
-0.0768552
-0.135543
-0.119796
0.0100905
0.0955204
0.067715
-0.0140045
-0.100475
-0.0821719
0.0158598
0.0348869
0.0902489
0.165656
0.191154
0.17181
0.146765
0.106335
0.100566
0.108733
0.196109
0.228982
0.207805
0.22724
0.237127
0.157081
0.0873982
0.108507
0.125317
0.152805
0.150701
0.108281
0.0491856
0.0338688
-0.0175113
-0.080181
-0.0789593
-0.0637557
-0.0991855
-0.0996606
-0.0600905
-0.0756561
-0.106041
-0.0866742
-0.0729638
-0.0291629
-0.0745249
-0.164434
-0.149344
-0.034638
0.0497511
0.144638
0.280498
0.452149
0.53905
0.395837
0.0330317
-0.29457
-0.501629
-0.683303
-0.894434
-1.12989
-1.25966
-1.27419
-1.29362
-1.30803
-1.31303
-1.30348
-1.26378
-1.2486
-1.11805
-1.08747
-1.10163
-1.06566
-0.994955
-0.924412
-0.858688
-0.772986
-0.628032
-0.50862
-0.403552
-0.356403
-0.288235
-0.189299
-0.145068
-0.173054
-0.114638
-0.0754525
-0.0861991
-0.0668326
-0.0122851
0.0116289
0.0145701
0.0621719
0.0799095
0.107376
0.134548
0.19638
0.241878
0.266561
0.331606
0.396357
0.470068
0.617511
0.739004
0.805249
0.881697
0.948122
0.964344
0.935453
0.935882
0.990656
1.01507
1.12428
1.31348
1.2031
0.853054
0.557851
0.452127
0.440747
0.514367
0.408597
0.237941
0.182104
0.145905
0.15948
0.20319
0.161561
0.14405
0.17129
0.183281
0.140271
0.127195
0.144005
0.105882
0.0777375
0.0392986
-0.004638
0.00669684
0.0282127
-0.00988686
-0.0376244
0.0043439
0.0510407
0.0582353
0.0457692
0.0283937
0.0564027
0.0696606
0.0376697
0.0506335
0.143416
0.175995
0.154208
0.148303
0.162647
0.187127
0.171312
0.129955
0.18362
0.302919
0.267873
0.128643
0.0254299
0.0377376
0.0849095
0.14138
0.161471
0.115113
0.0977149
0.0244344
-0.109864
-0.180113
-0.125792
-0.0764027
-0.102443
-0.0890724
-0.0504977
-0.0516063
-0.0881674
-0.110045
-0.10086
-0.101176
-0.0963801
-0.0513801
-0.0365384
-0.0163348
0.114321
0.375385
0.562398
0.440181
0.193439
0.00690045
-0.169276
-0.249955
-0.910498
-1.17131
-1.22165
-1.21174
-1.25699
-1.35224
-1.40742
-1.35742
-1.26247
-1.21753
-1.16758
-1.16251
-1.15229
-1.05199
-1.01163
-1.12726
-1.08333
-0.829774
-0.535973
-0.375701
-0.333891
-0.365815
-0.366154
-0.285023
-0.247647
-0.179593
-0.126176
-0.082285
-0.0828054
-0.0525565
0.00352943
0.0286199
0.0463575
0.0876924
0.154095
0.180837
0.15276
0.153824
0.253778
0.413326
0.491674
0.44457
0.497195
0.654231
0.705792
0.772172
0.863484
0.914525
0.92052
0.926267
0.941448
0.926539
0.966561
0.926471
0.901561
0.841674
0.756177
0.775317
0.774502
0.648575
0.522557
0.441244
0.359819
0.323484
0.347104
0.359864
0.44224
0.474887
0.307421
0.134548
0.0964027
0.113009
0.134118
0.16491
0.175882
0.152421
0.0945476
0.0113801
-0.0779185
-0.0226696
0.0939593
0.107398
0.051629
0.0457693
0.0694118
0.082896
0.0961313
0.068982
0.0318779
0.000135779
0.0742761
0.188484
0.137919
0.0778055
0.217602
0.302059
0.196403
0.115996
0.075724
0.0655204
0.170453
0.160475
0.125905
0.122262
0.0598643
0.0130317
0.0155204
0.0166969
0.00178738
-0.0138687
-0.00468322
0.016629
-0.0433257
-0.0735972
-0.0638461
-0.0604072
-0.0385746
-0.0711991
-0.072172
-0.0323529
-0.0330769
-0.0441403
-0.0643213
-0.0286425
-0.00780542
0.227692
0.377602
0.518009
0.529819
0.347692
0.12595
-0.0903394
-0.366222
-0.626878
-0.887081
-1.06729
-1.1474
-1.19738
-1.30215
-1.36195
-1.35731
-1.24738
-1.07665
-1.06052
-1.17946
-1.26351
-1.22767
-1.14229
-1.06706
-1.03192
-0.802014
-0.687738
-0.583756
-0.493394
-0.40095
-0.327217
-0.291742
-0.264525
-0.256041
-0.171719
-0.0721719
-0.0678507
-0.0783484
-0.0830543
-0.0977828
-0.0682127
0.0408371
0.104186
0.147104
0.229864
0.267172
0.328597
0.344231
0.359412
0.389299
0.553959
0.658145
0.697059
0.760611
0.832738
0.88853
0.959027
1.0948
1.15106
1.07274
1.0043
0.995362
1.02595
1.13609
1.13081
0.836199
0.482376
0.36319
0.40319
0.467964
0.48776
0.472149
0.426244
0.349864
0.327964
0.185634
0.148258
0.115724
0.0574208
0.0790724
0.12181
0.129774
0.0868326
0.0585973
0.0504977
0.0672624
0.0643665
-0.00346153
-0.0761086
-0.0886425
-0.0258145
0.00185521
0.0448869
0.0984163
0.0868099
0.0400905
0.013733
0.0330769
0.0526018
0.0569231
0.301358
0.561177
0.386335
0.0712896
-0.00891401
0.156154
0.281177
0.0911312
-0.0886652
-0.0231674
0.0923077
0.108914
0.0461312
-0.00579185
0.0574661
0.134955
0.0763575
-0.0483711
-0.104615
-0.132262
-0.106063
-0.0702941
-0.0597285
-0.0744117
-0.0845701
0.0549322
0.0292082
-0.136584
-0.221674
-0.176425
-0.0966289
-0.0570814
0.0025792
0.0271946
0.1369
0.337036
0.54862
0.561199
0.304367
-0.00212667
-0.238213
-0.558756
-0.854118
-1.08443
-1.26477
-1.30984
-1.24466
-1.29937
-1.43407
-1.46887
-1.33882
-1.28346
-1.21251
-1.09658
-1.06072
-1.08452
-1.01319
-0.917149
-0.896606
-0.866403
-0.791787
-0.672217
-0.527014
-0.410362
-0.257964
-0.128213
-0.0919004
-0.124253
-0.200226
-0.245339
-0.19543
-0.0957918
-0.0362896
-0.00665157
0.00871044
-0.0659954
-0.112353
-0.0106335
0.120294
0.171267
0.197534
0.308688
0.394548
0.480045
0.565
0.634344
0.722511
0.874932
0.996539
0.947715
0.84871
0.884706
0.980611
0.966131
0.896403
0.916539
0.94681
0.922421
0.84776
0.817421
0.671674
0.655973
0.575317
0.464796
0.479502
0.489072
0.418439
0.28724
0.190611
0.208824
0.196697
0.120362
0.0747964
0.093077
0.129842
0.111109
0.123235
0.130815
0.0572851
0.0278733
0.0539367
0.040905
0.0582806
0.0103846
-0.0176018
-0.0302036
-0.0123303
0.0205883
0.0783258
0.126154
0.119027
0.0320362
-0.00472848
-0.00117645
-0.00235293
0.0116742
0.0664706
0.19129
0.20552
0.144434
0.123462
0.0926245
0.101833
0.196606
0.251629
0.191787
0.102647
-0.000859722
-0.023914
-0.00699092
-0.00583709
-0.0564027
-0.0691176
-0.0629638
-0.0623077
-0.0522172
-0.0225565
-0.058009
-0.0838009
-0.0852262
-0.0818551
-0.137873
-0.173756
-0.119502
-0.0747511
-0.0800678
-0.0853619
0.0297059
0.145226
0.225701
0.376131
0.541923
0.498077
0.210023
0.103122
-0.347602
-0.637579
-0.862715
-1.03333
-1.16914
-1.255
-1.26566
-1.24572
-1.2455
-1.29529
-1.28523
-1.21568
-1.14631
-1.09111
-1.06018
-1.0591
-1.01319
-0.962217
-0.926539
-0.88129
-0.766425
-0.646787
-0.516312
-0.363914
-0.319796
-0.249864
-0.199095
-0.162014
-0.108597
-0.0695022
-0.0351357
-0.0357918
-0.101471
-0.0971719
-0.00821263
0.0802715
0.142624
0.169638
0.191063
0.201901
0.227873
0.23414
0.340045
0.459729
0.518213
0.601358
0.673824
0.765272
0.846425
0.867783
0.898575
0.87353
0.898552
0.954276
0.969977
0.93052
0.845792
0.770634
0.765611
0.730701
0.705679
0.675113
0.604118
0.518575
0.443416
0.407783
0.406493
0.394253
0.336516
0.263982
0.211516
0.183348
0.154955
0.122489
0.110045
0.132059
0.183597
0.214434
0.149977
0.121131
0.203213
0.250566
0.32267
0.234344
-0.018914
-0.156833
-0.0145927
0.137534
0.0899095
-0.0325565
-0.0894118
-0.0411086
0.0472625
0.0656335
0.0692986
0.0782127
0.0723982
0.0964932
0.135407
0.13957
0.189118
0.158756
0.148371
0.143665
0.174548
0.215769
0.212692
0.255272
0.227285
0.0877376
-0.0222624
-0.064095
-0.00203618
0.0592308
0.014819
-0.0356561
-0.0469456
-0.0934615
-0.114706
-0.0956561
-0.0666516
-0.0426018
-0.0633258
-0.158846
-0.199005
-0.193869
-0.138959
-0.0541176
0.0859502
0.256199
0.416697
0.527805
0.424796
0.147466
-0.114253
-0.345634
-0.631561
-0.88733
-1.08794
-1.25333
-1.38376
-1.35912
-1.32432
-1.34489
-1.34563
-1.27093
-1.16591
-1.10536
-1.05457
-1.03405
-1.04891
-1.10405
-1.09468
-0.95552
-0.786629
-0.692715
-0.552602
-0.401063
-0.377919
-0.397964
-0.226833
-0.0497964
-0.0419909
-0.178688
-0.235113
-0.216267
-0.117149
-0.0231448
-0.0244117
-0.0859276
-0.0779185
0.0395023
0.161425
0.102851
0.0837104
0.243891
0.388484
0.517579
0.596086
0.558778
0.545633
0.717014
0.822964
0.743688
0.754344
0.814842
0.900226
1.02572
1.10131
1.06158
0.911561
0.791923
0.757421
0.748258
0.708484
0.647443
0.610724
0.58448
0.518756
0.492489
0.360543
0.3381
0.355498
0.322851
0.234887
0.181584
0.128122
0.094457
0.100611
0.101697
0.0628054
0.0391629
0.0404977
0.00721718
-0.00590499
0.00142535
-0.000791848
0.0220588
0.104955
0.16267
0.155045
0.107195
0.0593439
0.00678732
-0.0161312
0.080362
0.172896
0.212398
0.17267
0.107715
0.0673982
0.0671041
0.0866968
0.110633
0.0840498
0.0478959
0.0972851
0.157262
0.157715
0.153778
0.145181
0.127262
0.054819
0.0366968
0.0523303
0.0169005
-0.0194344
-0.0121041
-0.021086
-0.0310181
0.00334842
0.00699094
-0.0442987
-0.0452715
-0.0164932
-0.0429412
-0.0389367
-0.104186
-0.144253
-0.0743439
0.0106561
0.0856787
0.190634
0.330814
0.501629
0.548167
0.360294
0.113439
-0.152624
-0.473824
-0.715272
-0.885928
-1.0807
-1.16545
-1.17066
-1.21615
-1.31683
-1.37722
-1.39219
-1.34208
-1.27217
-1.16726
-1.08699
-1.04636
-1.00652
-0.932941
-0.83957
-0.730701
-0.611109
-0.486041
-0.368982
-0.311063
-0.236199
-0.204525
-0.212127
-0.178937
-0.119638
-0.0793213
-0.0534389
-0.0327376
0.0174887
0.0269005
0.0554751
0.0639593
0.122308
0.160091
0.182285
0.229231
0.276222
0.357919
0.393914
0.453281
0.541719
0.645
0.738077
0.820407
0.867149
0.907941
0.973371
1.0293
1.03052
1.02647
1.00226
0.908009
0.868281
0.798416
0.738778
0.719163
0.749186
0.759095
0.694118
0.634072
0.593665
0.592715
0.736063
0.82362
0.546403
0.104819
-0.1069
-0.0740045
0.0278959
0.0543212
0.105656
0.232398
0.25414
0.120566
0.00710405
-0.0658824
-0.0834389
-0.0754978
0.0228054
0.0361764
0.044457
0.0926244
0.0909728
0.0645475
0.0329864
0.0415837
0.0756787
0.085181
0.0747511
0.104434
0.114118
0.078733
0.113462
0.163416
0.138348
0.0786651
0.0987556
0.153529
0.153688
0.134118
0.0950452
0.0566289
0.0589593
0.0720136
0.0402036
-0.0425566
-0.0664706
-0.0165611
0.0116742
-0.00133485
-0.0300226
-0.0396833
-0.0896607
-0.0945475
-0.0496833
-0.0303846
-0.0415837
-0.0779638
-0.10905
-0.114796
-0.0898643
-0.059457
0.0461086
0.296787
0.492738
0.519027
0.480814
0.448258
-0.0336652
-0.239706
-0.500045
-0.79509
-1.03527
-1.20045
-1.38529
-1.52502
-1.52462
-1.40903
-1.3436
-1.3133
-1.24769
-1.26179
-1.24093
-1.15509
-1.08398
-1.06283
-1.09688
-1.0962
-0.965656
-0.735724
-0.551335
-0.4969
-0.480928
-0.39819
-0.31405
-0.148416
-0.0909276
-0.182036
-0.23267
-0.198122
-0.172964
-0.147376
-0.062534
-0.0331448
-0.0640498
-0.0605204
0.0525113
0.170566
0.213597
0.231403
0.273597
0.355317
0.467014
0.62905
0.685882
0.645928
0.718394
0.764367
0.920362
0.986606
1.00742
0.938303
0.964706
1.01079
0.951222
0.896177
0.860566
0.749864
0.663801
0.63733
0.635747
0.585407
0.525724
