ekg
0
0
0.002
-0.00142857
-0.000555553
-0.00454545
0.00115385
0.000666667
-0.00588235
-0.00868421
-0.0119048
-0.016087
-0.0208
-0.0209259
-0.0218966
-0.0235484
-0.0256061
-0.0228571
-0.0252703
-0.0278205
-0.0307317
-0.0284884
-0.026
-0.0282979
-0.0255102
-0.0279412
-0.025566
-0.0236364
-0.0170175
-0.015678
-0.0145902
-0.0136508
-0.0128462
-0.0120149
-0.0163768
-0.0159155
-0.0154795
-0.0151333
-0.0198701
-0.0144304
-0.0139506
-0.018494
-0.0231177
-0.028046
-0.0333708
-0.0389011
-0.0445699
-0.0503684
-0.0512887
-0.0520202
-0.0523267
-0.0523786
-0.0522857
-0.0469159
-0.0413303
-0.0405405
-0.0346903
-0.0338261
-0.0278632
-0.0267647
-0.0207025
-0.0197561
-0.01892
-0.0132284
-0.0179457
-0.0181679
-0.0190977
-0.0165185
-0.0217153
-0.0242086
-0.0315958
-0.0368532
-0.0403448
-0.0421429
-0.0375168
-0.0372185
-0.0366994
-0.0409355
-0.0450955
-0.0441195
-0.0431366
-0.0421779
-0.0412424
-0.0402695
-0.0343195
-0.0284503
-0.0176012
-0.00674288
-0.000847466
0.00502792
0.010884
0.0117759
0.0227567
0.0237433
0.0296825
0.0355759
0.0364249
0.0321538
0.0276904
0.0180151
0.00308456
-0.00206897
-0.00246343
-0.00801934
-0.0137321
-0.0245498
-0.0304225
-0.0413256
-0.0421659
-0.0528996
-0.0584616
-0.0579864
-0.0625113
-0.0620362
-0.0615837
-0.0661312
-0.070724
-0.0752715
-0.0798417
-0.079457
-0.0740724
-0.0737104
-0.0683711
-0.0680769
-0.0627602
-0.0624435
-0.0521493
-0.0418552
-0.0215385
-0.00622174
0.00907238
0.0343665
0.0646606
0.114955
0.190249
0.295543
0.400814
0.496086
0.54138
0.546697
0.507036
0.432376
0.347715
0.293077
0.253416
0.188733
0.124027
0.0743439
0.0346832
0.00999998
0.000339322
-0.00434393
-0.0190724
-0.0288009
-0.0335521
-0.0383485
-0.0381448
-0.0479638
-0.0528281
-0.0526923
-0.052534
-0.0523756
-0.0522172
-0.0520362
-0.0518552
-0.0566516
-0.056448
-0.0562444
-0.0560634
-0.0508371
-0.0506109
-0.0503846
-0.0501584
-0.0499321
-0.0547059
-0.0595249
-0.0543439
-0.0541629
-0.0589593
-0.053733
-0.0585068
-0.0582579
-0.063009
-0.0677601
-0.0725113
-0.0722398
-0.0719683
-0.0716968
-0.0664253
-0.0661538
-0.0659049
-0.0656334
-0.060362
-0.0551131
-0.0499095
-0.0397285
-0.0295475
-0.0193438
-0.00916284
0.00604077
0.0162444
0.0264706
0.0416743
0.0568779
0.0620815
0.0723078
0.0826019
0.0929412
0.0983032
0.108688
0.109072
0.114412
0.119751
0.125113
0.120453
0.120815
0.116131
0.111425
0.106674
0.0969458
0.087172
0.0723756
0.0626019
0.0527829
0.0429413
0.0330996
0.028258
0.0133937
0.00850685
0.00359734
-0.00633477
-0.0112669
-0.016199
-0.0161312
-0.0260859
-0.0310407
-0.0310407
-0.0360407
-0.0410407
-0.0460181
-0.0460407
-0.0511086
-0.0512896
-0.0516968
-0.0573303
-0.0581448
-0.0588461
-0.0592534
-0.0642307
-0.0638461
-0.0680995
-0.0671719
-0.0663574
-0.0707239
-0.0650452
-0.0642534
-0.0585068
-0.0628506
-0.067285
-0.0668099
-0.0664027
-0.0609954
-0.0555656
-0.0601583
-0.0597511
-0.0543665
-0.0589819
-0.0585973
-0.0532579
-0.0529411
-0.0576244
-0.0573077
-0.0569909
-0.0616742
-0.0563348
-0.0559955
-0.0557013
-0.0503846
-0.0450678
-0.0497285
-0.0493891
-0.0440271
-0.0436878
-0.0433258
-0.0379638
-0.0326471
-0.0323303
-0.0320136
-0.0316969
-0.0364027
-0.031086
-0.0357919
-0.0355204
-0.0352489
-0.0350226
-0.034819
-0.034638
-0.0344344
-0.0392534
-0.0440498
-0.0388688
-0.0437331
-0.0436426
-0.0385521
-0.0284616
-0.0183711
-0.0132806
-0.00819008
0.00692305
0.00703616
0.0121719
0.0123303
0.0174886
0.0276923
0.0278959
0.0280995
0.0183031
0.00850673
-0.00128967
-0.0111087
-0.020905
-0.0257014
-0.0304752
-0.0352263
-0.0349548
-0.0446833
-0.0443666
-0.0440499
-0.0437105
-0.0483032
-0.047896
-0.0474888
-0.0521268
-0.0467421
-0.0413802
-0.0410182
-0.0456562
-0.0452942
-0.0449548
-0.0446155
-0.0392987
-0.0340272
-0.0337331
-0.0284164
-0.0230996
-0.0178055
-0.00751138
0.00280537
0.0130769
0.028371
0.0536425
0.078914
0.129185
0.209457
0.309751
0.425
0.505271
0.545543
0.545792
0.511018
0.436222
0.356403
0.306584
0.261765
0.1969
0.132059
0.0772172
0.0323756
0.00251131
-0.0173529
-0.0272172
-0.0370814
-0.0469231
-0.0567421
-0.0665837
-0.0664253
-0.071267
-0.0711312
-0.0709955
-0.0708371
-0.0707013
-0.0705882
-0.0704751
-0.0703846
-0.0753393
-0.0752715
-0.0702036
-0.0751358
-0.0750453
-0.0799548
-0.0748869
-0.0798416
-0.0747738
-0.0797059
-0.079638
-0.0745475
-0.0794344
-0.0743212
-0.0741855
-0.0740498
-0.0739367
-0.0738009
-0.0686878
-0.0735973
-0.0685069
-0.068439
-0.0633937
-0.0683937
-0.0634163
-0.0634842
-0.0586199
-0.0487557
-0.0389367
-0.0341177
-0.0292987
-0.0244571
-0.0145928
-0.00472856
0.000180945
0.0102036
0.0202941
0.0254298
0.0356108
0.0408371
0.0561312
0.0614706
0.0718326
0.0821945
0.0925339
0.102873
0.108167
0.108439
0.108688
0.108937
0.109163
0.104389
0.0945701
0.0897285
0.0799095
0.0600679
0.0502262
0.040362
0.0354977
0.0206335
0.0157919
0.00599547
-0.00382353
-0.00866517
-0.0185521
-0.0235068
-0.0235294
-0.0236426
-0.0338688
-0.0443213
-0.0450905
-0.0513349
-0.058077
-0.0652489
-0.0626698
-0.0751358
-0.0773756
-0.0791856
-0.0854525
-0.0861991
-0.0913349
-0.0857467
-0.0893439
-0.0872851
-0.0798417
-0.0772851
-0.0697964
-0.0676245
-0.0657693
-0.0640951
-0.0576245
-0.0564254
-0.0555204
-0.0498417
-0.0493665
-0.0540272
-0.0538009
-0.0536199
-0.0534842
-0.0533711
-0.0533032
-0.053258
-0.0482127
-0.0481675
-0.0481222
-0.0480996
-0.0430544
-0.0430091
-0.0429865
-0.0379639
-0.0329412
-0.0329413
-0.0329413
-0.0329187
-0.0329187
-0.0279187
-0.0279413
-0.0229639
-0.0229865
-0.0230092
-0.0230544
-0.0231223
-0.0231449
-0.0232127
-0.0282806
-0.0283711
-0.0284616
-0.0285747
-0.0287104
-0.0238235
-0.0239819
-0.0191403
-0.0143439
-0.00457014
0.000158355
0.00488688
0.0145928
0.0192534
0.023914
0.023552
0.0281674
0.0327602
0.0373303
0.0419004
0.0364706
0.026018
0.0105656
0.00511308
-0.0053394
-0.0107693
-0.0161765
-0.0265159
-0.03181
-0.0420362
-0.047172
-0.0572172
-0.057172
-0.0620588
-0.0618779
-0.0666516
-0.0663575
-0.0660181
-0.0656561
-0.0603168
-0.0649774
-0.0596607
-0.0643892
-0.0591403
-0.058914
-0.0637104
-0.0635521
-0.0684163
-0.0633032
-0.0632354
-0.0531901
-0.0381675
-0.0231675
0.00185515
0.0318778
0.0818552
0.156787
0.266742
0.381652
0.486538
0.551403
0.57129
0.536154
0.466018
0.370905
0.305769
0.250634
0.190452
0.125294
0.0601131
0.0149321
-0.0102263
-0.0304073
-0.0355657
-0.045724
-0.0558824
-0.0560407
-0.0611764
-0.0613122
-0.0664479
-0.0665836
-0.0667194
-0.0618778
-0.0620361
-0.0622171
-0.0673981
-0.0675792
-0.0727375
-0.0729185
-0.0780543
-0.0782127
-0.0733484
-0.0784842
-0.0785973
-0.0736878
-0.0737783
-0.0738235
-0.0738461
-0.0738688
-0.0738914
-0.0739367
-0.0739819
-0.0740045
-0.0690272
-0.0740272
-0.0690498
-0.0690724
-0.0641176
-0.0691855
-0.0642534
-0.0593213
-0.0544118
-0.0545249
-0.049638
-0.0447738
-0.0449322
-0.0400679
-0.0352262
-0.0253846
-0.0155656
-0.010724
-0.00588235
-0.00106335
0.0137783
0.0236199
0.0384842
0.0483484
0.0582127
0.0680769
0.0779864
0.0879638
0.0979185
0.107896
0.117828
0.12276
0.127692
0.127624
0.127579
0.122511
0.117489
0.107421
0.0973303
0.0872172
0.0770814
0.0619457
0.05181
0.0366516
0.0264706
0.0162896
0.011086
0.00590497
0.000701338
-0.00947966
-0.0146607
-0.0198416
-0.0200226
-0.0252489
-0.0254751
-0.0307466
-0.0310407
-0.0314027
-0.0367647
-0.0371267
-0.0425339
-0.0429865
-0.0435294
-0.0441855
-0.05
-0.0458145
-0.0464932
-0.0468552
-0.0469231
-0.0516742
-0.0512444
-0.0557692
-0.0554978
-0.0553168
-0.0501132
-0.0499095
-0.0497285
-0.0496607
-0.0497059
-0.044819
-0.045
-0.0451584
-0.0453167
-0.0454751
-0.0456108
-0.0457466
-0.0458824
-0.0410634
-0.0412444
-0.0414028
-0.0415159
-0.036629
-0.0367421
-0.0368779
-0.0420136
-0.0371946
-0.0423756
-0.0375792
-0.0427828
-0.0429638
-0.0431674
-0.048371
-0.048552
-0.0537557
-0.0539366
-0.0541176
-0.0542987
-0.049457
-0.0496154
-0.0497737
-0.0499547
-0.0500905
-0.0452715
-0.0454525
-0.0406335
-0.0358145
-0.0360181
-0.0362217
-0.0364253
-0.0316516
-0.0318778
-0.0271267
-0.0223755
-0.022647
-0.0179185
-0.01319
-0.00346152
0.00126697
0.00597286
0.0156561
0.0203394
0.0250452
0.0247511
0.0244796
0.0292081
0.0339366
0.0286425
0.018371
0.0180995
0.00285067
-0.00237559
-0.00757919
-0.0177602
-0.0229186
-0.0330543
-0.0381674
-0.0532806
-0.0534163
-0.0535747
-0.058733
-0.0538688
-0.0590045
-0.0591629
-0.0593213
-0.0545023
-0.0547059
-0.0499095
-0.0500905
-0.0502715
-0.0504751
-0.0557014
-0.0509276
-0.0511765
-0.0464027
-0.046629
-0.0418552
-0.0321041
-0.017353
-0.00757921
0.00717194
0.0319457
0.0666742
0.116403
0.191131
0.30086
0.410566
0.495317
0.530068
0.529819
0.47957
0.404276
0.323982
0.273688
0.228371
0.168054
0.10776
0.0474661
0.00717194
-0.0131222
-0.0233937
-0.0286425
-0.0388914
-0.0491403
-0.0593891
-0.0646606
-0.0699321
-0.0702036
-0.0654751
-0.065724
-0.0709728
-0.0762217
-0.0764706
-0.0766968
-0.0769457
-0.0772172
-0.0724887
-0.0727601
-0.0730543
-0.0733258
-0.0735972
-0.0738687
-0.0741402
-0.0744344
-0.0697285
-0.0750452
-0.0753619
-0.0756561
-0.0809502
-0.0812217
-0.0815158
-0.0768099
-0.0821267
-0.0774434
-0.0727375
-0.0730317
-0.0683032
-0.0685747
-0.0638461
-0.0591403
-0.0494344
-0.0497285
-0.04
-0.0352488
-0.0304751
-0.0257014
-0.020905
-0.0110633
-0.0012217
0.00866517
0.0185747
0.0235294
0.0334842
0.0434163
0.0533032
0.0631448
0.0730091
0.0878507
0.0926697
0.102421
0.107172
0.111833
0.116448
0.116041
0.115611
0.110181
0.104729
0.0992987
0.0988462
0.0934389
0.0830543
0.0676471
0.0572851
0.0469231
0.0365837
0.0262443
0.0209276
0.0106108
0.000316724
-0.00497739
-0.0052715
-0.0105656
-0.0158824
-0.0161765
-0.0214706
-0.0267195
-0.0269683
-0.0272172
-0.0273982
-0.0325113
-0.0325792
-0.0376018
-0.0325566
-0.0323982
-0.0320815
-0.0315158
-0.0305656
-0.0342534
-0.0327149
-0.0312896
-0.0303167
-0.0250226
-0.0255203
-0.0316063
-0.028009
-0.0295022
-0.0309954
-0.0324208
-0.0338687
-0.0353167
-0.0416289
-0.0426697
-0.0434389
-0.0440724
-0.044638
-0.040181
-0.0407013
-0.0411991
-0.0416516
-0.0420814
-0.0424887
-0.0428959
-0.0433258
-0.0437783
-0.0392081
-0.034638
-0.0400679
-0.0354751
-0.0358824
-0.0362896
-0.0417195
-0.0421267
-0.042534
-0.0429186
-0.0433032
-0.0436425
-0.0440045
-0.0493665
-0.0497511
-0.0501584
-0.0455656
-0.0459728
-0.0413575
-0.0417873
-0.0421946
-0.0426018
-0.0430317
-0.0384389
-0.0388462
-0.0342308
-0.0345928
-0.0299321
-0.0352715
-0.0355883
-0.035905
-0.0362217
-0.0365385
-0.0418552
-0.0321493
-0.0373982
-0.0376244
-0.0378507
-0.0330769
-0.0233032
-0.0135294
-0.00373305
-0.00391404
0.00592759
0.00579184
0.0106335
0.0104751
0.0153167
0.0201357
0.0199321
0.0147059
0.00941175
0.00409501
-0.00626698
-0.0166516
-0.0270588
-0.0324661
-0.0329186
-0.0384616
-0.0440045
-0.0495475
-0.0501131
-0.0506788
-0.0512217
-0.0517647
-0.0523077
-0.0528507
-0.0533484
-0.0538236
-0.054276
-0.0547059
-0.0601358
-0.0605656
-0.0559955
-0.0614253
-0.0618326
-0.0622398
-0.0576471
-0.0480543
-0.0384163
-0.0237783
-0.00414027
0.0204977
0.0501358
0.0847738
0.144412
0.244072
0.343733
0.443394
0.493054
0.512692
0.487376
0.427059
0.351742
0.296425
0.256109
0.205792
0.135452
0.0700905
0.0297285
0.00436652
-0.0109955
-0.0213348
-0.0316742
-0.0420136
-0.0423529
-0.0476923
-0.0530317
-0.053371
-0.0487104
-0.0540724
-0.0543891
-0.0546833
-0.055
-0.0552941
-0.0555882
-0.050905
-0.0562443
-0.0565837
-0.0619231
-0.0622624
-0.0676244
-0.0679864
-0.0683484
-0.063733
-0.0641176
-0.0645023
-0.0648416
-0.0651584
-0.0604751
-0.0607919
-0.0561086
-0.0514027
-0.0517194
-0.0519909
-0.0522398
-0.0524661
-0.0476923
-0.0479186
-0.0431674
-0.0384163
-0.0336651
-0.028914
-0.0241403
-0.0193891
-0.0195927
-0.0148416
-0.0051131
-0.000429841
0.00923079
0.0188914
0.0235294
0.0281901
0.0328054
0.0424435
0.0520588
0.0616742
0.066267
0.0758371
0.0854299
0.0900226
0.104638
0.104253
0.108869
0.108484
0.113077
0.107647
0.107217
0.111833
0.101448
0.0910634
0.0856787
0.0753167
0.0649548
0.0545928
0.0442308
0.0388688
0.0285294
0.01819
0.00785068
0.00251131
-0.00285068
-0.00823529
-0.00864253
-0.00902715
-0.014457
-0.0198869
-0.0203167
-0.025724
-0.0311086
-0.0314706
-0.03181
-0.0321267
-0.0323756
-0.0375792
-0.0377376
-0.0428054
-0.0427376
-0.0376244
-0.0375792
-0.0377376
-0.0430996
-0.0436199
-0.0443213
-0.0450452
-0.0456561
-0.0461538
-0.0466742
-0.0422624
-0.042828
-0.0432805
-0.0436199
-0.043914
-0.0442081
-0.0445022
-0.044819
-0.0450905
-0.045362
-0.0456335
-0.0458823
-0.041086
-0.0463122
-0.0465158
-0.0467195
-0.0469231
-0.0471267
-0.0423529
-0.0425339
-0.0427376
-0.0429186
-0.0431448
-0.0383937
-0.0386652
-0.0389367
-0.0392082
-0.039457
-0.0397059
-0.0449548
-0.0502262
-0.0455204
-0.0457919
-0.0460634
-0.0513348
-0.0465837
-0.0518326
-0.0571041
-0.057353
-0.0576018
-0.0528281
-0.0530769
-0.0533032
-0.0535068
-0.0537104
-0.058914
-0.059095
-0.059276
-0.0544796
-0.0496833
-0.0398643
-0.0300453
-0.0202263
-0.00538462
-0.000588243
0.00920814
0.0139593
0.018733
0.0235068
0.0282579
0.0379864
0.0377149
0.0374434
0.0271493
0.0218778
0.0165837
0.00626696
0.000904968
-0.00445702
-0.00981901
-0.020181
-0.0254977
-0.0308371
-0.0361991
-0.0415385
-0.0419005
-0.0422398
-0.0425792
-0.0428959
-0.04819
-0.0484842
-0.0487783
-0.0491177
-0.0444118
-0.0447059
-0.04
-0.0402489
-0.0354751
-0.0357014
-0.0359276
-0.0361312
-0.0313349
-0.0265385
-0.0167195
-0.00190046
0.00794117
0.0277828
0.0526244
0.0924434
0.162262
0.252081
0.366923
0.461765
0.526584
0.536357
0.516131
0.445882
0.365633
0.300385
0.255136
0.199887
0.129661
0.0644344
0.0142081
-0.0110181
-0.021267
-0.0315158
-0.0367647
-0.0470136
-0.0522851
-0.0575566
-0.0628281
-0.0680769
-0.0683032
-0.0735747
-0.0738462
-0.0741177
-0.0743892
-0.0696606
-0.0749095
-0.0751584
-0.0804299
-0.0757014
-0.0709729
-0.0712217
-0.071448
-0.0716742
-0.0719005
-0.0721267
-0.072353
-0.0675792
-0.0628507
-0.0630996
-0.0633484
-0.0585973
-0.0588462
-0.0590724
-0.0543213
-0.0595928
-0.0598643
-0.0601358
-0.0553846
-0.0556335
-0.0558824
-0.0511312
-0.0463801
-0.0466516
-0.0419457
-0.0372398
-0.0325113
-0.0277602
-0.0229638
-0.0131222
-0.00823532
0.00667419
0.0116289
0.0266063
0.0316063
0.0416063
0.0566289
0.0666742
0.0767647
0.0868326
0.0969004
0.106923
0.1119
0.121855
0.131765
0.136652
0.131471
0.131244
0.125928
0.120543
0.115113
0.104638
0.0991176
0.0835746
0.073009
0.0574208
0.0468099
0.0361312
0.0254751
0.0248416
0.00923074
0.00368776
-0.00180998
-0.0122398
-0.0176471
-0.0230091
-0.0283484
-0.0336652
-0.0389593
-0.0442082
-0.0494118
-0.0495702
-0.054638
-0.054638
-0.0595249
-0.0542987
-0.0589141
-0.0581901
-0.0570589
-0.0554299
-0.0483485
-0.0409729
-0.0385747
-0.0312896
-0.029276
-0.0276471
-0.0263122
-0.0252036
-0.0243665
-0.023914
-0.0238009
-0.0240272
-0.019457
-0.0200453
-0.020905
-0.0221267
-0.0188914
-0.0211312
-0.0238009
-0.0317421
-0.0346833
-0.0324435
-0.0348416
-0.0369005
-0.0387104
-0.0403168
-0.041629
-0.0426471
-0.0384163
-0.0390272
-0.0395023
-0.0399095
-0.0452715
-0.0456109
-0.045905
-0.0461765
-0.0464254
-0.0516516
-0.0468326
-0.046991
-0.0471267
-0.0472625
-0.0523756
-0.0524887
-0.0526018
-0.0526697
-0.0527602
-0.0528507
-0.0529412
-0.0530091
-0.0530769
-0.0531674
-0.0532353
-0.0532806
-0.0483258
-0.048371
-0.0483711
-0.0483484
-0.0482805
-0.0481901
-0.0480543
-0.0378733
-0.0426471
-0.0373982
-0.0371041
-0.0317873
-0.0314253
-0.0310181
-0.0305656
-0.0250679
-0.0245249
-0.0239593
-0.0183484
-0.0177376
-0.0170815
-0.0164027
-0.00572399
-9.04948e-05
0.0104977
0.0210407
0.0265385
0.031991
0.0373529
0.0426697
0.0478507
0.0529186
0.0578959
0.0677602
0.0625566
0.0572398
0.0519005
0.0414253
0.0309276
0.020362
0.0147059
0.00904977
0.00334842
-0.00233032
-0.00800905
-0.0136652
-0.0193439
-0.0200226
-0.0256335
-0.0312217
-0.0367647
-0.0372851
-0.0327376
-0.03819
-0.0386199
-0.0340272
-0.0394118
-0.0397285
-0.035
-0.0302262
-0.0404299
-0.0356109
-0.0357692
-0.030905
-0.0260181
-0.0111312
-0.00122172
0.0237104
0.0436425
0.0685747
0.118529
0.193507
0.303484
0.403507
0.493552
0.548597
0.543597
0.503597
0.41862
0.343665
0.288688
0.24371
0.183733
0.113756
0.0587783
0.0188009
-0.00617649
-0.0161539
-0.0261312
-0.0311086
-0.0410634
-0.0460407
-0.0510181
-0.0559955
-0.0609955
-0.0609502
-0.065905
-0.0658597
-0.0658145
-0.0657919
-0.0657693
-0.0707466
-0.0707014
-0.0706561
-0.0706109
-0.0705656
-0.0705204
-0.0654525
-0.065362
-0.0652715
-0.065181
-0.0600679
-0.0649321
-0.064819
-0.0696833
-0.0695475
-0.0693891
-0.0742308
-0.0690045
-0.0688009
-0.0635973
-0.0634389
-0.0632579
-0.0580995
-0.0579412
-0.0578054
-0.0576471
-0.0524887
-0.0523529
-0.0471946
-0.0470362
-0.0418778
-0.0367195
-0.0315158
-0.0212896
-0.0160633
-0.0108145
-0.00558823
0.00461539
0.00979639
0.0249548
0.0401358
0.0453167
0.0605204
0.065724
0.0808824
0.0860181
0.101131
0.101222
0.111335
0.121448
0.116561
0.121697
0.111833
0.106968
0.0971041
0.0972398
0.0923982
0.0775566
0.0676923
0.0578054
0.0479186
0.0380091
0.0331222
0.0282127
0.0233258
0.0184615
0.00857467
0.00368779
-0.00617646
-0.00604071
-0.0109502
-0.0158371
-0.020724
-0.0256109
-0.0254525
-0.0302489
-0.0350226
-0.0347285
-0.0294118
-0.0340724
-0.0386199
-0.0379412
-0.0419909
-0.0459276
-0.0449321
-0.0391629
-0.0388914
-0.0390272
-0.0445928
-0.0403167
-0.0408824
-0.0413122
-0.0417647
-0.042353
-0.0378959
-0.0383258
-0.0385973
-0.0386878
-0.0437104
-0.0486878
-0.0436878
-0.0436652
-0.0436426
-0.0436199
-0.0485973
-0.048552
-0.0485068
-0.0484615
-0.0484163
-0.048371
-0.0483258
-0.0533032
-0.0532579
-0.0532127
-0.0531674
-0.0531222
-0.0580543
-0.0629638
-0.0628959
-0.062828
-0.0627602
-0.0676697
-0.0626018
-0.0675113
-0.0674434
-0.0723982
-0.0723529
-0.0773303
-0.077285
-0.0722624
-0.0622172
-0.0621719
-0.0571493
-0.057104
-0.0520814
-0.0520588
-0.0520362
-0.0469909
-0.0469683
-0.046923
-0.0468778
-0.0468325
-0.0467873
-0.046742
-0.0366968
-0.0316516
-0.0216289
-0.0116063
-0.0016063
0.0083937
0.00841633
0.0134616
0.0134842
0.0235294
0.0285521
0.0285747
0.0286199
0.0236652
0.00868782
-0.00128956
-0.00624431
-0.0162669
-0.0212896
-0.0263348
-0.0313801
-0.0364479
-0.0464932
-0.0465158
-0.0465837
-0.0466516
-0.0517195
-0.0467647
-0.0467873
-0.0467873
-0.0517421
-0.0516742
-0.0516063
-0.0515611
-0.0515158
-0.0464932
-0.046448
-0.0464027
-0.0463575
-0.0413122
-0.0462896
-0.0412444
-0.0362217
-0.0262217
-0.0111991
0.00884614
0.0338688
0.0588688
0.108869
0.183846
0.288778
0.39371
0.498688
0.548665
0.558665
0.518642
0.42862
0.353597
0.298597
0.258597
0.193597
0.128643
0.0686878
0.0187104
-0.00624438
-0.0212444
-0.026267
-0.036267
-0.041267
-0.0462444
-0.0512444
-0.0562444
-0.061267
-0.061267
-0.061267
-0.061267
-0.061267
-0.061267
-0.066267
-0.066267
-0.0662444
-0.0662218
-0.0711765
-0.0711539
-0.0661539
-0.0661539
-0.0661765
-0.0661991
-0.0662444
-0.071267
-0.0713122
-0.0663801
-0.0664706
-0.0665837
-0.0666969
-0.06181
-0.0619005
-0.0619457
-0.0569683
-0.0569683
-0.0519683
-0.0519457
-0.0519005
-0.0518552
-0.0467873
-0.0467195
-0.0466516
-0.0416063
-0.0365611
-0.0315385
-0.0215158
-0.016448
-0.00635746
-0.00124434
0.013914
0.0191176
0.0293665
0.0395928
0.0497964
0.0599774
0.070181
0.0853846
0.0855656
0.100724
0.105837
0.11586
0.120814
0.130724
0.135566
0.130362
0.125181
0.12
0.114842
0.104661
0.0995023
0.0893665
0.0792534
0.0641403
0.0490498
0.0389819
0.0239366
0.0138914
0.00884614
0.00382352
-0.0011991
-0.00624435
-0.0112444
-0.016267
-0.0212896
-0.0263122
-0.0263122
-0.0313349
-0.0313349
-0.0313122
-0.0362444
-0.0361086
-0.0358824
-0.035543
-0.0351131
-0.034457
-0.0284842
-0.0270815
-0.0302489
-0.0280317
-0.0307014
-0.0284389
-0.0215158
-0.0203168
-0.0248869
-0.0252263
-0.0262217
-0.0328054
-0.0348416
-0.0320136
-0.0392082
-0.0361086
-0.0377376
-0.0391403
-0.0403168
-0.0462444
-0.0418778
-0.0473077
-0.0425792
-0.0477828
-0.0479186
-0.0480091
-0.0480769
-0.0481222
-0.0531222
-0.0531222
-0.0580996
-0.0580769
-0.0630317
-0.0629864
-0.0629186
-0.0628055
-0.0576923
-0.0576018
-0.0574887
-0.0573756
-0.0573077
-0.0522398
-0.0521493
-0.0470588
-0.051991
-0.0519231
-0.0518326
-0.0517421
-0.0566742
-0.0566064
-0.0565159
-0.0564028
-0.0612896
-0.0611991
-0.0611086
-0.0609955
-0.0608824
-0.0557919
-0.0557014
-0.0505883
-0.0504525
-0.0502715
-0.0500679
-0.044819
-0.0445702
-0.044276
-0.0439819
-0.0386426
-0.0282579
-0.0228733
-0.0174661
-0.0120588
-0.00662898
-0.00124437
0.00416287
0.00957011
0.0149774
0.0203846
0.0257692
0.0311312
0.0214253
0.0166742
0.00683257
0.00192307
-0.00305431
-0.00807693
-0.0131448
-0.0183032
-0.0185068
-0.0237783
-0.029095
-0.0344344
-0.0347964
-0.0401358
-0.0404525
-0.0357466
-0.0410181
-0.0362444
-0.0364706
-0.0366742
-0.0368778
-0.0370362
-0.037172
-0.0372851
-0.0373756
-0.0374661
-0.0375339
-0.0375792
-0.0326018
-0.0326244
-0.0276244
-0.0176018
-0.0075792
0.0124208
0.0374208
0.0624208
0.0974208
0.167443
0.262489
0.377489
0.482511
0.547534
0.582534
0.552534
0.507557
0.417557
0.342579
0.287602
0.227624
0.167647
0.097647
0.0476697
0.00766967
-0.0122851
-0.0272625
-0.0372398
-0.0421946
-0.0471267
-0.0570588
-0.0620136
-0.0669683
-0.0669457
-0.0719457
-0.0769231
-0.0819005
-0.0869005
-0.0869005
-0.0818552
-0.0868099
-0.0867647
-0.0817194
-0.0816516
-0.0815611
-0.0814706
-0.0763575
-0.076267
-0.0761765
-0.0761086
-0.0710407
-0.0659728
-0.070905
-0.0708145
-0.070724
-0.0656561
-0.0656109
-0.0655656
-0.0655204
-0.0604525
-0.055362
-0.0552941
-0.0552036
-0.0551131
-0.0550226
-0.0549321
-0.049819
-0.0446833
-0.0395475
-0.0393892
-0.0391855
-0.0289367
-0.0236426
-0.0133484
-0.00300907
0.00737555
0.0177828
0.0232127
0.0336425
0.039095
0.0545701
0.0650679
0.0755882
0.0810633
0.0965158
0.1069
0.11224
0.117557
0.117851
0.1281
0.123326
0.123529
0.12371
0.113869
0.109027
0.0991855
0.0893213
0.079457
0.0696154
0.0547511
0.0499095
0.0400679
0.0352036
0.0253394
0.0154525
0.010543
0.0056335
0.000701366
-0.00425338
-0.00923076
-0.0142081
-0.0141629
-0.0191629
-0.0191855
-0.0191855
-0.0191855
-0.0191402
-0.0240045
-0.0237556
-0.0233258
-0.0275565
-0.0213122
-0.0245249
-0.0222398
-0.0196606
-0.0169231
-0.014276
-0.01181
-0.0097285
-0.00796379
-0.00640271
-0.00509049
-0.0040724
-0.00334842
-0.00282806
-0.00748869
-0.00723982
-0.00705883
-0.0119231
-0.01681
-0.0167195
-0.0166968
-0.0166742
-0.0166742
-0.0116742
-0.0217195
-0.0217873
-0.0168778
-0.0170136
-0.0221946
-0.0223982
-0.0226697
-0.0230317
-0.0284842
-0.0291176
-0.03
-0.0312896
-0.0330769
-0.035362
-0.0330317
-0.0358597
-0.0436652
-0.0461765
-0.0533258
-0.0550905
-0.0566063
-0.0528507
-0.0538009
-0.0544344
-0.0597738
-0.0599095
-0.0549321
-0.0548869
-0.054819
-0.0547059
-0.0545475
-0.0543439
-0.059095
-0.0588009
-0.0634842
-0.0681448
-0.0678054
-0.0724208
-0.0670136
-0.0715837
-0.076086
-0.075543
-0.0749547
-0.0693439
-0.0686878
-0.0680091
-0.0672851
-0.0664706
-0.0656109
-0.0647285
-0.0587783
-0.0527602
-0.0516968
-0.0506335
-0.0445701
-0.0434389
-0.0373303
-0.0362217
-0.0351357
-0.039095
-0.0380769
-0.0371267
-0.0362217
-0.035362
-0.0345475
-0.0338009
-0.0331222
-0.0274887
-0.0269005
-0.0213575
-0.0158824
-0.0154751
-0.0101131
-0.00481901
0.000429865
0.000588236
0.000701358
0.0107692
0.0207919
0.0257692
0.0357014
0.0455882
0.0504072
0.0501584
0.0448416
0.0394796
0.0290272
0.023552
0.0180091
0.0174208
0.0168326
0.0061991
0.000565612
-0.00506787
-0.0106787
-0.021267
-0.0268326
-0.0223756
-0.0278959
-0.0333258
-0.0336878
-0.0340272
-0.0343213
-0.0345701
-0.0347964
-0.035
-0.0301584
-0.0352941
-0.0354072
-0.0355204
-0.0305882
-0.0307014
-0.0308145
-0.0258824
-0.0159502
-0.0060181
0.00391403
0.0238462
0.0487783
0.0887104
0.143643
0.233575
0.348529
0.458507
0.543507
0.578507
0.578529
0.518507
0.433484
0.348462
0.293439
0.238439
0.173462
0.103507
0.038552
-0.00142533
-0.0214027
-0.0363575
-0.0413122
-0.051267
-0.0612217
-0.0711765
-0.0761538
-0.0811538
-0.0811538
-0.0861991
-0.086267
-0.0863575
-0.086448
-0.0815158
-0.0866516
-0.0867873
-0.0869231
-0.0870588
-0.0871719
-0.0872851
-0.0823756
-0.0924887
-0.0925792
-0.0926697
-0.0927602
-0.097828
-0.102873
-0.0979185
-0.0979412
-0.102964
-0.103009
-0.103032
-0.0980769
-0.0981222
-0.0981674
-0.0932127
-0.0932579
-0.0933258
-0.093371
-0.0934163
-0.0834615
-0.0835068
-0.078552
-0.0785973
-0.0736425
-0.0636652
-0.0586652
-0.0486425
-0.0436199
-0.0285747
-0.0235294
-0.0134615
-0.00834841
0.00178733
0.0119683
0.0221719
0.0374208
0.0476923
0.0629638
0.0732127
0.0884163
0.0985973
0.108756
0.118869
0.118982
0.129072
0.129095
0.129072
0.124005
0.118914
0.113733
0.108507
0.103281
0.0830091
0.0676697
0.0572851
0.0468552
0.0364253
0.0259729
0.015543
0.00511313
-0.00027149
-0.00565611
-0.00599547
-0.0112896
-0.0115611
-0.01181
-0.0170362
-0.0172172
-0.0223529
-0.0223982
-0.0223982
-0.0223077
-0.0270814
-0.0266742
-0.0259955
-0.0299095
-0.0332805
-0.0361538
-0.0286425
-0.0309955
-0.0233484
-0.0209729
-0.0240045
-0.0224208
-0.026086
-0.0249774
-0.0291855
-0.0287104
-0.028552
-0.0285973
-0.0287557
-0.0290724
-0.029457
-0.0299774
-0.0306561
-0.0266063
-0.0278733
-0.029638
-0.0269231
-0.0296606
-0.0277149
-0.0357919
-0.0387783
-0.0313801
-0.0386199
-0.0405656
-0.0422851
-0.0437557
-0.0448643
-0.0507014
-0.0462896
-0.0517873
-0.0522398
-0.0526244
-0.0529864
-0.0533258
-0.0536652
-0.0589593
-0.0542534
-0.0495475
-0.0498416
-0.0451131
-0.045362
-0.0505882
-0.0508145
-0.0510181
-0.0462443
-0.0514706
-0.0516968
-0.0519457
-0.052172
-0.0473982
-0.0476244
-0.0428507
-0.0430543
-0.0482353
-0.0484163
-0.043552
-0.0436652
-0.0437104
-0.048733
-0.0487104
-0.0436878
-0.0486199
-0.0435068
-0.043371
-0.0431674
-0.0429412
-0.0426244
-0.0372851
-0.0419005
-0.041448
-0.0359729
-0.0354525
-0.0299548
-0.0244118
-0.0188914
-0.0133937
-0.0129412
-0.00253394
0.00282805
0.00812217
0.0133484
0.0234615
0.0334615
0.043371
0.0431674
0.0478733
0.0424887
0.0420136
0.036448
0.0308145
0.0201131
0.00934389
0.00852941
0.00271493
-0.00309955
-0.00893666
-0.00975114
-0.0205882
-0.0213801
-0.0221267
-0.0278281
-0.0284842
-0.0341177
-0.0346833
-0.0402262
-0.0407466
-0.0412443
-0.0366742
-0.0370814
-0.0374434
-0.0327828
-0.0331222
-0.0334389
-0.0388009
-0.0341403
-0.0345023
-0.0298416
-0.025181
-0.0205204
-0.000859734
0.0088009
0.0284842
0.0531674
0.102873
0.167602
0.272353
0.387127
0.4819
0.551697
0.556516
0.536312
0.456109
0.37095
0.305769
0.255588
0.200407
0.120226
0.0600452
0.0098416
-0.0203168
-0.0304751
-0.0456335
-0.0507919
-0.0609729
-0.0661086
-0.0712444
-0.0714028
-0.0765385
-0.076629
-0.0817195
-0.0817874
-0.0868552
-0.0869457
-0.0870136
-0.0820815
-0.0821267
-0.0821946
-0.0772399
-0.0723077
-0.0723756
-0.0673982
-0.0674435
-0.0674661
-0.0624887
-0.0575113
-0.0575566
-0.0575792
-0.0576018
-0.0576245
-0.0576471
-0.0526697
-0.0526697
-0.0526923
-0.047715
-0.047715
-0.0426923
-0.0476697
-0.0426697
-0.0376471
-0.0426244
-0.0376018
-0.0375566
-0.0325113
-0.0324434
-0.0273529
-0.0222398
-0.0171041
-0.011991
-0.00683258
0.00334841
0.0135294
0.018733
0.0289819
0.039276
0.0545928
0.0649095
0.0752489
0.0855656
0.0958824
0.106154
0.116403
0.131584
0.136652
0.136697
0.136697
0.136652
0.131538
0.13138
0.121154
0.110928
0.100679
0.085362
0.0800226
0.0646606
0.0543213
0.0440045
0.033733
0.0235068
0.0133258
0.00816743
0.00300906
-0.00210406
-0.00719456
-0.00223981
-0.00728506
-0.00733031
-0.0123303
-0.0123077
-0.0122624
-0.0122172
-0.0120588
-0.0168552
-0.0165385
-0.0211086
-0.0204525
-0.0245023
-0.0280995
-0.0211765
-0.0238462
-0.0211539
-0.0184615
-0.0158597
-0.0136425
-0.0118326
-0.010362
-0.00918553
-0.00830317
-0.00787331
-0.00782806
-0.0131674
-0.0189367
-0.020181
-0.0220136
-0.0192986
-0.031991
-0.0347738
-0.0375339
-0.04
-0.0470815
-0.0488462
-0.050362
-0.051629
-0.0526018
-0.0583032
-0.0587783
-0.0590724
-0.059276
-0.064457
-0.0595701
-0.059638
-0.0646833
-0.0596606
-0.0596154
-0.0595475
-0.064457
-0.0593213
-0.0591855
-0.0590724
-0.0589367
-0.0637783
-0.0635973
-0.0633937
-0.0631901
-0.0579864
-0.0627602
-0.0675339
-0.0672851
-0.0620588
-0.06181
-0.0665385
-0.0662896
-0.0660181
-0.0657466
-0.0654751
-0.0652036
-0.0649095
-0.0645928
-0.0592534
-0.0588914
-0.0585068
-0.0530996
-0.0526471
-0.0521946
-0.0516742
-0.0461312
-0.0455204
-0.0448643
-0.0441855
-0.0434616
-0.037715
-0.0369231
-0.031086
-0.0152036
-0.0093439
-0.00350679
0.00233032
0.0131222
0.0238461
0.0295475
0.030181
0.0357013
0.0461312
0.051448
0.0516968
0.0468326
0.0368778
0.0268099
0.0166516
0.0114253
0.0061086
0.00574661
0.000361998
-0.00502262
-0.0154072
-0.0207466
-0.016086
-0.0264027
-0.0266742
-0.0269457
-0.0221493
-0.0272851
-0.0273756
-0.0324434
-0.0324661
-0.0325113
-0.0325339
-0.0275339
-0.0275339
-0.0224887
-0.0324434
-0.0273529
-0.0272624
-0.0221719
-0.0170588
-0.00694569
0.00819005
0.0183258
0.0384842
0.0636425
0.0988009
0.163959
0.259095
0.374231
0.469367
0.549548
0.564661
0.554774
0.489887
0.399977
0.330068
0.270136
0.215204
0.145294
0.0853846
0.0354299
0.000452496
-0.0195023
-0.0244796
-0.034457
-0.0394118
-0.0443665
-0.0543213
-0.0592534
-0.0641629
-0.0640724
-0.0689819
-0.0688688
-0.0637556
-0.0686425
-0.0735294
-0.0784389
-0.0783484
-0.0782579
-0.0781674
-0.0780543
-0.0779638
-0.0778959
-0.077828
-0.0777375
-0.077647
-0.0775792
-0.0775113
-0.0774434
-0.0723755
-0.0723076
-0.0722398
-0.0721719
-0.072104
-0.0720135
-0.071923
-0.0668325
-0.0667194
-0.0615836
-0.0664253
-0.0612669
-0.0610859
-0.0609275
-0.0557692
-0.0556334
-0.0505203
-0.0503846
-0.0502488
-0.0450904
-0.0348868
-0.0296606
-0.0294117
-0.0191628
-0.00889136
-0.00357462
0.00174211
0.0170589
0.0273756
0.037715
0.0480317
0.0582806
0.0684842
0.0835747
0.0936199
0.0986199
0.108575
0.113484
0.113348
0.10819
0.103009
0.0978281
0.0926471
0.0875566
0.0724661
0.0723982
0.057353
0.0423303
0.0323077
0.0223303
0.012353
0.0123756
0.00742085
-0.00253391
-0.00748865
-0.0124208
-0.0173303
-0.027285
-0.0271945
-0.027104
-0.0319909
-0.0318552
-0.0366742
-0.0364253
-0.0411312
-0.0407466
-0.0402488
-0.0445927
-0.0436425
-0.0422624
-0.0404072
-0.0431448
-0.0355882
-0.0330543
-0.0306561
-0.0236878
-0.0273529
-0.0216968
-0.0217873
-0.0276471
-0.029276
-0.0264253
-0.0238235
-0.0312444
-0.0283484
-0.0351131
-0.0366516
-0.0380091
-0.044095
-0.0448869
-0.0504299
-0.0507692
-0.0559729
-0.0561312
-0.0562444
-0.0562896
-0.0563348
-0.0563801
-0.0564253
-0.056448
-0.056448
-0.0564253
-0.0563801
-0.0563348
-0.0562896
-0.0562217
-0.0561765
-0.0561312
-0.056086
-0.0560407
-0.0559729
-0.0558824
-0.0557919
-0.0557466
-0.0557014
-0.0556561
-0.0556109
-0.0555656
-0.0554751
-0.0604072
-0.0653168
-0.0652715
-0.0652262
-0.0601584
-0.0600905
-0.055
-0.0499095
-0.0497964
-0.0496833
-0.0495928
-0.0444796
-0.0443439
-0.0441855
-0.0390498
-0.0338914
-0.0337104
-0.0285294
-0.0283258
-0.0230995
-0.0178507
-0.00755657
0.00773755
0.0130317
0.0283258
0.0286425
0.0289819
0.0342986
0.0396154
0.0498869
0.0501131
0.0502715
0.040362
0.0353846
0.020362
0.0102715
0.0050905
-0.000113124
-0.000407245
-0.00579186
-0.0161765
-0.0215837
-0.021991
-0.0273756
-0.0277149
-0.0230543
-0.0284163
-0.028733
-0.0290272
-0.0342986
-0.0345475
-0.0347511
-0.0349321
-0.0350905
-0.0352489
-0.0353846
-0.0355204
-0.0356561
-0.0357692
-0.035905
-0.0360181
-0.0261312
-0.021267
-0.00640272
0.0134842
0.0333937
0.0633032
0.113235
0.193145
0.298077
0.413009
0.512919
0.567828
0.572738
0.542692
0.452624
0.372579
0.312511
0.267443
0.202376
0.127285
0.0671946
0.0170814
-0.0130317
-0.0281674
-0.0383258
-0.0484615
-0.0536199
-0.0587783
-0.0639367
-0.0691177
-0.0743213
-0.0795249
-0.0847059
-0.0848643
-0.085
-0.0901358
-0.0852715
-0.0854072
-0.0855204
-0.0856561
-0.0907919
-0.090905
-0.0910181
-0.0811312
-0.0812443
-0.0813575
-0.0814706
-0.0815611
-0.0866516
-0.0817421
-0.0818552
-0.0770136
-0.072172
-0.0773303
-0.0774434
-0.0775566
-0.0776697
-0.0777602
-0.0778507
-0.0729185
-0.0730091
-0.0680543
-0.0680995
-0.0631448
-0.0581674
-0.05319
-0.04819
-0.0481674
-0.0381448
-0.0331222
-0.0330769
-0.0229638
-0.0127828
-0.00260179
0.00764707
0.0128733
0.0230769
0.0333032
0.0485068
0.0587104
0.0688688
0.0789819
0.0889819
0.093914
0.103778
0.108575
0.113326
0.118032
0.122738
0.112421
0.107081
0.0967647
0.0914706
0.0761991
0.0659502
0.0657466
0.050543
0.040362
0.0252036
0.0200226
0.00986427
-0.000294104
-0.00542985
-0.010543
-0.0156561
-0.0207692
-0.020905
-0.0260407
-0.0261765
-0.0312896
-0.0314027
-0.0264706
-0.0315158
-0.0315158
-0.0364253
-0.0362443
-0.0359276
-0.0353846
-0.0345022
-0.03319
-0.0314253
-0.029276
-0.0219457
-0.0247059
-0.0227828
-0.0215385
-0.021086
-0.0214027
-0.0224434
-0.0240724
-0.0261991
-0.0284615
-0.0306787
-0.0326244
-0.0293439
-0.0359276
-0.0322851
-0.0333711
-0.0341855
-0.0297964
-0.0252489
-0.0256561
-0.0310407
-0.0364027
-0.0417195
-0.041991
-0.0422624
-0.0424887
-0.0477149
-0.0429412
-0.0431448
-0.048371
-0.0485747
-0.0487783
-0.048914
-0.0490045
-0.049095
-0.0542082
-0.0543439
-0.0544796
-0.0546154
-0.0497511
-0.0498643
-0.0499547
-0.0550679
-0.0552262
-0.050362
-0.0504977
-0.0506561
-0.0558145
-0.0509728
-0.0561538
-0.0563122
-0.0564706
-0.0566063
-0.0517194
-0.0568099
-0.0568778
-0.0569683
-0.0520136
-0.0520588
-0.0571267
-0.0571493
-0.0521493
-0.0521267
-0.0470814
-0.0420136
-0.0419457
-0.0318552
-0.0217421
-0.0116063
-0.00147058
0.0136652
0.0238009
0.0239367
0.0290724
0.0342082
0.0393439
0.039457
0.0395249
0.0345249
0.024457
0.0192987
0.00907241
0.00377829
-0.0015837
-0.00692307
-0.0123303
-0.0177376
-0.01819
-0.0236652
-0.0241176
-0.0295701
-0.0349774
-0.0353846
-0.0357692
-0.0311086
-0.0314253
-0.0316968
-0.0369457
-0.0371719
-0.0373756
-0.0375339
-0.0326923
-0.0328507
-0.033009
-0.0331674
-0.0333032
-0.0284163
-0.0185068
-0.00361991
0.0112896
0.0261991
0.0511312
0.0910634
0.150995
0.245928
0.35586
0.470769
0.535656
0.570543
0.540452
0.480339
0.390226
0.325113
0.285023
0.224887
0.159774
0.0946833
0.0445928
0.00452489
-0.0105204
-0.0205656
-0.0306335
-0.0407013
-0.0508145
-0.055905
-0.0609955
-0.0611086
-0.0612443
-0.0663348
-0.0664253
-0.0715385
-0.071629
-0.0767195
-0.0867873
-0.0868552
-0.0819231
-0.0770136
-0.0821041
-0.0771946
-0.0772851
-0.0773529
-0.0774208
-0.0774661
-0.0675339
-0.0725792
-0.0726018
-0.0676244
-0.0676471
-0.0626923
-0.0577149
-0.0577602
-0.0578054
-0.0578507
-0.0578959
-0.0578959
-0.0579186
-0.0529412
-0.0529638
-0.0479638
-0.0429864
-0.0430317
-0.0380769
-0.0330996
-0.0281222
-0.0281222
-0.0180996
-0.0130769
-0.00300905
0.00210406
0.0122624
0.0224887
0.0327828
0.0381222
0.0484389
0.0538009
0.0591629
0.0695475
0.0849321
0.0903167
0.100679
0.110995
0.12129
0.121516
0.126719
0.1219
0.122059
0.112195
0.107308
0.107398
0.0924434
0.0824208
0.0673756
0.0622851
0.0521493
0.0369909
0.0318326
0.0166516
0.0114253
0.00115384
-0.00411766
-0.00938915
-0.014638
-0.014819
-0.0199548
-0.0200453
-0.0251358
-0.0302036
-0.0352489
-0.0302263
-0.0351358
-0.0349548
-0.0347059
-0.0393665
-0.0388235
-0.0380091
-0.0367421
-0.0299774
-0.0226923
-0.0200905
-0.022353
-0.0147285
-0.0123982
-0.0104751
-0.00884617
-0.00239821
-0.00122174
-0.00533938
-0.00475115
-0.00441178
-0.00427604
-0.00425341
-0.00432128
-0.00952491
-0.00484165
-0.0103394
-0.011086
-0.00712671
-0.00864255
-0.0156335
-0.0181674
-0.0209729
-0.028914
-0.0317647
-0.0393213
-0.0415159
-0.0433711
-0.0449321
-0.0461765
-0.0471493
-0.0477828
-0.0481901
-0.0484616
-0.0536426
-0.0537557
-0.0588009
-0.0588235
-0.0588009
-0.058733
-0.0586652
-0.0585294
-0.0583711
-0.0581901
-0.0579864
-0.0577602
-0.0625113
-0.0622851
-0.0620362
-0.0617647
-0.0614932
-0.0561765
-0.0558371
-0.0554977
-0.0551357
-0.0547511
-0.0543665
-0.0539819
-0.053552
-0.0530769
-0.0525339
-0.0519683
-0.0563801
-0.0557466
-0.0550679
-0.0493665
-0.0536425
-0.0478959
-0.0471267
-0.0463348
-0.0454751
-0.0446154
-0.043733
-0.042828
-0.0369004
-0.0359728
-0.0350679
-0.0341629
-0.0332805
-0.032466
-0.0266968
-0.0209276
-0.00527146
-0.00468322
0.000791889
0.0111991
0.0165159
0.0216969
0.0268326
0.0368326
0.0417647
0.0415837
0.0413122
0.0359729
0.0255656
0.0151131
0.0046154
0.00409504
-0.00147058
-0.00210406
-0.00773754
-0.00834841
-0.0139366
-0.0145023
-0.0100226
-0.0155204
-0.0159729
-0.0213801
-0.0217421
-0.0220362
-0.0272851
-0.0224887
-0.0276697
-0.0228054
-0.0228959
-0.0229638
-0.0230091
-0.0230317
-0.0230091
-0.0229864
-0.0179412
-0.0128959
-0.00285068
0.00721718
0.0272851
0.0423303
0.0724208
0.122511
0.182602
0.287715
0.392828
0.507941
0.568054
0.593167
0.573281
0.503394
0.413484
0.338552
0.27862
0.213688
0.148756
0.0788235
0.0288688
-0.00106335
-0.0209955
-0.0359502
-0.0409276
-0.0509276
-0.0609276
-0.0659276
-0.065905
-0.075905
-0.0758824
-0.0808597
-0.0858145
-0.0907692
-0.095724
-0.0907014
-0.0957014
-0.0956787
-0.0956561
-0.100611
-0.100543
-0.100475
-0.100407
-0.100339
-0.0952715
-0.0952036
-0.0951357
-0.100068
-0.105
-0.104932
-0.0998642
-0.099819
-0.0997737
-0.0997285
-0.0946606
-0.0945927
-0.0945022
-0.0894117
-0.0893212
-0.0842307
-0.0791176
-0.0740045
-0.0688914
-0.0687556
-0.0586199
-0.0634841
-0.0583484
-0.0532126
-0.0480769
-0.0478959
-0.0376923
-0.0324208
-0.0221493
-0.0118326
-0.00147057
0.013914
0.0193213
0.0347511
0.0452036
0.0606788
0.0761539
0.086629
0.0970815
0.107466
0.112805
0.1181
0.123394
0.133643
0.128891
0.129118
0.119344
0.114525
0.104706
0.0948869
0.0850226
0.0751584
0.0652715
0.055362
0.0504525
0.0404978
0.0305204
0.0254978
0.0154751
0.0104073
0.00529413
0.00520363
-0.00493211
-0.0101131
-0.0153167
-0.0155203
-0.015724
-0.020905
-0.0209955
-0.0209728
-0.0258371
-0.0305204
-0.0299321
-0.0290498
-0.0276697
-0.0308145
-0.0284163
-0.0257013
-0.0278507
-0.0250679
-0.0225792
-0.0154977
-0.0137557
-0.0122624
-0.0110407
-0.0101358
-0.00452489
-0.00914028
-0.00889141
-0.00875566
-0.00371041
-0.00366516
-0.00366516
-0.00371041
-0.00877829
-0.00386878
-0.00900453
-0.0091629
-0.0143891
-0.0146833
-0.0150679
-0.0155656
-0.0111539
-0.0169457
-0.0179864
-0.0244344
-0.0264027
-0.0288688
-0.0316742
-0.0346154
-0.0375113
-0.0401357
-0.0424208
-0.0443213
-0.0460181
-0.0474661
-0.0486199
-0.049457
-0.0500452
-0.0504977
-0.0508145
-0.0560633
-0.056267
-0.0564253
-0.0565384
-0.0566289
-0.0616742
-0.0616742
-0.0616289
-0.0615384
-0.0614479
-0.0613122
-0.0611764
-0.0610407
-0.0608823
-0.0657013
-0.0655203
-0.0652715
-0.065
-0.0696832
-0.0693212
-0.0688914
-0.0684163
-0.0678959
-0.0623077
-0.0616742
-0.0609728
-0.0602262
-0.0594118
-0.053552
-0.0526244
-0.0516742
-0.0506787
-0.0446606
-0.0435973
-0.0425566
-0.0415158
-0.0355204
-0.0345701
-0.0286652
-0.0228281
-0.0220362
-0.0212896
-0.0156109
-0.015
-0.00943439
0.00104072
0.00644796
0.0117873
0.0220362
0.0322398
0.0273982
0.0375113
0.0475566
0.0525339
0.0574208
0.0622624
0.0670588
0.0567647
0.051448
0.0410633
0.0306109
0.0200905
0.0145249
0.00893665
0.00832579
0.0026923
-0.00794118
-0.013552
-0.0191629
-0.0247285
-0.0252715
-0.0257692
-0.0311991
-0.0366063
-0.0319457
-0.0372398
-0.0374661
-0.0376697
-0.0328507
-0.0279864
-0.0330996
-0.0331674
-0.0332353
-0.0332579
-0.0283032
-0.0283032
-0.0233258
-0.0133484
-0.00337105
0.0115837
0.0315611
0.0565385
0.0965611
0.151561
0.241561
0.351561
0.461538
0.536538
0.566561
0.556584
0.501629
0.426652
0.341674
0.291697
0.231742
0.16681
0.101878
0.0469457
0.0170362
-0.0128959
-0.0228054
-0.0327376
-0.0426471
-0.0475566
-0.0524661
-0.0573756
-0.0623077
-0.0672398
-0.0721719
-0.0721041
-0.0720362
-0.0769683
-0.0718778
-0.0717873
-0.0716968
-0.071629
-0.0765837
-0.0765385
-0.0764932
-0.076448
-0.0814027
-0.0763575
-0.0813122
-0.081267
-0.0811991
-0.0811312
-0.0760633
-0.0809728
-0.0808823
-0.0857692
-0.0856561
-0.090543
-0.0904298
-0.0902715
-0.0901357
-0.0900226
-0.0898869
-0.0847285
-0.0845927
-0.0794117
-0.0792081
-0.0790045
-0.0738009
-0.0685746
-0.063371
-0.0531674
-0.0478959
-0.0375792
-0.0272398
-0.0218778
-0.0164706
-0.00608595
-0.000678716
0.00977377
0.0252263
0.0356787
0.0461086
0.0615385
0.0668778
0.082172
0.0923756
0.102466
0.112511
0.117511
0.122489
0.122443
0.122353
0.117172
0.111946
0.101742
0.0965611
0.0914027
0.0763122
0.0712217
0.0561312
0.0460633
0.0359955
0.0259276
0.0209276
0.0109729
0.0110407
0.00108598
0.00113122
-0.00882353
-0.0088009
-0.0137557
-0.0136878
-0.0135973
-0.0184615
-0.0132805
-0.0180317
-0.0177149
-0.0222624
-0.0216516
-0.0207919
-0.0245249
-0.0177602
-0.0205204
-0.0229864
-0.020362
-0.0228507
-0.0156561
-0.013914
-0.0126923
-0.0169231
-0.0217647
-0.0224208
-0.023914
-0.0311312
-0.0287104
-0.036448
-0.0390272
-0.0462896
-0.0482127
-0.0498416
-0.0512896
-0.0524661
-0.053371
-0.0540272
-0.0545023
-0.0548869
-0.0551584
-0.0604299
-0.0606335
-0.0608145
-0.0609502
-0.0560634
-0.0561991
-0.0562896
-0.0613575
-0.0614253
-0.0615158
-0.0615837
-0.0616968
-0.06181
-0.0619231
-0.0620362
-0.0671267
-0.0672624
-0.0673982
-0.0675339
-0.0676923
-0.0678733
-0.0730543
-0.0682353
-0.0634163
-0.0685973
-0.0688009
-0.0640045
-0.0692081
-0.0694118
-0.0696154
-0.069819
-0.07
-0.0651584
-0.0602941
-0.0654072
-0.0704977
-0.0705656
-0.0655882
-0.0655882
-0.0655882
-0.060543
-0.0604751
-0.0553846
-0.0502489
-0.0401131
-0.0349774
-0.0247738
-0.0195701
-0.00934389
0.00590498
0.00613123
0.0113801
0.0115837
0.0167873
0.0219231
0.0320136
0.0370362
0.026991
0.0168778
0.0116742
-0.00357466
-0.00891402
-0.014276
-0.0147059
-0.0201584
-0.0206335
-0.0361538
-0.0416516
-0.0421493
-0.0426018
-0.0430543
-0.0434389
-0.0388235
-0.0391629
-0.044457
-0.0447285
-0.0449548
-0.0451584
-0.0453167
-0.0404525
-0.0455882
-0.0407014
-0.0407919
-0.0408597
-0.0409502
-0.0359955
-0.0260634
-0.0161538
-0.00124435
0.0136425
0.0385747
0.0685068
0.118439
0.193348
0.308213
0.428077
0.532941
0.582805
0.587692
0.542557
0.462421
0.377262
0.307104
0.261923
0.196742
0.131561
0.0714027
0.0262444
0.00608598
-0.0190724
-0.0242308
-0.0344118
-0.0395928
-0.0497511
-0.0549095
-0.0550452
-0.0651584
-0.0702489
-0.0703846
-0.0705204
-0.0706335
-0.0657466
-0.0658145
-0.065905
-0.0659955
-0.0661086
-0.0612217
-0.0613575
-0.0664932
-0.0616289
-0.0617421
-0.0618552
-0.0620136
-0.0621267
-0.0622172
-0.0573303
-0.0524434
-0.0525339
-0.047647
-0.0477828
-0.0478959
-0.048009
-0.0481222
-0.0482127
-0.0432805
-0.043371
-0.0384615
-0.038552
-0.0386425
-0.0337104
-0.0337783
-0.0338235
-0.0288687
-0.0238914
-0.0138687
-0.0038235
-0.00375563
0.00138012
0.0115385
0.0167195
0.0319684
0.0372172
0.0524661
0.0577376
0.0730317
0.0833711
0.0937331
0.104095
0.109389
0.124593
0.129729
0.134774
0.134774
0.134706
0.129615
0.124502
0.124367
0.114118
0.103801
0.0934842
0.0831675
0.0678733
0.0576018
0.0473982
0.0322172
0.0270362
0.0168552
0.00669686
0.0015385
-0.00859725
-0.00868775
-0.0187782
-0.0238461
-0.0288914
-0.0289366
-0.0339592
-0.0339366
-0.0338687
-0.0337556
-0.033552
-0.0383031
-0.0379185
-0.0373982
-0.0366289
-0.0305203
-0.0288914
-0.0267194
-0.029095
-0.0262443
-0.023371
-0.020724
-0.0184841
-0.0166742
-0.0102488
-0.00914025
-0.00841627
-0.0131448
-0.013371
-0.0142308
-0.0156561
-0.0177602
-0.0202941
-0.0230769
-0.030905
-0.033552
-0.0358823
-0.0427828
-0.0494344
-0.0458371
-0.0469683
-0.0528054
-0.053371
-0.0637104
-0.0588914
-0.0590045
-0.0540724
-0.059095
-0.0540724
-0.0539819
-0.0538914
-0.0587556
-0.0585973
-0.0534163
-0.0582127
-0.058009
-0.0578054
-0.0575565
-0.0572624
-0.0569683
-0.0516742
-0.0563575
-0.0560407
-0.0557466
-0.0554751
-0.055181
-0.0548642
-0.0595475
-0.0592081
-0.0538914
-0.0585746
-0.0582579
-0.0579412
-0.0576244
-0.057285
-0.0619231
-0.0565384
-0.0561312
-0.060724
-0.0602941
-0.054819
-0.0543213
-0.0537556
-0.0481674
-0.0525339
-0.0518778
-0.0561765
-0.0504299
-0.0446606
-0.0388462
-0.028009
-0.0171267
-0.0112443
-0.00538462
0.00545249
0.0112443
0.0119683
0.0176471
0.0283032
0.0388688
0.0393213
0.0397059
0.035
0.030181
0.0202489
0.0152489
0.0101357
0.00997737
0.00477375
0.00450225
-0.000791863
-0.00615386
-0.0114932
-0.0118552
-0.0171946
-0.0175113
-0.0228054
-0.0280769
-0.0283032
-0.0284842
-0.0336199
-0.0287104
-0.0338009
-0.0338462
-0.0388462
-0.0388235
-0.0387557
-0.0386425
-0.0335068
-0.033371
-0.0332353
-0.0280769
-0.0178959
-0.00771494
0.00746606
0.0326697
0.0528733
0.0880769
0.138258
0.233439
0.338643
0.463869
0.554095
0.599321
0.60457
0.554796
0.480023
0.385249
0.320475
0.260679
0.200882
0.136086
0.0762443
0.0314253
-0.00343892
-0.0182579
-0.0280769
-0.0378733
-0.0426697
-0.0574434
-0.0621946
-0.0669683
-0.0717647
-0.0765385
-0.081267
-0.0810181
-0.0807692
-0.0855204
-0.0902489
-0.0899774
-0.0847059
-0.0894344
-0.0891629
-0.0838914
-0.0785973
-0.0833258
-0.083009
-0.0826923
-0.0823982
-0.0771041
-0.0767873
-0.0714932
-0.0711765
-0.0708371
-0.0704977
-0.0701584
-0.064819
-0.0594796
-0.0591176
-0.0587783
-0.0584163
-0.0580317
-0.0576471
-0.0572625
-0.0518778
-0.0515158
-0.0461765
-0.0458597
-0.0405204
-0.0401357
-0.0397511
-0.0342986
-0.0288009
-0.0182805
-0.0127376
-0.00217194
0.00843892
0.0140498
0.0197059
0.0304072
0.0461538
0.0519005
0.0626471
0.073371
0.0890724
0.0947285
0.105362
0.11095
0.111538
0.117081
0.117602
0.1231
0.118575
0.113982
0.104367
0.0947059
0.09
0.0802489
0.0704525
0.0606335
0.0507919
0.0408824
0.0359502
0.0259729
0.0159729
0.0109502
0.00590498
-0.00414027
-0.00914028
-0.0140724
-0.0139593
-0.0188009
-0.0235973
-0.0233258
-0.0229864
-0.0225566
-0.021991
-0.0212896
-0.0204072
-0.019276
-0.0227376
-0.0257014
-0.0230769
-0.0200226
-0.0217647
-0.0184842
-0.0154299
-0.0127376
-0.0154525
-0.0134616
-0.0067421
-0.00529414
0.000837084
-0.00330319
-0.0026697
-0.00719459
-0.00678735
-0.00644798
-0.0111765
-0.0109729
-0.015905
-0.0109276
-0.0110634
-0.0163575
-0.02181
-0.0225566
-0.0237104
-0.0253846
-0.0325566
-0.0351584
-0.0378959
-0.0355883
-0.0430317
-0.0450453
-0.0516968
-0.0480543
-0.0592308
-0.0600679
-0.0606109
-0.060905
-0.0609955
-0.0609729
-0.0658824
-0.0707466
-0.0705882
-0.0704073
-0.075181
-0.0699095
-0.0745928
-0.0742308
-0.0788688
-0.0784842
-0.0781222
-0.0777602
-0.0723982
-0.0720136
-0.066629
-0.0662217
-0.0657919
-0.070362
-0.0649095
-0.0694344
-0.0689593
-0.0684616
-0.0679186
-0.0623303
-0.0666742
-0.0659729
-0.0702489
-0.0695023
-0.0686878
-0.0678281
-0.0669231
-0.0659729
-0.0649548
-0.0638914
-0.0628054
-0.0566742
-0.055543
-0.0494118
-0.0433032
-0.0421946
-0.0411086
-0.0300452
-0.0240045
-0.0180543
-0.00717194
-0.00135747
0.00436652
0.01
0.0155656
0.0260634
0.0364706
0.04181
0.0470588
0.0472172
0.0523077
0.0523077
0.0422172
0.0320815
0.0218778
0.011629
0.0062896
0.000882357
-0.00457013
-0.0100452
-0.015543
-0.0260181
-0.0314932
-0.0369683
-0.0324208
-0.0378733
-0.0433032
-0.0486878
-0.0490272
-0.0493439
-0.0496154
-0.0448643
-0.0500679
-0.0502489
-0.0503846
-0.0504751
-0.045543
-0.045543
-0.040543
-0.0404978
-0.0404751
-0.0354299
-0.0303846
-0.0203394
-0.00527153
0.00979634
0.0299095
0.0600226
0.0900905
0.150158
0.240226
0.355317
0.460407
0.550475
0.580566
0.575656
0.515792
0.420905
0.346018
0.286109
0.241222
0.16629
0.101357
0.0464253
0.00651581
-0.0183937
-0.0282806
-0.0382127
-0.0431674
-0.0481222
-0.0580543
-0.0630091
-0.0679186
-0.0778507
-0.0778055
-0.0827828
-0.0777602
-0.0777149
-0.0776923
-0.0776018
-0.0775113
-0.0773982
-0.0822851
-0.077172
-0.0820815
-0.0869683
-0.0818552
-0.0817421
-0.0816064
-0.0864706
-0.0913348
-0.0912217
-0.0911086
-0.0910181
-0.0959276
-0.0908145
-0.0957014
-0.0955656
-0.10043
-0.0952941
-0.0951584
-0.0950226
-0.0898416
-0.0896833
-0.0795023
-0.0792987
-0.0691176
-0.0689366
-0.0687104
-0.0584615
-0.05319
-0.0428733
-0.0325113
-0.0221493
-0.0167647
-0.0113801
-0.00095018
0.00950231
0.0199548
0.0304299
0.040905
0.0564254
0.0669231
0.072353
0.0827376
0.0930317
0.108235
0.118371
0.128439
0.133439
0.138371
0.133258
0.1331
0.132919
0.12767
0.122421
0.112149
0.101878
0.091629
0.0814254
0.071267
0.0661539
0.056086
0.0460182
0.0359729
0.0309729
0.0259729
0.0160408
0.0111086
0.00119914
0.00131226
-0.00357462
-0.00343887
-0.00830313
-0.0130995
-0.017828
-0.0224886
-0.0220588
-0.0165158
-0.0208597
-0.0199547
-0.0236199
-0.0217647
-0.0194343
-0.0216968
-0.0188461
-0.0210406
-0.018552
-0.0165158
-0.0148642
-0.013552
-0.0125339
-0.0119683
-0.0118551
-0.017285
-0.0183257
-0.0250226
-0.0222624
-0.0248642
-0.0275791
-0.0351583
-0.037466
-0.0444117
-0.0460406
-0.0425112
-0.0437329
-0.0446832
-0.0503166
-0.0457465
-0.0560406
-0.0562669
-0.0564479
-0.056561
-0.0566515
-0.0566968
-0.0567194
-0.061742
-0.061742
-0.066742
-0.0667194
-0.061742
-0.0617873
-0.0618325
-0.0618778
-0.0619004
-0.0669683
-0.0670135
-0.0720588
-0.0721267
-0.0722171
-0.072285
-0.0723529
-0.0774208
-0.072466
-0.0725113
-0.0724886
-0.067466
-0.0674208
-0.0673529
-0.067285
-0.0671719
-0.0670588
-0.0718778
-0.0666515
-0.0664027
-0.0611312
-0.0608371
-0.0554977
-0.0501357
-0.0497285
-0.0492986
-0.0538235
-0.0482805
-0.0427149
-0.0421493
-0.0315837
-0.0209728
-0.0103167
0.000362016
0.0110634
0.0217421
0.0274208
0.0280317
0.0285973
0.0391177
0.0445928
0.045
0.0403168
0.0305204
0.0206335
0.0106788
0.000656158
-0.00443435
-0.00959272
-0.0147963
-0.0250452
-0.0253167
-0.0356108
-0.0359049
-0.0361991
-0.0415158
-0.0418099
-0.0420588
-0.037285
-0.0424887
-0.042647
-0.0427828
-0.0429185
-0.038009
-0.0330543
-0.0280769
-0.0330769
-0.0330769
-0.0330543
-0.0329864
-0.0279185
-0.0228506
-0.0127828
-0.00766965
0.00244347
0.0175566
0.0376923
0.0628281
0.0979638
0.163122
0.258258
0.378394
0.488507
0.558665
0.578824
0.543982
0.474118
0.389253
0.314367
0.26948
0.214615
0.149774
0.0849321
0.0400905
0.0102715
-0.00459277
-0.014457
-0.0292986
-0.0391403
-0.0439819
-0.0538009
-0.0586199
-0.0584389
-0.0582579
-0.0631222
-0.0579864
-0.0578054
-0.0576244
-0.0574435
-0.0622398
-0.0570362
-0.0568552
-0.0616516
-0.0564706
-0.056267
-0.0560634
-0.0558598
-0.0556788
-0.0554978
-0.0553168
-0.0601131
-0.0599095
-0.0546833
-0.059457
-0.0592082
-0.0589367
-0.0536878
-0.0584389
-0.0581901
-0.0529186
-0.0526697
-0.0523756
-0.0521041
-0.0467873
-0.0464706
-0.0411538
-0.0408145
-0.0404977
-0.0351583
-0.0297963
-0.0194343
-0.0190271
-0.013552
-0.00803163
-0.00248864
0.0080996
0.0137105
0.0243439
0.0350001
0.0456562
0.0513575
0.0620815
0.0728055
0.0884842
0.0990951
0.104638
0.110113
0.120498
0.125837
0.126131
0.126358
0.126539
0.126697
0.116787
0.11181
0.106833
0.101855
0.0869231
0.0820136
0.072172
0.0573304
0.0475113
0.0426923
0.032896
0.0281448
0.0184389
0.0137783
0.00911768
0.00445704
-0.00522622
-0.00990947
-0.00954749
-0.0141629
-0.023733
-0.0232805
-0.0228054
-0.0272624
-0.0266289
-0.0258823
-0.03
-0.0288009
-0.0271945
-0.0250452
-0.0273982
-0.024457
-0.0214253
-0.0185746
-0.0160859
-0.0140497
-0.0124208
-0.0110633
-0.0150678
-0.0145475
-0.0195475
-0.0201583
-0.02138
-0.0231448
-0.0303167
-0.0326923
-0.0351131
-0.0423076
-0.0441628
-0.0507013
-0.0519909
-0.0480316
-0.0488008
-0.054276
-0.0545022
-0.0545475
-0.0594796
-0.0593665
-0.0592081
-0.0640045
-0.0637782
-0.0684841
-0.0681674
-0.0678054
-0.0623982
-0.0670135
-0.0616063
-0.0661991
-0.0657918
-0.0653846
-0.0649547
-0.0695249
-0.074095
-0.0686651
-0.0682126
-0.0728054
-0.0723982
-0.0669457
-0.0714932
-0.0660407
-0.0705882
-0.0651357
-0.0646606
-0.0691855
-0.0687104
-0.0682353
-0.0677375
-0.0672398
-0.0667194
-0.0711765
-0.0706109
-0.0650226
-0.0644344
-0.0588009
-0.0581448
-0.0624434
-0.0617194
-0.0609502
-0.060181
-0.0593891
-0.053552
-0.0476923
-0.0418099
-0.0359276
-0.0250452
-0.0191629
-0.0133032
-0.00246607
-0.00167422
0.00409502
0.00981902
0.0254751
0.0260407
0.0215385
0.0119457
0.00726245
-0.00248867
-0.00733031
-0.0123077
-0.0123303
-0.0173982
-0.0225566
-0.0277149
-0.0328959
-0.0380769
-0.0382579
-0.0334163
-0.0335746
-0.038733
-0.0388235
-0.0388914
-0.0389592
-0.0340045
-0.0340045
-0.0339819
-0.033914
-0.0288235
-0.033733
-0.0285973
-0.0284389
-0.0282805
-0.0231221
-0.0229638
-0.0177827
-0.00760177
0.00760187
0.0228055
0.0380317
0.063258
0.103462
0.153688
0.243869
0.349095
0.454321
0.534525
0.564729
0.56491
0.510113
0.425272
0.350453
0.295634
0.240837
0.176063
0.116267
0.0614707
0.0216743
-0.00312208
-0.0179637
-0.0227827
-0.0326243
-0.0424886
-0.0523529
-0.0572397
-0.0671266
-0.0770135
-0.0718778
-0.076742
-0.0765837
-0.0814253
-0.0812669
-0.0811312
-0.0859728
-0.0858371
-0.085724
-0.0855882
-0.0804525
-0.0803394
-0.0852263
-0.0850906
-0.0849774
-0.0848417
-0.079706
-0.0845476
-0.0793892
-0.0792535
-0.0791177
-0.078982
-0.0738236
-0.0686652
-0.0735069
-0.0733485
-0.0732127
-0.0680317
-0.0678959
-0.067715
-0.067534
-0.0623756
-0.0621946
-0.0570362
-0.0518552
-0.0516968
-0.0414932
-0.0362669
-0.0310181
-0.0257466
-0.0154524
-0.0051357
0.000203669
0.0106109
0.0160182
0.026448
0.0319005
0.0473983
0.0579186
0.0734164
0.0788689
0.0892987
0.099706
0.115091
0.11543
0.120769
0.131086
0.12638
0.121652
0.116901
0.112149
0.102398
0.0926472
0.0878734
0.073077
0.0632806
0.0534843
0.0486879
0.0389141
0.0291404
0.019344
0.0145476
0.0097286
-0.00013566
-0.00499992
-0.00488681
-0.00979631
-0.0097058
-0.0146153
-0.0145474
-0.0195022
-0.0193891
-0.0242533
-0.0240497
-0.023733
-0.0282126
-0.0224434
-0.0312443
-0.0295248
-0.0223076
-0.0247058
-0.0169683
-0.0192307
-0.0117194
-0.01457
-0.0177375
-0.0211311
-0.019751
-0.0136651
-0.0178506
-0.0172623
-0.0168551
-0.011561
-0.0163574
-0.0111538
-0.0109954
-0.0108823
-0.0108144
-0.0107692
-0.0107466
-0.0107918
-0.0157918
-0.0158371
-0.020905
-0.0210181
-0.0161764
-0.0213801
-0.0216516
-0.0219909
-0.0224208
-0.0229638
-0.0236425
-0.024638
-0.0260407
-0.0279185
-0.0302262
-0.0377601
-0.0403167
-0.0427828
-0.0449547
-0.0467873
-0.0483257
-0.0546832
-0.0557466
-0.0565158
-0.0619909
-0.0572398
-0.0623529
-0.0523755
-0.0573529
-0.0572851
-0.0571719
-0.0620362
-0.0568552
-0.0616515
-0.0564253
-0.0611764
-0.0608597
-0.0605203
-0.0601357
-0.0547285
-0.054276
-0.0537556
-0.0582127
-0.0576244
-0.0570136
-0.0563575
-0.0506788
-0.0549322
-0.0541403
-0.0532806
-0.0523756
-0.056448
-0.0554525
-0.0493665
-0.0483032
-0.0472172
-0.046086
-0.0449774
-0.0438914
-0.047828
-0.0467873
-0.0407918
-0.034819
-0.0338914
-0.0330317
-0.0322172
-0.0314479
-0.0307239
-0.0300679
-0.024457
-0.0239366
-0.0134389
-0.008009
-0.00262441
0.00269234
0.00798646
0.0132353
0.0134389
0.0235747
0.0386652
0.0386878
0.0486425
0.0485521
0.0483937
0.0432127
0.0379412
0.0326244
0.0222172
0.016742
0.0112443
0.0107013
0.0102036
0.00466059
-0.000859782
-0.00640273
-0.0119457
-0.0174887
-0.0180091
-0.0184615
-0.0238914
-0.024276
-0.0246154
-0.0198869
-0.0251584
-0.025362
-0.0255204
-0.0256335
-0.0257014
-0.0307466
-0.0257693
-0.0307693
-0.0257692
-0.0207693
-0.0157692
-0.00574665
0.00429861
0.0143439
0.0294117
0.0495023
0.0745928
0.109683
0.179796
0.26491
0.370045
0.465181
0.515339
0.525475
0.500633
0.440814
0.365973
0.301176
0.261403
0.201606
0.141787
0.071991
0.0221719
-0.00762442
-0.0224434
-0.0322398
-0.0420362
-0.0518326
-0.051629
-0.061448
-0.0612444
-0.0610633
-0.0658597
-0.0706561
-0.0704751
-0.0752715
-0.0750679
-0.074819
-0.0795702
-0.0793213
-0.0790724
-0.0788462
-0.0786199
-0.0784163
-0.0781448
-0.0778959
-0.0776471
-0.0823982
-0.077172
-0.0819683
-0.0867873
-0.0815611
-0.0813348
-0.081086
-0.0808371
-0.0805883
-0.0803394
-0.0801132
-0.0798643
-0.0845928
-0.0792761
-0.0789593
-0.0786426
-0.0783259
-0.0730091
-0.0676697
-0.0673303
-0.0569684
-0.0566064
-0.0461765
-0.045724
-0.0352489
-0.0297512
-0.0242082
-0.0136426
-0.003077
0.00753388
0.0182353
0.0339366
0.0396832
0.0554072
0.0611085
0.0767646
0.0923981
0.102986
0.118507
0.128982
0.134412
0.129819
0.135226
0.135588
0.135905
0.131176
0.126403
0.121584
0.111719
0.101855
0.0919231
0.0819457
0.0719457
0.0669457
0.0569457
0.0469683
0.0370136
0.0270814
0.0221946
0.0173077
0.0124661
0.00764707
0.00785069
0.00309958
-0.0016063
-0.00122167
-0.00576921
-0.0102715
-0.0146832
-0.0140271
-0.0132353
-0.0173077
-0.0160181
-0.0193665
-0.0172398
-0.0196606
-0.0168778
-0.0190272
-0.0213122
-0.0138462
-0.0217421
-0.0249322
-0.0233258
-0.016991
-0.0209277
-0.0202263
-0.0197738
-0.0195023
-0.0143213
-0.0192761
-0.0193439
-0.0195476
-0.0198869
-0.0205204
-0.0214933
-0.0229186
-0.0298643
-0.0271946
-0.0347059
-0.0372398
-0.0445928
-0.0465837
-0.0482579
-0.0546833
-0.0509276
-0.0518779
-0.0475566
-0.0579638
-0.0581674
-0.058258
-0.0582806
-0.0532806
-0.0532354
-0.0481675
-0.0530996
-0.0529864
-0.0578507
-0.057715
-0.0575566
-0.0574208
-0.0572625
-0.0621041
-0.0619458
-0.0668326
-0.0666742
-0.0664932
-0.0663349
-0.0661539
-0.0709729
-0.0707466
-0.070543
-0.0702715
-0.075
-0.0746833
-0.0743665
-0.0740272
-0.0786652
-0.0783032
-0.0778733
-0.0774208
-0.0819231
-0.0813801
-0.0807692
-0.0751358
-0.0694571
-0.0637557
-0.0630091
-0.057172
-0.0512896
-0.045362
-0.0393892
-0.0334163
-0.0324661
-0.0265158
-0.0205656
-0.014638
-0.00875568
-0.00294122
0.00780541
0.00848413
0.0190724
0.0295927
0.0350226
0.040362
0.0356108
0.0307692
0.0258371
0.0207918
0.0106561
0.00545245
0.00018096
-0.0101358
-0.0105204
-0.015905
-0.0213122
-0.0317647
-0.0371946
-0.0376471
-0.0430996
-0.0385294
-0.043914
-0.0392534
-0.0495928
-0.0448643
-0.0451131
-0.0503393
-0.0455204
-0.0506561
-0.0457692
-0.0508823
-0.0459276
-0.0460181
-0.041086
-0.0411538
-0.0411765
-0.0311991
-0.0262217
-0.0161991
-0.011199
0.00886884
0.0239141
0.0439593
0.0740272
0.129072
0.20414
0.304186
0.414276
0.494344
0.534412
0.53448
0.494525
0.414548
0.339548
0.28457
0.24457
0.179593
0.119615
0.0596606
0.0146606
-0.0103394
-0.0253168
-0.0353168
-0.0402942
-0.0502716
-0.0552263
-0.0602037
-0.0652038
-0.0652264
-0.070249
-0.065249
-0.070249
-0.070249
-0.0702716
-0.0652943
-0.0703395
-0.0753848
-0.07043
-0.0754753
-0.0704979
-0.0755432
-0.0705884
-0.075611
-0.0756336
-0.0756789
-0.0757242
-0.0707468
-0.0707694
-0.0658146
-0.0708599
-0.0658825
-0.0659051
-0.0659504
-0.0660183
-0.0660861
-0.0611087
-0.0611088
-0.0560861
-0.0610861
-0.0610635
-0.0559956
-0.0559278
-0.0508146
-0.0507015
-0.0455883
-0.0454526
-0.0402942
-0.0351359
-0.0249549
-0.0147513
-0.00954765
0.000655949
0.0058822
0.0161084
0.0263121
0.041493
0.0516061
0.0616288
0.0766062
0.0865157
0.0963573
0.106131
0.110882
0.120588
0.120294
0.119977
0.12466
0.119344
0.119027
0.113733
0.103439
0.0931899
0.0829184
0.0776922
0.0624433
0.0522397
0.0470813
0.0318777
0.0217193
0.011561
0.00640261
-0.00375578
-0.00391412
-0.0140499
-0.014163
-0.0192534
-0.0243666
-0.0244344
-0.0344797
-0.0294797
-0.0394797
-0.0393892
-0.0392308
-0.0439819
-0.0385973
-0.0429865
-0.0370815
-0.0457692
-0.0440272
-0.0370136
-0.0399095
-0.0329186
-0.0313123
-0.0253847
-0.0302489
-0.0308598
-0.0321494
-0.033982
-0.0361765
-0.0385068
-0.040724
-0.0476697
-0.0443892
-0.0459276
-0.0472172
-0.0482579
-0.0490498
-0.044638
-0.0450905
-0.0454524
-0.0508144
-0.0511085
-0.05138
-0.0516289
-0.0518325
-0.0519909
-0.0521492
-0.0523302
-0.052466
-0.0576244
-0.0577601
-0.0579185
-0.0630542
-0.0632126
-0.063371
-0.0635294
-0.0687104
-0.0688688
-0.0690271
-0.0691855
-0.0743665
-0.0745249
-0.0746832
-0.0698416
-0.0699774
-0.0751358
-0.0752489
-0.0753846
-0.0704978
-0.0706109
-0.0757466
-0.0708597
-0.0759729
-0.0710633
-0.0711765
-0.0712896
-0.0714027
-0.0665158
-0.0666063
-0.0666515
-0.0566516
-0.0566516
-0.0516063
-0.0415611
-0.0314932
-0.0214027
-0.011267
0.00389138
0.00904976
0.0192307
0.0244117
0.0346154
0.034819
0.035
0.0352036
0.035362
0.0304751
0.0205656
0.0155882
0.0105656
0.00547507
0.000316724
9.04948e-05
-0.00518098
-0.0104977
-0.0158598
-0.026267
-0.0216742
-0.0271493
-0.0326018
-0.0280543
-0.0335068
-0.0289366
-0.0343212
-0.0347059
-0.0400678
-0.0354072
-0.0357466
-0.0360407
-0.0363574
-0.0316289
-0.0319004
-0.0321719
-0.0324208
-0.0326697
-0.0278733
-0.0180995
-0.00830317
0.00647061
0.0262443
0.046086
0.0708824
0.115747
0.185611
0.285475
0.395339
0.505204
0.560091
0.579932
0.549796
0.479661
0.394525
0.329367
0.279208
0.21905
0.153914
0.0938009
0.0436652
0.00855204
-0.0115611
-0.0166742
-0.02681
-0.0369457
-0.0420814
-0.0521946
-0.0573077
-0.0624208
-0.0625339
-0.0676471
-0.0677602
-0.0678959
-0.0680317
-0.0681674
-0.0683258
-0.0684615
-0.0685747
-0.0636878
-0.0638462
-0.0639819
-0.0591177
-0.0592534
-0.0593892
-0.0595249
-0.0596607
-0.0647738
-0.0598643
-0.0649548
-0.0600227
-0.0600906
-0.0651584
-0.0602263
-0.0603168
-0.0603847
-0.0604752
-0.0555431
-0.050611
-0.0507015
-0.0457694
-0.0458372
-0.0458825
-0.045973
-0.040973
-0.040973
-0.035973
-0.0309277
-0.0258599
-0.0207015
-0.0155431
-0.00529425
0.00497724
0.0152713
0.0205881
0.0309275
0.0412894
0.0466288
0.0569682
0.0672623
0.0775338
0.0876922
0.0977827
0.107805
0.112783
0.11776
0.117715
0.122647
0.117489
0.11724
0.111923
0.111606
0.0962668
0.0859274
0.0806333
0.0653392
0.0550904
0.0448189
0.03957
0.0292985
0.024027
0.0137781
0.0085519
0.0033709
-0.00676484
-0.00687796
-0.0119685
-0.017059
-0.0221268
-0.022172
-0.0221494
-0.0270815
-0.0269458
-0.0367196
-0.0314255
-0.0410182
-0.0404074
-0.0344571
-0.038077
-0.0361992
-0.0388463
-0.0262671
-0.0285974
-0.0260634
-0.0238689
-0.0221042
-0.0157015
-0.0145929
-0.0188463
-0.0235069
-0.01862
-0.0192535
-0.02043
-0.0221947
-0.0244571
-0.0271494
-0.0300227
-0.0379187
-0.0406788
-0.0430544
-0.0450906
-0.0468779
-0.0484616
-0.0497512
-0.050724
-0.0514254
-0.0519005
-0.0572625
-0.0625566
-0.0628055
-0.0579865
-0.0631222
-0.0632127
-0.0632579
-0.0683032
-0.0683032
-0.0683032
-0.0683032
-0.0733258
-0.0783258
-0.0833484
-0.0833484
-0.0783257
-0.0783484
-0.0783484
-0.0783484
-0.0783257
-0.0783031
-0.0782578
-0.07319
-0.0781221
-0.0730316
-0.0779411
-0.0678505
-0.0777601
-0.0776469
-0.0725338
-0.0724207
-0.0672623
-0.0771039
-0.0669229
-0.0717419
-0.0715383
-0.0662894
-0.0660179
-0.0607238
-0.0654071
-0.0600451
-0.0596605
-0.0492533
-0.0488234
-0.0333483
-0.0228279
-0.0122849
-0.00671932
-0.0111537
-0.0055881
-0.00506775
0.0104526
0.0259277
0.0313576
0.0367196
0.0370137
0.0321947
0.0272852
0.0223078
0.0171947
0.0169911
0.0116743
0.0112671
0.015792
0.0102716
0.00468338
-0.00595012
-0.0116062
-0.017285
-0.0229637
-0.0236424
-0.0292985
-0.029932
-0.0355429
-0.0360859
-0.0366063
-0.0370588
-0.0325112
-0.0329184
-0.0333483
-0.0387556
-0.0340949
-0.0344343
-0.0297284
-0.0250452
-0.0253166
-0.0255881
-0.020837
-0.0110632
0.00373314
0.0185748
0.0384164
0.0632354
0.103032
0.167851
0.25267
0.362489
0.46733
0.552172
0.582014
0.581855
0.541652
0.451425
0.371199
0.315996
0.265792
0.200611
0.13043
0.0702489
0.0200452
-0.00515839
-0.0203847
-0.0306561
-0.0409276
-0.0511539
-0.0614027
-0.0666516
-0.0669005
-0.077172
-0.0774435
-0.0776924
-0.0779639
-0.0782354
-0.0785295
-0.0788236
-0.0841404
-0.0794119
-0.0796607
-0.0799322
-0.0851811
-0.0854526
-0.0857014
-0.0859729
-0.0861992
-0.086448
-0.0866743
-0.0869231
-0.0871267
-0.087353
-0.0875792
-0.0827829
-0.0879865
-0.0831449
-0.0833711
-0.0785521
-0.0737557
-0.0739593
-0.0691177
-0.0692987
-0.0644344
-0.0646154
-0.0647964
-0.0599774
-0.0551358
-0.0552942
-0.0554299
-0.0504978
-0.045543
-0.0405657
-0.0356335
-0.0257014
-0.0207919
-0.0158145
-0.00574665
0.00432122
0.0194343
0.0295022
0.0395475
0.0495475
0.0645023
0.0743892
0.0892534
0.104072
0.108891
0.11371
0.118507
0.123258
0.122873
0.117443
0.116946
0.111425
0.100905
0.0903846
0.0849095
0.0694118
0.0589593
0.0435294
0.0331222
0.0277602
0.0223981
0.0170361
0.00667417
0.00135742
-0.00893667
-0.00918554
-0.00936653
-0.0145475
-0.0197059
-0.0248416
-0.0299321
-0.0349547
-0.0349094
-0.0347963
-0.0345701
-0.0341402
-0.0334388
-0.0323528
-0.0357918
-0.0337556
-0.0313348
-0.0287782
-0.0212443
-0.0138914
-0.0119683
-0.0154298
-0.0142081
-0.0182805
-0.0177149
-0.0175792
-0.0128733
-0.0135972
-0.0147737
-0.0114705
-0.013733
-0.0215157
-0.0245927
-0.0277375
-0.0307239
-0.0333257
-0.0356334
-0.042647
-0.0394569
-0.0459727
-0.0471945
-0.0531447
-0.0488913
-0.05457
-0.0601583
-0.0557013
-0.061199
-0.0566741
-0.0621492
-0.0576017
-0.0630316
-0.0634388
-0.0638461
-0.0642533
-0.0646379
-0.0700451
-0.0704524
-0.0708596
-0.0712668
-0.0766967
-0.0720813
-0.0724659
-0.0728279
-0.0731672
-0.0785066
-0.0738007
-0.0791174
-0.074389
-0.0696605
-0.069932
-0.0652035
-0.0654523
-0.0557238
-0.0609953
-0.0562668
-0.0565157
-0.051742
-0.0469456
-0.0421266
-0.0422849
-0.0474207
-0.0425112
-0.0475791
-0.0375791
-0.0375564
-0.0324886
-0.0273755
-0.0172397
-0.0120587
-0.0068551
-0.00660622
-0.00135733
-0.00113112
0.00409514
0.0243214
0.029525
0.0396381
0.039706
0.0397059
0.0346155
0.0244344
0.0241629
0.0137784
0.00830321
0.00271498
-0.00294115
-0.00364251
-0.00438911
-0.0101583
-0.0159728
-0.0218099
-0.0276922
-0.0385294
-0.0393438
-0.0451131
-0.0458823
-0.0466289
-0.0473755
-0.0480995
-0.0437556
-0.0443891
-0.0499773
-0.0455203
-0.046018
-0.0414931
-0.0419682
-0.0423981
-0.0428054
-0.0382126
-0.0385746
-0.033914
-0.0292307
-0.0145701
9.05693e-05
0.0147286
0.0393892
0.0740499
0.118733
0.193416
0.2931
0.407783
0.512444
0.567104
0.571787
0.531471
0.446154
0.370815
0.305475
0.260136
0.194819
0.12948
0.0691404
0.023801
0.00348425
-0.0118551
-0.0222171
-0.0325565
-0.0429185
-0.0432579
-0.0485972
-0.053914
-0.0592307
-0.0595475
-0.0598416
-0.0651584
-0.0604298
-0.060724
-0.0610407
-0.0563348
-0.056629
-0.0619457
-0.0622398
-0.0625113
-0.0627828
-0.0630317
-0.0683032
-0.0635747
-0.0688688
-0.0691403
-0.0693666
-0.0646154
-0.0648417
-0.0600905
-0.0602942
-0.0555204
-0.0557466
-0.0559729
-0.0561539
-0.0513122
-0.051448
-0.0516064
-0.0517647
-0.0469231
-0.0471267
-0.0422625
-0.0423982
-0.042534
-0.0326471
-0.0327376
-0.0228054
-0.0178959
-0.0129864
-0.0030769
0.00178735
0.00665161
0.0115611
0.0264706
0.0364254
0.0463801
0.0563123
0.0661765
0.0809503
0.0907014
0.10043
0.110158
0.114887
0.119593
0.124344
0.124118
0.123891
0.123665
0.123416
0.113145
0.107805
0.0925113
0.0872398
0.0769909
0.0717647
0.0615385
0.0463348
0.0411765
0.0310181
0.0208371
0.0106787
0.00552036
0.000384614
-0.00975113
-0.0149095
-0.0150679
-0.0202489
-0.0204072
-0.025543
-0.0256561
-0.0257013
-0.0257013
-0.0306335
-0.0305203
-0.0302941
-0.0299321
-0.0292986
-0.0233258
-0.0169909
-0.0204298
-0.0240271
-0.0230769
-0.0227828
-0.0182127
-0.019095
-0.0252036
-0.0262896
-0.0272851
-0.0282805
-0.0342986
-0.0352941
-0.036086
-0.0367195
-0.0371493
-0.0374887
-0.0378054
-0.0430543
-0.0432806
-0.0484842
-0.0486652
-0.0538462
-0.0490045
-0.0591855
-0.0593213
-0.0544344
-0.0595475
-0.0596606
-0.0597738
-0.0599095
-0.0650679
-0.0652036
-0.0703394
-0.0704751
-0.0656108
-0.0657466
-0.0658823
-0.0710181
-0.0661538
-0.0662896
-0.0614027
-0.0614706
-0.0615384
-0.0565837
-0.0566289
-0.0616742
-0.0617647
-0.0618325
-0.0569004
-0.0619683
-0.0570361
-0.052104
-0.0571719
-0.0572171
-0.052285
-0.0523529
-0.0473981
-0.047466
-0.0374886
-0.0374886
-0.0324886
-0.022466
-0.0174434
-0.00739814
-0.00235289
-0.00228502
-0.00219452
0.00289597
0.0129865
0.023077
0.0282127
0.0233484
0.0184842
0.0136426
0.0137783
0.00389144
-0.000995435
-0.00590494
-0.0108597
-0.0108371
-0.0108145
-0.00583707
-0.0159049
-0.0260181
-0.0311538
-0.0362896
-0.0364253
-0.0415837
-0.0467647
-0.046923
-0.0470814
-0.0472398
-0.0473982
-0.0475339
-0.0476697
-0.0428054
-0.0429412
-0.0330543
-0.03819
-0.0382805
-0.038371
-0.0384389
-0.0334842
-0.0335294
-0.0185973
-0.00864256
0.0063348
0.0213122
0.0463122
0.0813348
0.13638
0.226403
0.331403
0.436403
0.51138
0.536403
0.521448
0.471448
0.386471
0.321493
0.266516
0.216493
0.151493
0.101493
0.0464932
0.0164932
0.00149321
-0.0135068
-0.023552
-0.0335747
-0.0436199
-0.0436652
-0.0487104
-0.0487557
-0.0538462
-0.0589367
-0.0590272
-0.0541403
-0.0542308
-0.0543213
-0.0494344
-0.0545475
-0.0546606
-0.0547964
-0.0599548
-0.0550679
-0.060181
-0.0602941
-0.0604072
-0.0555203
-0.0606108
-0.0656787
-0.0657466
-0.0658144
-0.0658597
-0.0659049
-0.0559502
-0.056018
-0.0560633
-0.0560633
-0.0560859
-0.0510859
-0.0510633
-0.0510633
-0.0460407
-0.0459954
-0.0409502
-0.0358823
-0.0357918
-0.0356787
-0.0305656
-0.0254298
-0.0202488
-0.0200905
-0.0148868
-0.0046606
0.000520401
0.0106788
0.0208371
0.0310181
0.0362218
0.046448
0.056629
0.0617195
0.0717421
0.0817421
0.0866742
0.0915838
0.101471
0.10629
0.106063
0.105815
0.110566
0.105272
0.104955
0.094638
0.0892987
0.0840046
0.0737104
0.0633937
0.0530996
0.0428055
0.0325113
0.0222172
0.0169683
0.00676472
0.00160635
-0.00350676
-0.00357463
-0.0136425
-0.0187104
-0.0237556
-0.0288009
-0.0288235
-0.0288688
-0.0338688
-0.0388462
-0.0387557
-0.0435973
-0.0433258
-0.0429186
-0.0422625
-0.0411991
-0.0396833
-0.0327149
-0.0354298
-0.0380543
-0.0307918
-0.0338235
-0.0323303
-0.0312217
-0.0254977
-0.0302489
-0.0306561
-0.0317647
-0.0335747
-0.0358371
-0.0382579
-0.0356787
-0.0429185
-0.0448869
-0.0465837
-0.0530543
-0.0493213
-0.0503394
-0.0511312
-0.0467421
-0.0471719
-0.0525113
-0.0527828
-0.0480317
-0.0532353
-0.0534163
-0.0535747
-0.0487104
-0.0538914
-0.0540272
-0.0541629
-0.0592986
-0.0544344
-0.0595475
-0.0596832
-0.0598642
-0.0600226
-0.0602036
-0.0603846
-0.065543
-0.0606787
-0.0658145
-0.0709502
-0.071086
-0.0712217
-0.0713122
-0.0714027
-0.0765158
-0.0766063
-0.0766968
-0.0767873
-0.0818552
-0.0769004
-0.0769683
-0.0770136
-0.0770136
-0.0670136
-0.0670136
-0.0670136
-0.0569683
-0.0519005
-0.0467873
-0.041629
-0.0364254
-0.0362217
-0.0309729
-0.0156788
-0.00538464
-6.78971e-05
0.00527148
0.00561085
0.00592759
0.0162669
0.0265837
0.0318552
0.0371041
0.0373077
0.0324434
0.0275339
0.0275113
0.0173982
0.0122624
0.0120588
0.0067647
0.00640271
0.00597285
0.00549773
-0.00502263
-0.0155656
-0.0211539
-0.0317195
-0.0322851
-0.0378281
-0.0383937
-0.0439367
-0.044457
-0.0449548
-0.0404072
-0.0358371
-0.0312443
-0.0316516
-0.0320588
-0.0324434
-0.027828
-0.0281674
-0.0284841
-0.0237782
-0.0190723
-0.0143438
-0.00961533
9.05469e-05
0.0148417
0.0345928
0.0543666
0.0841403
0.138959
0.218756
0.323529
0.423303
0.493077
0.512851
0.497625
0.447444
0.37724
0.307036
0.256833
0.206606
0.151425
0.0962445
0.0510635
0.0109051
-0.00425328
-0.0194343
-0.0246379
-0.0297963
-0.0399773
-0.0451356
-0.0503166
-0.045475
-0.050656
-0.055837
-0.056018
-0.0562216
-0.0564026
-0.0565836
-0.051742
-0.0569003
-0.0520813
-0.0522624
-0.0574207
-0.0526017
-0.0527827
-0.0529864
-0.05319
-0.0533936
-0.0585973
-0.0587783
-0.0539593
-0.0541629
-0.0543665
-0.0495702
-0.0497738
-0.0549774
-0.0501584
-0.0503394
-0.0555204
-0.050724
-0.050905
-0.046086
-0.0462444
-0.0463575
-0.0464706
-0.0465838
-0.0466742
-0.0417647
-0.0418552
-0.0419231
-0.0369231
-0.0319005
-0.0268552
-0.02181
-0.0117647
-0.00671946
0.00334843
0.0134616
0.018552
0.0336652
0.0437557
0.0538235
0.0688462
0.0838462
0.0838009
0.0887104
0.0985973
0.103416
0.108213
0.107986
0.107783
0.107534
0.107285
0.0970362
0.0917647
0.0865159
0.0812896
0.0710633
0.0608145
0.0505656
0.0403167
0.0351131
0.0249774
0.0198643
0.0197738
0.00970589
0.00963801
-0.000407234
-0.00545248
-0.0104751
-0.0104977
-0.0104977
-0.0154751
-0.0154299
-0.0203394
-0.0252036
-0.0299774
-0.0296606
-0.0342081
-0.0335294
-0.0275113
-0.0260181
-0.024095
-0.0219005
-0.0196606
-0.0225566
-0.0207692
-0.0193891
-0.0184389
-0.0179638
-0.0230995
-0.023914
-0.0254977
-0.0276244
-0.0301357
-0.0326244
-0.0299774
-0.0370136
-0.0387104
-0.0452262
-0.0415611
-0.0426923
-0.0435294
-0.0441403
-0.0445927
-0.0449095
-0.045181
-0.0504072
-0.0555882
-0.055724
-0.0508371
-0.0509049
-0.0559276
-0.0559955
-0.0509955
-0.0509955
-0.0559955
-0.0559955
-0.0559955
-0.0610181
-0.0610407
-0.0610181
-0.0609955
-0.0609502
-0.060905
-0.0658597
-0.0658145
-0.0657466
-0.0656787
-0.0606335
-0.055543
-0.0554751
-0.0604073
-0.0603394
-0.0552941
-0.0502489
-0.0502263
-0.0452036
-0.045181
-0.0451584
-0.0451358
-0.0400905
-0.0400679
-0.0350226
-0.0349547
-0.0348642
-0.0297511
-0.0295928
-0.0194118
-0.0192308
-0.0140045
-0.0137557
-0.00848417
-0.00316744
-0.00282806
0.00248868
0.00778279
0.0180995
0.023371
0.0286652
0.0238914
0.024095
0.0142308
0.00934389
0.00436652
-0.000701353
-0.0108145
-0.0109955
-0.0112443
-0.0115837
-0.0119683
-0.0173982
-0.0278281
-0.0282579
-0.0337104
-0.0391177
-0.0395475
-0.0399321
-0.0403168
-0.0457014
-0.0410634
-0.0413801
-0.0416516
-0.0419005
-0.0421267
-0.037353
-0.0375566
-0.0377602
-0.0379412
-0.0330995
-0.0282579
-0.028371
-0.0234615
-0.013552
-0.00364252
0.011267
0.0311765
0.051086
0.0760407
0.130995
0.21595
0.310882
0.425814
0.500747
0.545679
0.525634
0.480588
0.405543
0.325475
0.275407
0.230294
0.180204
0.120113
0.065
0.0248869
-0.00522627
-0.015362
-0.0254978
-0.0356561
-0.0408371
-0.0510181
-0.0561765
-0.0663349
-0.0615159
-0.0717195
-0.0718778
-0.0720362
-0.0722172
-0.0723982
-0.0726018
-0.0728054
-0.0780091
-0.0782127
-0.0834163
-0.0786199
-0.0788235
-0.0840724
-0.0843213
-0.0845475
-0.0847511
-0.0899548
-0.0851131
-0.0802715
-0.0804525
-0.0756335
-0.0757918
-0.0709276
-0.071086
-0.0661991
-0.0663122
-0.066448
-0.0665837
-0.0566968
-0.0568099
-0.0569004
-0.0519909
-0.0521041
-0.0522172
-0.0473529
-0.0424434
-0.0375565
-0.0326697
-0.027828
-0.023009
-0.01319
-0.00839364
0.00140274
0.00622174
0.021086
0.0209503
0.0357919
0.0405656
0.0553168
0.0600227
0.0697059
0.0843892
0.0890724
0.0987557
0.103462
0.11319
0.112941
0.112692
0.107421
0.0971267
0.0968326
0.0865385
0.0812444
0.0709729
0.0607014
0.0554525
0.045181
0.0349322
0.0246833
0.014457
0.00920817
0.00395931
-0.00626694
-0.0114932
-0.0166968
-0.0269231
-0.0271267
-0.0323303
-0.0375339
-0.0377149
-0.0378506
-0.0379638
-0.0430316
-0.0430316
-0.0529864
-0.0528959
-0.0526244
-0.0520588
-0.0511991
-0.0500226
-0.0488461
-0.0529411
-0.0526244
-0.0479638
-0.0488687
-0.0502036
-0.0466063
-0.0479185
-0.0490724
-0.045181
-0.0463348
-0.0473981
-0.0433257
-0.0440271
-0.0445475
-0.0449773
-0.0453619
-0.0457466
-0.0461312
-0.0465384
-0.0418778
-0.0472398
-0.0475791
-0.0478959
-0.0482126
-0.0435067
-0.0488009
-0.049095
-0.0494117
-0.0497285
-0.0500678
-0.0504072
-0.0457466
-0.0461086
-0.0514706
-0.0568099
-0.0521493
-0.0575339
-0.0578959
-0.0582579
-0.0586199
-0.0589366
-0.0592534
-0.0545701
-0.0598869
-0.060181
-0.0554977
-0.0558145
-0.0561312
-0.0564027
-0.0566742
-0.0569457
-0.0522172
-0.0475113
-0.0428054
-0.0430995
-0.0383936
-0.0336651
-0.0239366
-0.0142081
-0.00947963
-0.00470587
6.78841e-05
-0.00013574
-0.000361983
0.00445702
0.0142534
0.0240724
0.0288914
0.028733
0.028552
0.023371
0.0182353
0.00807692
0.00294118
-0.00221719
-0.00739818
-0.00762442
-0.00789592
-0.0132127
-0.0135973
-0.0189819
-0.0244117
-0.0298642
-0.0303393
-0.0358371
-0.0363122
-0.0368099
-0.0373077
-0.042828
-0.0383484
-0.0388461
-0.0393213
-0.0397964
-0.0452715
-0.040724
-0.0411991
-0.0366516
-0.0371041
-0.0375566
-0.0379864
-0.0333937
-0.0287783
-0.0241855
-0.0145928
-4.5252e-05
0.0145249
0.0341177
0.0637104
0.108303
0.182896
0.287489
0.397036
0.496606
0.546199
0.560814
0.52543
0.460091
0.374751
0.304389
0.259072
0.198756
0.138439
0.0781222
0.0278054
-0.00248869
-0.0178054
-0.0281222
-0.0334389
-0.0387557
-0.049095
-0.0544118
-0.0597511
-0.0650679
-0.0653846
-0.070724
-0.0710181
-0.0713348
-0.0716516
-0.071991
-0.0723303
-0.0676471
-0.0679864
-0.0682805
-0.0685973
-0.073914
-0.0742534
-0.0695701
-0.0699095
-0.0652489
-0.0655656
-0.0708824
-0.0711991
-0.0664932
-0.0667873
-0.0671041
-0.0624208
-0.0626923
-0.0629638
-0.0632127
-0.0634615
-0.0637104
-0.0589367
-0.0541403
-0.0543213
-0.0495023
-0.0446606
-0.0447964
-0.0398869
-0.0349547
-0.0299774
-0.03
-0.0250226
-0.0200226
-0.0100226
-0.00502262
5.58794e-09
0.0100453
0.0151358
0.0252263
0.0352941
0.0453167
0.0502941
0.0602036
0.0650226
0.074819
0.0895928
0.0993213
0.109005
0.113643
0.118213
0.11776
0.117308
0.116855
0.111357
0.105905
0.0954299
0.0899774
0.0795475
0.0741403
0.063733
0.0533484
0.0429638
0.0326018
0.0272851
0.0169457
0.0116516
0.0063801
0.00113123
-0.00411765
-0.00936651
-0.0146154
-0.0198416
-0.0200452
-0.0202036
-0.0203167
-0.025362
-0.030362
-0.0302489
-0.03
-0.0295249
-0.028733
-0.0224887
-0.0257692
-0.0236199
-0.026267
-0.023914
-0.0267873
-0.0250453
-0.0187783
-0.0229864
-0.0226471
-0.0229864
-0.0190724
-0.0209502
-0.0284389
-0.0261991
-0.0290272
-0.0316516
-0.0339593
-0.030905
-0.0326697
-0.0342081
-0.0404977
-0.0415158
-0.0372398
-0.0428054
-0.0432579
-0.0436652
-0.0390045
-0.0393213
-0.0446154
-0.0398643
-0.0450905
-0.0402941
-0.0454751
-0.0456787
-0.0458824
-0.0460634
-0.0462443
-0.0514027
-0.0515611
-0.0517647
-0.0569683
-0.0521493
-0.0523077
-0.0524661
-0.0576018
-0.0577602
-0.0629185
-0.0630769
-0.0632353
-0.0683937
-0.0685294
-0.0686652
-0.0638235
-0.0689593
-0.0690498
-0.0741403
-0.0692081
-0.0692534
-0.064276
-0.0592986
-0.0592986
-0.0592986
-0.0592534
-0.0591629
-0.0540724
-0.0539819
-0.0488688
-0.0437104
-0.0335294
-0.0283258
-0.0181222
-0.00789592
-0.00766968
-0.00744344
-0.00217194
0.00809955
0.0183937
0.0286878
0.0339367
0.0291629
0.0243439
0.0294796
0.0195249
0.0195023
0.0143891
0.00920815
0.00393666
-0.00140271
-0.00178732
-0.00223981
-0.00773755
-0.0182805
-0.0188235
-0.0243665
-0.0299095
-0.0304525
-0.0309728
-0.0314706
-0.0319457
-0.0323982
-0.032828
-0.0382127
-0.0385747
-0.0388914
-0.0341855
-0.0395023
-0.0397964
-0.0450679
-0.0402941
-0.0355204
-0.0307013
-0.0258823
-0.0210407
-0.00619908
0.00864254
0.0284842
0.0483258
0.0831901
0.138009
0.227828
0.332647
0.447466
0.532308
0.562127
0.561968
0.50681
0.431674
0.346538
0.29638
0.241244
0.181109
0.11595
0.0508145
0.010724
-0.0143892
-0.0245023
-0.039638
-0.0447512
-0.0498417
-0.0549548
-0.0600679
-0.0652037
-0.0703168
-0.0704525
-0.0706109
-0.0707693
-0.0709276
-0.071086
-0.071267
-0.0664254
-0.0666064
-0.06681
-0.0719684
-0.0721267
-0.0723077
-0.0675114
-0.0676924
-0.0678734
-0.0680543
-0.0682353
-0.0684163
-0.0635973
-0.0587783
-0.0589593
-0.0641629
-0.0643439
-0.0645476
-0.0647286
-0.0649096
-0.0650679
-0.0652037
-0.060362
-0.0605204
-0.0656788
-0.0608372
-0.0509729
-0.0511087
-0.0512218
-0.0462896
-0.0413123
-0.0363349
-0.0313123
-0.0262444
-0.0161765
-0.0111313
-0.00106341
0.00402709
0.00916284
0.0243438
0.0295248
0.0396832
0.0497963
0.0649321
0.0749773
0.0849999
0.0949773
0.104864
0.114706
0.114547
0.119389
0.119231
0.119004
0.113688
0.103303
0.0979185
0.0925112
0.0821493
0.0718099
0.0614932
0.051199
0.0409275
0.0306787
0.0254072
0.0151357
0.00486418
0.00463794
-0.000588313
-0.00579193
-0.0159955
-0.0161765
-0.0213123
-0.026448
-0.0315385
-0.0366064
-0.0366064
-0.0415385
-0.0413802
-0.0411313
-0.035724
-0.0350906
-0.0340498
-0.0275113
-0.0304751
-0.0280543
-0.0255204
-0.0229864
-0.025724
-0.0238236
-0.0123303
-0.0161086
-0.015181
-0.0146154
-0.0194118
-0.0246154
-0.0252036
-0.0261991
-0.0226471
-0.0246154
-0.0320362
-0.0346833
-0.0324208
-0.035
-0.0373077
-0.0392987
-0.0360634
-0.0376923
-0.0390724
-0.0402036
-0.0410407
-0.0466968
-0.0421946
-0.0426244
-0.0480091
-0.0483937
-0.0437783
-0.0441177
-0.0493892
-0.054638
-0.0548869
-0.0551131
-0.0603168
-0.0605204
-0.0607014
-0.0558824
-0.0560407
-0.0612217
-0.0614254
-0.061629
-0.0618552
-0.0620588
-0.0622851
-0.0575113
-0.057715
-0.0578959
-0.0580996
-0.0583032
-0.0584616
-0.0586199
-0.0637783
-0.063914
-0.0590272
-0.0591176
-0.0591855
-0.0592308
-0.0542534
-0.0542534
-0.0492081
-0.0491403
-0.0490724
-0.0439366
-0.0437783
-0.0385973
-0.038371
-0.0280769
-0.0227602
-0.0174208
-0.0020362
0.00339366
-0.00115385
-0.000723988
-0.000316743
0.0100679
0.0204072
0.0356787
0.0308597
0.0309729
0.0210181
0.0159955
0.0108598
0.00563351
0.000316761
-0.00509048
-0.00556559
-0.00610858
-0.00671944
-0.0123982
-0.0180769
-0.0238009
-0.0295249
-0.0302715
-0.0360181
-0.0317421
-0.0374434
-0.0380995
-0.038733
-0.0393439
-0.0399321
-0.0405203
-0.0410407
-0.0365158
-0.0369231
-0.0423077
-0.0376244
-0.0379638
-0.0332805
-0.0335973
-0.028914
-0.0242307
-0.0195475
-0.00979636
-6.7845e-05
0.0196833
0.0344344
0.0591403
0.103846
0.168575
0.258326
0.3581
0.452873
0.497625
0.51233
0.472081
0.406833
0.331584
0.281335
0.251131
0.195928
0.140724
0.075543
0.0353394
0.00511314
-0.0100905
-0.0202488
-0.0254298
-0.0255882
-0.0357239
-0.0458371
-0.0509955
-0.0511991
-0.0564027
-0.0616063
-0.0618099
-0.0620135
-0.0572172
-0.0623982
-0.0625792
-0.0577828
-0.058009
-0.0532126
-0.0584389
-0.0536425
-0.0538461
-0.0540271
-0.0592081
-0.0593891
-0.0545701
-0.0547737
-0.0549773
-0.055181
-0.0553846
-0.0556108
-0.0558144
-0.056018
-0.0562217
-0.0514253
-0.0516289
-0.0518325
-0.0520135
-0.0471945
-0.0473755
-0.0475565
-0.0427375
-0.0429637
-0.0431674
-0.0383257
-0.0334615
-0.0335746
-0.0336198
-0.0286651
-0.0237556
-0.0138461
-0.00895919
0.000950299
0.0108824
0.0208598
0.0307919
0.0407241
0.0455883
0.0604073
0.0701811
0.079887
0.0895702
0.0941856
0.103824
0.108484
0.113145
0.112805
0.117443
0.112104
0.106742
0.106425
0.0960634
0.085724
0.0703846
0.0600453
0.0547285
0.0444118
0.0441403
0.0288688
0.0236199
0.0083937
0.00316746
-0.0070814
-0.00730765
-0.0125113
-0.0126923
-0.0128733
-0.0180316
-0.0181448
-0.0232353
-0.0233031
-0.0283258
-0.0282805
-0.02319
-0.028009
-0.0326244
-0.0369909
-0.0359728
-0.0345701
-0.0328054
-0.0209276
-0.0241403
-0.0227602
-0.0220362
-0.0220814
-0.0278281
-0.0290724
-0.0307466
-0.0376018
-0.0345249
-0.036267
-0.0377828
-0.0491629
-0.0503846
-0.0563801
-0.0571041
-0.0626471
-0.0580996
-0.0534616
-0.0537783
-0.0540498
-0.0592987
-0.0595023
-0.0596833
-0.0598643
-0.0600227
-0.0601584
-0.0552489
-0.0603168
-0.0553394
-0.0604073
-0.0604525
-0.0604978
-0.060543
-0.0606109
-0.0606788
-0.055724
-0.0557919
-0.0558824
-0.0609503
-0.0560408
-0.0561313
-0.0562444
-0.0563575
-0.056448
-0.0515159
-0.0516064
-0.0516969
-0.0517874
-0.0518552
-0.0469231
-0.046991
-0.0320362
-0.0370815
-0.0371494
-0.0372172
-0.0372399
-0.0372625
-0.0323077
-0.0273304
-0.027353
-0.0223304
-0.0173304
-0.0123077
-0.00726248
-0.00219461
-0.00210411
0.00300902
0.00809952
0.0132353
0.023371
0.0235294
0.0336877
0.0288235
0.0239819
0.024095
0.0191855
0.0192534
0.00927598
0.00925336
-0.000814505
0.00411762
0.00398188
-0.00122174
-0.00147062
-0.00676474
-0.00703622
-0.0173303
-0.0176018
-0.0229186
-0.0232127
-0.0235294
-0.0238462
-0.0241403
-0.0294118
-0.0296606
-0.0298643
-0.0300226
-0.035181
-0.0353167
-0.0304299
-0.030543
-0.0256335
-0.0207013
-0.0157466
-0.0157918
-0.00585971
-0.000950202
0.0139593
0.0288914
0.0488236
0.0838236
0.133801
0.213801
0.308778
0.413756
0.493733
0.533688
0.518665
0.46862
0.38862
0.308597
0.263575
0.218529
0.163484
0.103416
0.0533484
0.0232806
-0.00178731
-0.0118326
-0.0268778
-0.0369231
-0.0469909
-0.0520588
-0.0471267
-0.0571945
-0.0622398
-0.0673077
-0.0723529
-0.0773982
-0.0724208
-0.072466
-0.0725113
-0.0725339
-0.0725565
-0.0725791
-0.0726018
-0.0676018
-0.0626018
-0.0675792
-0.0625792
-0.0625565
-0.0575113
-0.057466
-0.0624208
-0.0623529
-0.0572624
-0.0571719
-0.0570814
-0.0569909
-0.0568778
-0.0567421
-0.0566063
-0.0564027
-0.0512217
-0.0460407
-0.0508597
-0.0506787
-0.0454977
-0.0452941
-0.0400679
-0.0398643
-0.029638
-0.0243891
-0.0191403
-0.0138462
-0.00855204
-0.0032353
0.00708143
0.0124208
0.0227602
0.0280995
0.0384615
0.0488235
0.0541629
0.0694344
0.0797059
0.0849321
0.100158
0.105362
0.110566
0.110679
0.115747
0.120769
0.115769
0.115792
0.105792
0.100792
0.0957918
0.0907918
0.0808144
0.0708371
0.0658823
0.0509276
0.0459728
0.0359954
0.0260407
0.0160859
0.0111538
0.00624429
-0.00366522
-0.00350685
-0.0133711
-0.0181901
-0.0179865
-0.0227602
-0.022534
-0.0222625
-0.0219684
-0.0266064
-0.0261539
-0.0306335
-0.0299774
-0.034095
-0.0278733
-0.0262218
-0.0291177
-0.0216743
-0.0241403
-0.0217195
-0.0245928
-0.0179186
-0.0167647
-0.0210633
-0.0208824
-0.0214706
-0.0227828
-0.0297285
-0.0269683
-0.0292986
-0.0315158
-0.0334842
-0.0351584
-0.0366063
-0.0378733
-0.0388462
-0.0445701
-0.0400226
-0.0403168
-0.0455204
-0.0456787
-0.0457692
-0.0458145
-0.0508371
-0.0508145
-0.0507919
-0.0507692
-0.050724
-0.0506561
-0.055543
-0.0554299
-0.0552941
-0.0601584
-0.0599774
-0.0597964
-0.0646606
-0.0645023
-0.0643213
-0.0641403
-0.0639593
-0.0687783
-0.0686199
-0.0684615
-0.0683032
-0.0681448
-0.0679638
-0.0677828
-0.0676244
-0.0674661
-0.0672851
-0.0671267
-0.0619231
-0.0617195
-0.0614706
-0.0561991
-0.0609276
-0.0556335
-0.0603167
-0.0549774
-0.0545928
-0.0491855
-0.038733
-0.0432579
-0.0327376
-0.0321946
-0.021629
-0.0210181
-0.0154073
-0.0147964
-0.0191629
-0.0185294
-0.00791857
0.00766966
0.0182353
0.0187783
0.0142308
0.014638
0.0149321
0.00513573
0.00529411
-0.00463803
-0.00463804
-0.00972853
-0.00984167
-0.0100453
-0.0102942
-0.0155883
-0.0159276
-0.021267
-0.031629
-0.0319457
-0.0422851
-0.0375566
-0.0428507
-0.0431448
-0.0433937
-0.0436199
-0.0438009
-0.0439593
-0.044095
-0.0492308
-0.0443665
-0.039457
-0.0395475
-0.0346154
-0.034638
-0.029638
-0.0246606
-0.00466062
0.00531676
0.0203168
0.0403168
0.0753394
0.130385
0.200407
0.31543
0.415452
0.505475
0.540475
0.535498
0.500498
0.430475
0.355475
0.295475
0.250475
0.190475
0.125453
0.0604073
0.0203846
-0.00463801
-0.0196833
-0.0297285
-0.0397738
-0.0447964
-0.054819
-0.0548643
-0.0549095
-0.0599547
-0.0599774
-0.0650226
-0.0700905
-0.0701584
-0.0702262
-0.0753167
-0.0754072
-0.0704977
-0.0756108
-0.0756787
-0.0757692
-0.0758371
-0.075905
-0.0709954
-0.0710859
-0.0711991
-0.0712669
-0.0713348
-0.0664027
-0.0664706
-0.0665384
-0.0665837
-0.0616516
-0.0667194
-0.0667873
-0.0668326
-0.0668552
-0.0618552
-0.0619004
-0.0619457
-0.0620362
-0.0621267
-0.0622172
-0.062285
-0.0623077
-0.0623755
-0.0573982
-0.0574208
-0.0524208
-0.0424208
-0.0374208
-0.0274208
-0.0224434
-0.012466
-0.00746604
0.00255658
0.0126018
0.0276245
0.0376019
0.0525566
0.0675113
0.0724208
0.0873303
0.092172
0.101968
0.101719
0.106448
0.111176
0.110905
0.110656
0.100407
0.100158
0.0848869
0.079638
0.0643439
0.059095
0.0538235
0.0435747
0.0333484
0.0231448
0.0179638
0.0128055
0.00764708
0.00746609
-0.00769228
-0.00778278
-0.0178959
-0.0229638
-0.0280317
-0.0280543
-0.0280543
-0.0279638
-0.0328281
-0.0376245
-0.0373078
-0.0418553
-0.0411539
-0.0401358
-0.0385974
-0.0366516
-0.0343439
-0.0318779
-0.0245023
-0.0173303
-0.020543
-0.0192082
-0.0183258
-0.0179638
-0.0132579
-0.0143891
-0.0161991
-0.0185294
-0.0210181
-0.0235068
-0.0257918
-0.0327602
-0.039457
-0.0359729
-0.0372851
-0.0382805
-0.0440498
-0.0395928
-0.04
-0.040362
-0.0406787
-0.0409502
-0.0412217
-0.041448
-0.041629
-0.05181
-0.046991
-0.0521493
-0.0522851
-0.0524208
-0.0525339
-0.0476244
-0.0577376
-0.0578507
-0.0579864
-0.0580995
-0.05819
-0.0633032
-0.0583937
-0.0584615
-0.053552
-0.0586425
-0.063733
-0.0638009
-0.0588688
-0.0539593
-0.0490498
-0.0441176
-0.0442081
-0.0442986
-0.0443891
-0.0394796
-0.0395701
-0.0396606
-0.0347737
-0.0348869
-0.0299547
-0.03
-0.03
-0.03
-0.0249547
-0.0148868
-0.00979635
-0.00468323
0.000475146
0.00567878
0.00592764
0.00622176
0.00651588
0.0118552
0.022172
0.0274887
0.0327828
0.0330544
0.0333032
0.0235294
0.0237104
0.018801
0.0138009
0.00873308
0.00857471
0.00332583
0.00303172
-0.00228502
-0.00766962
-0.0131221
-0.0185972
-0.024095
-0.0245701
-0.0250452
-0.0254524
-0.0359049
-0.0312895
-0.0366968
-0.0370814
-0.0424434
-0.0427601
-0.0430316
-0.0432579
-0.0434615
-0.0486877
-0.0438913
-0.044095
-0.044276
-0.0444343
-0.0345927
-0.0247058
-0.024819
-0.00990946
2.26647e-05
0.0149774
0.0399095
0.0798643
0.149842
0.234819
0.354842
0.439864
0.514887
0.524887
0.50991
0.45491
0.37491
0.309887
0.259842
0.214819
0.144796
0.0897964
0.0397738
0.00477376
-0.0102262
-0.0202489
-0.0302489
-0.0352489
-0.0452489
-0.0502489
-0.0552489
-0.0552941
-0.0603394
-0.065362
-0.0653846
-0.0654072
-0.0704072
-0.065362
-0.065362
-0.060362
-0.060362
-0.065362
-0.060362
-0.0653846
-0.0653846
-0.0653846
-0.065362
-0.065362
-0.0704072
-0.0654299
-0.0604525
-0.0604299
-0.0654072
-0.060362
-0.0603394
-0.0603394
-0.0603167
-0.0602715
-0.0552262
-0.0502036
-0.0451583
-0.0451131
-0.0450679
-0.0450226
-0.04
-0.0399547
-0.0399095
-0.034819
-0.0297511
-0.0246832
-0.024638
-0.0195927
-0.0145475
-0.00950225
-0.004457
0.00556561
0.0156109
0.0206335
0.0306787
0.040724
0.0457692
0.0557919
0.0658371
0.085905
0.0859728
0.101063
0.106154
0.111244
0.111335
0.116425
0.121516
0.116584
0.116674
0.106765
0.101878
0.0869909
0.0821267
0.0672172
0.0623303
0.0524208
0.0424887
0.0325566
0.0226244
0.0126923
0.00276019
0.00282808
-0.0021493
-0.0071493
-0.0121267
-0.0171267
-0.0171267
-0.027104
-0.0270588
-0.0320814
-0.0321267
-0.0321946
-0.0323077
-0.0373982
-0.0425565
-0.0426923
-0.0479185
-0.0480543
-0.0482127
-0.0432579
-0.0482353
-0.0431448
-0.0429412
-0.0427376
-0.0425792
-0.0424661
-0.042353
-0.0472625
-0.047172
-0.0471267
-0.0471494
-0.042172
-0.0471946
-0.0472172
-0.0472172
-0.0472399
-0.0472399
-0.0472625
-0.0422625
-0.0522625
-0.0522851
-0.0523077
-0.057353
-0.0623982
-0.0624208
-0.0624208
-0.0623982
-0.0623756
-0.0623756
-0.062353
-0.0623303
-0.0623077
-0.0622851
-0.0622625
-0.0572172
-0.0621946
-0.0571494
-0.0620815
-0.0570136
-0.056991
-0.0519231
-0.0468552
-0.0518326
-0.05181
-0.0517874
-0.0467421
-0.0466968
-0.046629
-0.0415611
-0.0415159
-0.0364706
-0.0414254
-0.0363801
-0.0363575
-0.0263349
-0.0213123
-0.0113122
-0.00635748
-0.00644799
-0.00651585
-0.00660636
0.00332578
0.0082579
0.01819
0.0180995
0.0179864
0.0178733
0.0127602
0.00766967
-0.00242081
-0.00746606
-0.0175566
-0.0176018
-0.0226471
-0.0226923
-0.0276923
-0.0326697
-0.0325792
-0.0425113
-0.0473982
-0.0523077
-0.0522172
-0.0571267
-0.0569909
-0.0568552
-0.0567194
-0.0515611
-0.0564479
-0.0563348
-0.0562443
-0.0561765
-0.0561086
-0.0510181
-0.040905
-0.0458145
-0.040724
-0.0406561
-0.0355656
-0.0305204
-0.0154751
0.00457014
0.019638
0.0447059
0.0647964
0.119842
0.184864
0.289887
0.389887
0.479887
0.52991
0.524932
0.494932
0.414955
0.334977
0.28
0.240023
0.195068
0.130091
0.0751132
0.0351358
0.0151584
0.000181027
-0.00977372
-0.0197511
-0.0297285
-0.0347059
-0.0446832
-0.0446606
-0.049638
-0.0545701
-0.0545475
-0.0545249
-0.0495249
-0.0545475
-0.0545701
-0.0595927
-0.0595927
-0.0596154
-0.059638
-0.0596606
-0.0647058
-0.0647511
-0.0647964
-0.0648416
-0.0698869
-0.0699095
-0.0699774
-0.0700452
-0.0701357
-0.0652262
-0.0702941
-0.070362
-0.0604072
-0.0604751
-0.0605203
-0.060543
-0.055543
-0.055543
-0.0555429
-0.0504977
-0.0504751
-0.0454525
-0.0454751
-0.0404977
-0.035543
-0.0306108
-0.0207013
-0.0107466
0.00425343
0.0042308
0.0142082
0.0141629
0.0241177
0.0340724
0.0440724
0.059095
0.0691403
0.0742308
0.0793213
0.0894118
0.0994571
0.109502
0.114525
0.119548
0.124548
0.11457
0.114593
0.104615
0.104683
0.0947285
0.0897512
0.0847738
0.0697738
0.0547738
0.0397738
0.0347738
0.0197964
0.0198191
0.00981906
0.00479645
-0.000226192
-0.0102488
-0.0152714
-0.0252941
-0.0252714
-0.0302941
-0.0302941
-0.0353393
-0.0354072
-0.0354977
-0.0406108
-0.0457013
-0.0458371
-0.0510181
-0.0464253
-0.0470362
-0.047828
-0.0486425
-0.0492308
-0.0545475
-0.0495023
-0.0492082
-0.0486878
-0.0482353
-0.0479412
-0.0476019
-0.052172
-0.0466743
-0.051267
-0.0509503
-0.0507241
-0.0505431
-0.0504073
-0.0502716
-0.0501358
-0.0500227
-0.049887
-0.0497738
-0.0496834
-0.0546155
-0.0545702
-0.054525
-0.0494571
-0.0493666
-0.0542987
-0.0542535
-0.0592309
-0.0542083
-0.0541856
-0.054163
-0.0491178
-0.0490951
-0.0490725
-0.0490499
-0.0490273
-0.0490273
-0.0440499
-0.0390725
-0.0390951
-0.0341178
-0.0391404
-0.0341856
-0.0342535
-0.0342761
-0.0392987
-0.044344
-0.0443892
-0.0444345
-0.0444797
-0.049525
-0.0445476
-0.0395928
-0.0346155
-0.0296607
-0.024706
-0.00975119
0.000180922
0.00013569
-0.00493219
4.51878e-05
-2.26796e-05
0.00490945
0.0147963
0.0196606
0.0195475
0.0144343
0.00934383
-0.000769295
-0.00588241
-0.0110408
-0.0111991
-0.0163123
-0.0214254
-0.0215159
-0.0216064
-0.026629
-0.0316969
-0.0367648
-0.0468326
-0.0518553
-0.0518553
-0.0568553
-0.0518326
-0.0568553
-0.0568779
-0.0569231
-0.0619684
-0.0570362
-0.0570589
-0.0520815
-0.0521041
-0.0521267
-0.0521719
-0.0472398
-0.0473303
-0.0423982
-0.042466
-0.0325113
-0.0225792
-0.012647
0.0072851
0.0221946
0.0470815
0.081991
0.151878
0.25181
0.356719
0.466652
0.516561
0.546493
0.516403
0.456335
0.376267
0.311199
0.266154
0.201086
0.141041
0.0809502
0.0358824
0.000814475
-0.0192534
-0.0293213
-0.0343891
-0.0444344
-0.0544796
-0.0595249
-0.0695928
-0.0746606
-0.0697059
-0.0697738
-0.0698416
-0.0699095
-0.0749774
-0.075
-0.0750226
-0.0700679
-0.0701131
-0.0701584
-0.0702036
-0.0702489
-0.0753168
-0.075362
-0.0754299
-0.0754751
-0.075543
-0.0756109
-0.0706787
-0.0707466
-0.0707692
-0.0708145
-0.0658371
-0.0658824
-0.0609276
-0.0609503
-0.0609729
-0.0559955
-0.0560408
-0.051086
-0.0511313
-0.0511991
-0.0512896
-0.0463575
-0.0464028
-0.041448
-0.0364706
-0.0314933
-0.021448
-0.0163801
-0.0013575
0.00359724
0.013552
0.0234841
0.0334163
0.0484163
0.0534389
0.0635068
0.0735746
0.0886425
0.0937104
0.108756
0.118778
0.118801
0.128824
0.128824
0.133869
0.123937
0.124027
0.124118
0.114185
0.104253
0.0892986
0.0843665
0.0744117
0.0694796
0.0545022
0.0445248
0.0395475
0.0295475
0.0195701
0.00961534
0.0046832
-0.000294156
-0.00527154
-0.00524891
-0.0102263
-0.0152263
-0.0202489
-0.0253394
-0.0254525
-0.0256109
-0.0258145
-0.026086
-0.0265611
-0.032353
-0.033439
-0.0397059
-0.0357693
-0.0414932
-0.036629
-0.0412896
-0.0404751
-0.039457
-0.0385068
-0.0376923
-0.041923
-0.0360859
-0.0402941
-0.0346153
-0.0341176
-0.0387782
-0.038552
-0.0383936
-0.0382352
-0.0430769
-0.0429411
-0.042828
-0.0377375
-0.0376696
-0.0426018
-0.0375113
-0.0424208
-0.0423077
-0.0421945
-0.047104
-0.0470135
-0.0469004
-0.0467647
-0.0516289
-0.0464932
-0.0463574
-0.0412217
-0.0411086
-0.0359728
-0.0408371
-0.0357013
-0.0355656
-0.0354298
-0.0302714
-0.0351131
-0.0299547
-0.0297963
-0.0295927
-0.0243891
-0.0291855
-0.0289592
-0.0337556
-0.0335293
-0.0333257
-0.0330995
-0.0278732
-0.0276922
-0.0275339
-0.0273755
-0.0222171
-0.0220814
-0.0169456
-0.0168325
-0.0116968
-0.00158365
0.00852948
0.0136426
0.0187331
0.0238236
0.0189141
0.0190498
0.00916295
0.00425344
-0.000633441
-0.0104977
-0.0103619
-0.0101809
-0.00995472
-0.0147511
-0.0144796
-0.0241855
-0.0288461
-0.0385294
-0.0431674
-0.0427602
-0.0523529
-0.0519231
-0.0565158
-0.056086
-0.0556109
-0.0501357
-0.0496833
-0.0492534
-0.0488009
-0.048371
-0.0529638
-0.0525792
-0.0421946
-0.0417874
-0.0414028
-0.0360182
-0.0306562
-0.0203394
-0.00502269
0.0102941
0.0306108
0.0509502
0.0862895
0.146629
0.241991
0.34233
0.45267
0.508009
0.538371
0.518733
0.464118
0.389502
0.314864
0.270226
0.220588
0.165928
0.106244
0.0515836
0.0169004
-0.00276025
-0.0124209
-0.0221041
-0.02681
-0.0365159
-0.0411992
-0.0459051
-0.0506109
-0.0503168
-0.0550001
-0.0596607
-0.0593666
-0.0590499
-0.0637331
-0.0633937
-0.0630544
-0.0627376
-0.0673983
-0.0670589
-0.0667195
-0.0664028
-0.0660634
-0.0657467
-0.0654299
-0.0700906
-0.0697286
-0.0693892
-0.0690272
-0.0686878
-0.0683485
-0.0680091
-0.0676698
-0.0673077
-0.0719457
-0.0715837
-0.0661991
-0.0708371
-0.0654751
-0.0651584
-0.0598417
-0.0595249
-0.0592534
-0.0489593
-0.0436878
-0.0384163
-0.0381675
-0.0278733
-0.0225792
-0.0123077
-0.00708148
0.00312214
0.018371
0.0236425
0.0389592
0.0493212
0.0597511
0.065181
0.0756561
0.0910859
0.0964706
0.106855
0.112195
0.117557
0.117941
0.123348
0.118756
0.114163
0.109547
0.104909
0.0952488
0.0855656
0.0758823
0.0611538
0.0514253
0.0416742
0.0219231
0.0171719
0.00744343
0.00271492
-0.00703621
-0.01181
-0.0165837
-0.0214027
-0.0262217
-0.0359955
-0.0357692
-0.0356109
-0.0354751
-0.0303846
-0.0353394
-0.0403168
-0.0404073
-0.0456335
-0.0461991
-0.0470588
-0.0531674
-0.0541629
-0.0548416
-0.0599774
-0.0595701
-0.0636425
-0.0624434
-0.0662896
-0.0602715
-0.0593213
-0.0583258
-0.0523077
-0.0513801
-0.0506561
-0.0501357
-0.0497059
-0.0493439
-0.0490045
-0.0437104
-0.0434163
-0.0481448
-0.0478733
-0.0476244
-0.0473982
-0.0471493
-0.0519231
-0.0467195
-0.0465158
-0.0513122
-0.0561086
-0.0558823
-0.0556561
-0.0604299
-0.0602262
-0.0600226
-0.059819
-0.0595928
-0.0543439
-0.049095
-0.0538688
-0.0536652
-0.0534615
-0.0532805
-0.0480995
-0.0479186
-0.0427376
-0.0475566
-0.0473756
-0.0472398
-0.0471267
-0.0470136
-0.0469005
-0.04681
-0.0416968
-0.0416063
-0.0415158
-0.0314253
-0.0313575
-0.026267
-0.0261765
-0.021086
-0.0260181
-0.0259502
-0.0158823
-0.00581448
0.00423077
0.00427601
0.00934389
0.00438914
-0.000542991
-0.0104751
-0.0154299
-0.0253846
-0.0253394
-0.0202489
-0.025181
-0.0250679
-0.0299548
-0.0348416
-0.0396833
-0.0445023
-0.044276
-0.0490498
-0.0488009
-0.0535294
-0.0532806
-0.0530091
-0.0527376
-0.0524661
-0.052172
-0.0518552
-0.0516063
-0.0513801
-0.0511539
-0.0459276
-0.0407014
-0.0404978
-0.0352941
-0.0351131
-0.0349321
-0.0347738
-0.0196154
-0.0094344
0.0057466
0.0259728
0.0461765
0.0863575
0.136538
0.231719
0.3319
0.447081
0.51724
0.547421
0.537624
0.472783
0.387964
0.308122
0.263281
0.218394
0.158529
0.103688
0.0488235
0.0139819
-0.000859741
-0.0107014
-0.025543
-0.0303846
-0.0352263
-0.0350453
-0.0398643
-0.0446833
-0.0495249
-0.0493665
-0.0492082
-0.0540272
-0.0538462
-0.0536652
-0.0534842
-0.0533032
-0.0581448
-0.0629864
-0.0628281
-0.0626697
-0.062534
-0.0624208
-0.0622851
-0.0671267
-0.0719683
-0.0717873
-0.0665837
-0.0664027
-0.0662217
-0.0610181
-0.0608145
-0.0605882
-0.060362
-0.0601131
-0.0598643
-0.0496154
-0.0493665
-0.0491403
-0.043914
-0.0437104
-0.0434842
-0.0382579
-0.0330543
-0.0328733
-0.0276697
-0.0224887
-0.0173077
-0.0121267
-0.00696834
0.00312215
0.00819003
0.0183032
0.0284615
0.0386651
0.0488235
0.0589593
0.0690724
0.0791629
0.0942308
0.099276
0.109321
0.114389
0.12448
0.12457
0.129683
0.134774
0.124842
0.124909
0.109977
0.105068
0.0951584
0.0852715
0.0803846
0.0654977
0.0556335
0.0407692
0.025905
0.0110407
0.00617646
0.0063122
-0.00355205
-0.0084163
-0.0182579
-0.0180543
-0.0228507
-0.0226244
-0.0274208
-0.0322172
-0.0320136
-0.0367647
-0.0364706
-0.0411539
-0.0407692
-0.040362
-0.039819
-0.0441629
-0.0432127
-0.0419683
-0.0404977
-0.0441403
-0.0481674
-0.0426697
-0.0477828
-0.0483032
-0.049095
-0.0447964
-0.0452941
-0.0507692
-0.046267
-0.0467647
-0.0471493
-0.0473303
-0.0473529
-0.0473077
-0.0471946
-0.0520362
-0.0468326
-0.0466063
-0.0463575
-0.0461312
-0.0458597
-0.0505882
-0.0503168
-0.0550453
-0.0497511
-0.049457
-0.0491629
-0.0538914
-0.0536425
-0.0533937
-0.0531222
-0.0478507
-0.0525792
-0.0573077
-0.0570588
-0.0568326
-0.0565837
-0.0563122
-0.0560634
-0.0607919
-0.0604751
-0.0601584
-0.0598416
-0.0595249
-0.0642081
-0.0638914
-0.0635068
-0.0580996
-0.0576923
-0.0522398
-0.05681
-0.0513801
-0.0459502
-0.040543
-0.0351584
-0.0297511
-0.0243439
-0.0239367
-0.0135068
-0.00307692
0.00237556
0.00282805
0.00330317
0.00377828
0.0142534
0.0247511
0.0252715
0.0257918
0.0213122
0.0218552
0.0123982
0.00791855
0.00843891
0.00395927
-0.000565611
-0.000113121
0.000339368
-0.00427601
-0.00891403
-0.0135973
-0.0183032
-0.0230317
-0.0277828
-0.0275339
-0.0323077
-0.0321041
-0.0319231
-0.0317647
-0.031629
-0.031448
-0.0312217
-0.0309955
-0.0307692
-0.035543
-0.0352941
-0.0350226
-0.0297285
-0.0294344
-0.0291403
-0.0238235
-0.0235294
-0.0132353
-0.00794117
0.00735295
0.0176697
0.0429864
0.0732806
0.108597
0.173937
0.269276
0.384615
0.479955
0.550317
0.555656
0.536018
0.47138
0.381765
0.317172
0.267557
0.212964
0.153371
0.0937783
0.0491855
0.0195928
2.26256e-05
-0.0145701
-0.0241855
-0.0337783
-0.043371
-0.0429638
-0.0525566
-0.0521267
-0.0567421
-0.0563575
-0.0609955
-0.0606109
-0.0602036
-0.0597964
-0.0593891
-0.0589819
-0.0635747
-0.0631674
-0.0627376
-0.0623077
-0.0619005
-0.0614932
-0.0661086
-0.065724
-0.0603167
-0.0648869
-0.0694796
-0.0690724
-0.0686652
-0.0682805
-0.0678733
-0.0674887
-0.0721267
-0.0767647
-0.0764027
-0.0810181
-0.0756335
-0.0752489
-0.0698416
-0.0594117
-0.0539593
-0.0534842
-0.0479864
-0.0424887
-0.0419909
-0.0364479
-0.0308597
-0.0252941
-0.0197511
-0.00923076
0.00128961
0.00685522
0.0124661
0.0230769
0.0336652
0.0441855
0.049638
0.0650226
0.0703846
0.0807692
0.0911539
0.101561
0.106991
0.112443
0.117873
0.113303
0.113733
0.109163
0.10457
0.1
0.0904299
0.0858824
0.0763575
0.0668552
0.0573529
0.0428733
0.0334163
0.0239593
0.0195023
0.0100453
0.00554299
-0.0039819
-0.00848416
-0.0129638
-0.0174661
-0.0219683
-0.0214706
-0.0209729
-0.0254525
-0.0249321
-0.0293665
-0.0287783
-0.0281222
-0.0323982
-0.0365837
-0.0355656
-0.0392308
-0.0425792
-0.0407918
-0.039095
-0.0428507
-0.0421267
-0.0418778
-0.047104
-0.047466
-0.0477149
-0.0478733
-0.0480316
-0.0482805
-0.0484615
-0.0535067
-0.0484162
-0.04819
-0.0478959
-0.0475791
-0.0472624
-0.0468778
-0.0514932
-0.0460859
-0.0456787
-0.0452714
-0.0448416
-0.0494117
-0.0489819
-0.0535294
-0.0530543
-0.0525791
-0.0521267
-0.0516742
-0.0562217
-0.0557918
-0.055362
-0.0499321
-0.0495249
-0.0541176
-0.0586878
-0.0582579
-0.0578507
-0.0574434
-0.0520362
-0.0566289
-0.0561991
-0.0507466
-0.0503393
-0.0449547
-0.0495927
-0.0442534
-0.0488914
-0.0485068
-0.0481222
-0.0476923
-0.0472624
-0.0468552
-0.0414253
-0.0409955
-0.0405882
-0.0402036
-0.0297964
-0.0243891
-0.0189819
-0.0185747
-0.0181448
-0.0177376
-0.0173756
-0.011991
-0.00158372
0.0138235
0.0192308
0.0196606
0.0150679
0.0104751
0.00088235
-0.00371041
-0.00830318
-0.00791856
-0.0125339
-0.0172172
-0.0219231
-0.0216742
-0.0314253
-0.0311538
-0.040905
-0.0456335
-0.050362
-0.0500905
-0.0548416
-0.0595928
-0.0593439
-0.059095
-0.0588009
-0.0535068
-0.0482127
-0.0529412
-0.0526697
-0.0473756
-0.0470814
-0.0417873
-0.0414932
-0.0361991
-0.030905
-0.0256109
-0.0203168
-0.0100227
0.00529408
0.0205882
0.0408597
0.0661538
0.111403
0.176629
0.266878
0.372149
0.467398
0.50767
0.522941
0.488167
0.413394
0.338643
0.278891
0.239118
0.179344
0.11957
0.0697737
0.025
0.000226185
-0.014525
-0.0242761
-0.0390272
-0.048801
-0.0535973
-0.0583711
-0.0581222
-0.0678734
-0.0676019
-0.067353
-0.0721268
-0.0769005
-0.0766743
-0.076448
-0.0762444
-0.0760182
-0.0707919
-0.0705883
-0.0703847
-0.0701584
-0.0699096
-0.069706
-0.0745249
-0.074344
-0.074163
-0.0740046
-0.0738236
-0.0786652
-0.0835068
-0.0783258
-0.0781675
-0.0729865
-0.0728281
-0.0726471
-0.0774661
-0.0722851
-0.0721267
-0.066991
-0.0618552
-0.0617195
-0.0565611
-0.0514028
-0.041267
-0.0411765
-0.0360408
-0.0309276
-0.0208145
-0.0156788
-0.00554303
0.00959272
0.0147058
0.019819
0.0299321
0.0350905
0.0452714
0.0554525
0.0656561
0.0758371
0.0859954
0.0911538
0.101335
0.106516
0.116674
0.12181
0.126946
0.122081
0.112172
0.107308
0.0974208
0.0875339
0.0776471
0.0727602
0.0578507
0.0479186
0.0379864
0.0230769
0.0131448
0.00823531
0.00334844
-0.00153846
-0.0114479
-0.0163348
-0.0212217
-0.0210859
-0.0209728
-0.0258597
-0.0257239
-0.0305882
-0.0304525
-0.0353167
-0.0351357
-0.0349547
-0.0397737
-0.0345927
-0.0343891
-0.0391402
-0.0438914
-0.0436425
-0.0483484
-0.0481674
-0.0429864
-0.0428054
-0.0476697
-0.0474661
-0.0423077
-0.0421267
-0.0420136
-0.0419005
-0.0417647
-0.0416516
-0.0465611
-0.0464706
-0.0464027
-0.0413348
-0.0412896
-0.0412443
-0.0461991
-0.0461312
-0.0511086
-0.0510633
-0.0459954
-0.0509502
-0.0509275
-0.0509049
-0.0458823
-0.0508597
-0.0558144
-0.0507465
-0.0506787
-0.0506108
-0.0555429
-0.050475
-0.0504072
-0.0503619
-0.050294
-0.0452262
-0.0451809
-0.0451357
-0.045113
-0.0450904
-0.0400452
-0.0400225
-0.0399547
-0.0398868
-0.0448189
-0.0447737
-0.0397284
-0.0346832
-0.0346153
-0.0345248
-0.0344343
-0.0343212
-0.0291855
-0.0190271
-0.0188913
-0.00875561
-0.00359723
-0.00841624
-0.00823523
-0.00803162
-0.00280537
0.00242087
0.0126245
0.0178281
0.0180091
0.0182127
0.00841632
0.00861993
0.00382356
-0.000972822
-0.0107692
-0.0105656
-0.010362
-0.0101357
-0.0148868
-0.0145927
-0.0143212
-0.024095
-0.0288687
-0.0336651
-0.0384615
-0.0382353
-0.038009
-0.0378054
-0.0375792
-0.0423755
-0.0371946
-0.0370135
-0.0368326
-0.0416289
-0.0364253
-0.0362217
-0.0359955
-0.0357919
-0.030543
-0.0252715
-0.0250226
-0.0197512
-0.0144797
-0.00418554
0.00106332
0.0163348
0.0366289
0.0619004
0.102217
0.157534
0.247873
0.35319
0.438507
0.503801
0.519095
0.484412
0.419728
0.330045
0.280385
0.235747
0.191109
0.131493
0.0768778
0.0372398
0.0176018
0.00291853
-0.00174209
-0.0164254
-0.0210408
-0.0256562
-0.0302942
-0.0349322
-0.0345928
-0.0392535
-0.0439141
-0.0435521
-0.0431901
-0.0428282
-0.0424661
-0.0421042
-0.0467422
-0.0464028
-0.0460408
-0.0456562
-0.0452489
-0.0448643
-0.0444797
-0.0440724
-0.0486878
-0.0482579
-0.0428281
-0.0423756
-0.0419457
-0.0465159
-0.046086
-0.0406335
-0.0451584
-0.0447059
-0.0442308
-0.0437783
-0.0383258
-0.0378507
-0.0373756
-0.0368779
-0.0363802
-0.0358824
-0.0354073
-0.0299096
-0.0243892
-0.0189141
-0.0184163
-0.0129186
-0.00744349
-0.00196835
0.00850676
0.0139819
0.024457
0.0349321
0.0454072
0.0508597
0.0613348
0.0718099
0.0823076
0.0928054
0.0982805
0.108756
0.114231
0.119728
0.120249
0.115769
0.116312
0.116878
0.112421
0.107964
0.0984842
0.0840045
0.0795475
0.0701131
0.0556561
0.0511991
0.0416968
0.0322398
0.0277602
0.0183031
0.0138235
0.00432123
-0.00518103
-0.00468329
-0.0141855
-0.0186878
-0.0181675
-0.0226697
-0.027172
-0.0316969
-0.0262444
-0.0308145
-0.0354073
-0.0350227
-0.0397059
-0.0395023
-0.0494571
-0.0494797
-0.0494344
-0.0492308
-0.0488009
-0.0481674
-0.0473982
-0.0515611
-0.0558371
-0.0551584
-0.054457
-0.0587104
-0.0579638
-0.0522625
-0.051629
-0.0459955
-0.0503846
-0.0447737
-0.0542082
-0.0536199
-0.0480317
-0.0524661
-0.0468778
-0.0512896
-0.050724
-0.0501584
-0.0545928
-0.0540045
-0.0534389
-0.0478507
-0.0522624
-0.0516742
-0.0510859
-0.0554977
-0.0599095
-0.0593212
-0.0537104
-0.0581221
-0.0525339
-0.0619683
-0.0564027
-0.0608371
-0.0552262
-0.0546153
-0.0540497
-0.0534615
-0.0578733
-0.0523077
-0.0567421
-0.0561764
-0.0556108
-0.0550226
-0.0494344
-0.0538687
-0.0533031
-0.0527601
-0.0471945
-0.0466515
-0.0410859
-0.0304977
-0.0249321
-0.019389
-0.018846
-0.0183031
-0.0178053
-0.012285
-0.00678724
0.00371049
0.00923085
0.0147286
0.0102037
0.000678822
-0.00384605
-0.00837094
-0.00787319
-0.0173981
-0.016923
-0.0214252
-0.0259501
-0.030475
-0.0350225
-0.0395248
-0.0440271
-0.0485293
-0.0480316
-0.0525338
-0.0570587
-0.061561
-0.0560632
-0.0555881
-0.0500904
-0.0546153
-0.0491402
-0.0536425
-0.0531448
-0.0426244
-0.0421493
-0.0416742
-0.0411991
-0.0357466
-0.0352941
-0.0298416
-0.0243665
-0.013914
0.00153849
0.0120136
0.0324661
0.0579186
0.0983711
0.163801
0.254231
0.359638
0.450023
0.50043
0.515815
0.486222
0.421606
0.342036
0.277443
0.237805
0.18819
0.133575
0.0739367
0.0292987
0.00470591
-0.0148868
-0.0244796
-0.029095
-0.0336877
-0.0433031
-0.0479411
-0.0475339
-0.0571493
-0.056742
-0.0563574
-0.0609728
-0.0605882
-0.0652261
-0.0598415
-0.0644795
-0.0640723
-0.0686877
-0.0683483
-0.0679863
-0.067647
-0.0673302
-0.0720361
-0.0666741
-0.0663574
-0.0659954
-0.0657013
-0.0603845
-0.0700904
-0.0697963
-0.0644796
-0.0691854
-0.0638687
-0.0635972
-0.0633031
-0.0630089
-0.0627148
-0.0624207
-0.0621492
-0.0568324
-0.056561
-0.0512895
-0.056018
-0.0507465
-0.0504976
-0.0502035
-0.0398868
-0.03457
-0.0292306
-0.0239365
-0.00866506
-0.00341618
0.00685531
0.0171721
0.0225114
0.0378508
0.0481676
0.0584391
0.0686427
0.0788237
0.0840047
0.0942083
0.104389
0.10457
0.114774
0.114978
0.115159
0.105317
0.105475
0.100634
0.095792
0.0859956
0.0761766
0.0663803
0.0565386
0.0467649
0.0369911
0.03224
0.0224662
0.0126925
0.00291869
-0.00687772
-0.00662884
-0.01638
-0.0161311
-0.0208596
-0.0256107
-0.0253392
-0.0350678
-0.0347737
-0.0394343
-0.039027
-0.0386198
-0.0431673
-0.0426469
-0.0420361
-0.041199
-0.0450903
-0.0386424
-0.0420587
-0.035656
-0.0396605
-0.0342759
-0.0445021
-0.0452035
-0.0411537
-0.0470134
-0.0477374
-0.0483709
-0.0490948
-0.0548189
-0.0553845
-0.0507691
-0.0509501
-0.0509953
-0.0559728
-0.0509501
-0.0558823
-0.0557918
-0.0557013
-0.0556108
-0.055475
-0.0553619
-0.0552262
-0.060113
-0.0549773
-0.0598642
-0.0597285
-0.0495927
-0.0544796
-0.0543439
-0.0542081
-0.0490723
-0.0589592
-0.0538235
-0.0586878
-0.053552
-0.0533936
-0.0532352
-0.0480994
-0.0529864
-0.0478279
-0.0527149
-0.0475791
-0.0474207
-0.052285
-0.0521493
-0.0520135
-0.0468778
-0.0517873
-0.0466515
-0.0465158
-0.04638
-0.0412669
-0.0361764
-0.0410859
-0.0360181
-0.0309049
-0.0307692
-0.0206109
-0.0154525
-0.0102715
-0.0100905
-0.0149321
-0.00972843
-0.00454745
0.0056788
0.010905
0.0161313
0.0163801
0.0116064
0.00680998
0.00199094
0.00219461
-0.00764704
-0.0124886
-0.0123755
-0.0123076
-0.017285
-0.022285
-0.027285
-0.0373076
-0.0373528
-0.0474207
-0.0425112
-0.0526243
-0.0527375
-0.0528506
-0.0529411
-0.0480316
-0.0531221
-0.0482126
-0.048303
-0.0483483
-0.0484162
-0.0534614
-0.0435067
-0.0485519
-0.0435745
-0.0435971
-0.0435971
-0.0436198
-0.0336198
-0.0235972
-0.0136198
0.00638023
0.0213802
0.0514028
0.0813802
0.141403
0.231425
0.336471
0.441516
0.511561
0.536584
0.526606
0.466674
0.386697
0.31172
0.271765
0.226788
0.166787
0.106765
0.0517875
0.0167875
-0.00318992
-0.0131899
-0.0281673
-0.0331447
-0.0431446
-0.043122
-0.053122
-0.0530994
-0.0580768
-0.0580541
-0.0580542
-0.0580316
-0.0630316
-0.0680542
-0.0630089
-0.0680089
-0.0679863
-0.0679637
-0.0679411
-0.0679411
-0.0679411
-0.0679411
-0.0729411
-0.0679411
-0.0729411
-0.0679184
-0.0729185
-0.0679185
-0.0679411
-0.0729412
-0.0679185
-0.0679412
-0.0679411
-0.0679637
-0.0579638
-0.063009
-0.0630543
-0.0580769
-0.0581221
-0.0481221
-0.0481221
-0.0431674
-0.0432126
-0.0432578
-0.0433257
-0.038371
-0.028371
-0.023371
-0.008371
-0.00841624
0.0015159
0.00640279
0.0163576
0.0263349
0.0313349
0.0463576
0.0563802
0.0714028
0.0764028
0.086448
0.0964706
0.106471
0.116493
0.116493
0.121516
0.116538
0.116561
0.111539
0.106539
0.101516
0.0964933
0.086448
0.0764027
0.0663801
0.0563575
0.0463802
0.0363801
0.0263802
0.0163802
0.0113349
0.00631228
0.00122178
-0.00382349
-0.00891396
-0.0189819
-0.0240724
-0.0242307
-0.0294117
-0.0346153
-0.0298415
-0.0351131
-0.0353845
-0.0407692
-0.0362669
-0.0419908
-0.0479185
-0.048914
-0.0547737
-0.0503166
-0.0554751
-0.0552714
-0.0597511
-0.0541855
-0.0538008
-0.0585293
-0.05319
-0.0527601
-0.0473755
-0.052104
-0.0470135
-0.0520588
-0.0521493
-0.0522398
-0.0573529
-0.0524434
-0.0575792
-0.0526923
-0.0578507
-0.058009
-0.0581675
-0.0583484
-0.0585068
-0.0586878
-0.0538914
-0.0591177
-0.0543213
-0.0595702
-0.0597964
-0.0550227
-0.0602489
-0.0554751
-0.0607014
-0.0559276
-0.0562218
-0.0564706
-0.0567421
-0.056991
-0.0522624
-0.0525339
-0.0527828
-0.0580769
-0.0533258
-0.0585973
-0.0538688
-0.0541403
-0.0493892
-0.0446607
-0.0499548
-0.0452263
-0.0505204
-0.0457693
-0.0410408
-0.0363123
-0.0315838
-0.0269231
-0.0222625
-0.0276245
-0.0229412
-0.0232806
-0.0185973
-0.00895935
0.00567868
0.000316679
-4.52995e-05
-0.000407308
-0.00579193
-0.0111539
-0.0165159
-0.0168553
-0.0272172
-0.0325566
-0.032896
-0.0382127
-0.0334842
-0.0437557
-0.048982
-0.0542308
-0.0544571
-0.0596607
-0.0648417
-0.06
-0.0651358
-0.0652489
-0.0703621
-0.0704752
-0.0756109
-0.075724
-0.0708598
-0.0710182
-0.0611765
-0.0663349
-0.0564933
-0.0566517
-0.0518327
-0.0520137
-0.0472399
-0.0324661
-0.0276698
-0.0128734
0.00190037
0.0216968
0.0414705
0.0812442
0.136018
0.215792
0.320565
0.425317
0.500068
0.534796
0.51957
0.464321
0.38405
0.313756
0.273461
0.22319
0.167873
0.102602
0.0523302
0.0170814
0.00180981
-0.00346166
-0.0137558
-0.0240499
-0.0343214
-0.0446155
-0.044887
-0.0501811
-0.0504752
-0.050792
-0.0561087
-0.0514255
-0.0567422
-0.0520589
-0.0523757
-0.0526924
-0.0530317
-0.0483485
-0.0536879
-0.0540272
-0.0543214
-0.0546381
-0.0549323
-0.055249
-0.0455657
-0.0508825
-0.0512218
-0.0515612
-0.0519232
-0.0472399
-0.0525566
-0.047896
-0.053258
-0.0485973
-0.0489593
-0.0493213
-0.0446833
-0.0450453
-0.0403847
-0.0407693
-0.0361539
-0.0366064
-0.0320363
-0.0274661
-0.027896
-0.0133259
-0.0137331
-0.0041177
-0.00459281
0.00493211
0.0144117
0.023914
0.0334615
0.0380995
0.0477375
0.0573981
0.0670588
0.0767194
0.0863574
0.0959954
0.105633
0.110249
0.119864
0.124502
0.124118
0.123778
0.118416
0.118009
0.112602
0.102195
0.0917873
0.0813348
0.0709502
0.0555203
0.0451131
0.0346606
0.0292081
0.013733
0.00823531
0.00273757
-0.00778279
-0.0132353
-0.018733
-0.0242081
-0.0247059
-0.0302488
-0.0308144
-0.0364479
-0.0420814
-0.0478053
-0.0485972
-0.04957
-0.0507917
-0.0524207
-0.0593664
-0.0564705
-0.0634162
-0.0648868
-0.0656787
-0.0657918
-0.0704072
-0.0698189
-0.0642534
-0.0637556
-0.0583257
-0.062828
-0.0573755
-0.0620588
-0.0619909
-0.062104
-0.0623303
-0.0575791
-0.0578506
-0.0581447
-0.0634615
-0.0638009
-0.0642081
-0.0645928
-0.06
-0.0604072
-0.0607918
-0.0612217
-0.061629
-0.0620814
-0.0624887
-0.0578959
-0.0583032
-0.0587104
-0.0590951
-0.0594797
-0.0648869
-0.0652941
-0.065724
-0.0661539
-0.0615837
-0.061991
-0.0574208
-0.0578733
-0.0533032
-0.0587557
-0.0591856
-0.0546607
-0.0551132
-0.0555883
-0.0560634
-0.0515159
-0.051991
-0.0474661
-0.0479639
-0.043439
-0.0389367
-0.0294344
-0.0299548
-0.0254752
-0.0209956
-0.0165612
-0.0170815
-0.0176698
-0.00325803
0.00110851
0.0104977
0.00988679
0.00925328
0.00361982
-0.00203627
-0.0076924
-0.00834852
-0.0140046
-0.0146607
-0.0202942
-0.020905
-0.0264933
-0.0320589
-0.0375793
-0.0380544
-0.0435295
-0.0489594
-0.044344
-0.0496834
-0.0499775
-0.0552716
-0.0505657
-0.0608598
-0.0561539
-0.0614707
-0.05681
-0.0571494
-0.0574888
-0.0528734
-0.048258
-0.0436426
-0.0490724
-0.0445023
-0.0399548
-0.0354073
-0.0208371
-0.0162896
0.00325796
0.0177828
0.0423077
0.0718326
0.126335
0.20086
0.310385
0.41991
0.509389
0.553914
0.553416
0.507919
0.432421
0.356923
0.296403
0.245882
0.180385
0.124887
0.0694117
0.028914
0.00341624
-0.00708146
-0.0175792
-0.028077
-0.0385973
-0.0390724
-0.0445702
-0.050068
-0.0555883
-0.0511087
-0.0566291
-0.0571495
-0.0576472
-0.0631449
-0.0586427
-0.059163
-0.0546834
-0.0602037
-0.0607241
-0.0611992
-0.0616744
-0.0621495
-0.0676472
-0.0631449
-0.0636653
-0.0591857
-0.059706
-0.0602037
-0.0556788
-0.0561766
-0.0516516
-0.0571267
-0.0525792
-0.053077
-0.0485747
-0.0490498
-0.0495475
-0.0450679
-0.0505882
-0.0460859
-0.0416289
-0.0371267
-0.037647
-0.0331448
-0.0286199
-0.0240723
-0.0195249
-0.0149774
-0.00542983
-0.000882328
0.0136426
0.0231448
0.0326923
0.0372398
0.0468326
0.0614254
0.0709955
0.0804977
0.0899321
0.0993213
0.10871
0.1181
0.122511
0.1269
0.131335
0.130769
0.130204
0.124615
0.124027
0.113439
0.0978281
0.0872625
0.0716968
0.0611538
0.0505882
0.0400452
0.0294796
0.0189366
0.013371
0.00282803
-0.00271493
-0.00828053
-0.0138235
-0.0193439
-0.0198416
-0.0253846
-0.0259049
-0.0314027
-0.0369004
-0.0373303
-0.0377601
-0.0381221
-0.0434388
-0.0486425
-0.0437556
-0.0486877
-0.0483484
-0.0476017
-0.0414705
-0.0450905
-0.0437556
-0.042828
-0.0425565
-0.0430995
-0.0443213
-0.0459502
-0.0477375
-0.0495928
-0.0513575
-0.0530317
-0.0496832
-0.0562217
-0.0575565
-0.0586651
-0.0545701
-0.0603846
-0.0560859
-0.0567646
-0.0574434
-0.0580995
-0.0586877
-0.0592759
-0.0598642
-0.0604298
-0.061018
-0.0565836
-0.0571266
-0.057647
-0.05819
-0.063733
-0.064276
-0.0648189
-0.0603619
-0.0609276
-0.0614705
-0.0620135
-0.0625339
-0.0680543
-0.0685973
-0.0641176
-0.064638
-0.0651357
-0.0656561
-0.0611765
-0.0616968
-0.0622172
-0.0577375
-0.0532579
-0.0537556
-0.0542986
-0.044819
-0.0503167
-0.0457918
-0.0462896
-0.0467873
-0.0422624
-0.0427376
-0.03819
-0.0336199
-0.0290271
-0.0244344
-0.0197964
-0.0151358
-0.0104751
-0.0108145
-0.0111539
-0.0064706
0.00321267
0.0129185
0.0176471
0.0173982
0.0121493
0.00687781
0.0065837
-0.00373305
-0.00907242
-0.0144344
-0.014819
-0.0152715
-0.0207466
-0.0212896
-0.0269231
-0.0326018
-0.0383711
-0.0391403
-0.0399095
-0.0456787
-0.0464706
-0.0472625
-0.0480543
-0.0488462
-0.0445928
-0.0453394
-0.0460634
-0.0467647
-0.0424435
-0.0431222
-0.0438009
-0.0394797
-0.0401358
-0.0357693
-0.0313801
-0.0269684
-0.0275566
-0.0181674
-0.00373305
0.0106561
0.0300452
0.0544344
0.0888688
0.143281
0.232692
0.332081
0.436471
0.51086
0.540249
0.524615
0.474005
0.398371
0.322738
0.277104
0.226493
0.17086
0.110226
0.0545927
0.0240045
-0.00162899
-0.0122172
-0.0178281
-0.028439
-0.0390724
-0.0447059
-0.0453394
-0.0509729
-0.0516064
-0.0522399
-0.0578507
-0.0584616
-0.0590724
-0.0596833
-0.0603168
-0.0609276
-0.0615611
-0.0621494
-0.0627602
-0.0633711
-0.0639819
-0.0645928
-0.0602263
-0.0608598
-0.0614706
-0.0621041
-0.0627376
-0.0583937
-0.0590272
-0.0546606
-0.0552941
-0.0559276
-0.0565385
-0.0521493
-0.0527602
-0.0533258
-0.0539367
-0.0495249
-0.0451131
-0.045724
-0.0413122
-0.0419004
-0.0424661
-0.0380317
-0.0335747
-0.029095
-0.024638
-0.0151584
-0.0106787
-0.00122171
0.00821268
0.0176697
0.022172
0.0266968
0.0311765
0.0406109
0.0550226
0.0644118
0.0738235
0.0831901
0.0875566
0.0919005
0.101267
0.105656
0.110045
0.114434
0.113824
0.11819
0.107534
0.0969231
0.0863122
0.080724
0.0701584
0.0645928
0.0540271
0.0384615
0.0329186
0.0223529
0.0117873
0.00622172
0.000656109
9.04966e-05
-0.00547511
-0.0160181
-0.0215837
-0.0271267
-0.0326697
-0.03819
-0.0387104
-0.0442308
-0.0397059
-0.0401584
-0.0405656
-0.0459502
-0.046267
-0.0464706
-0.041448
-0.0412896
-0.0411312
-0.0411086
-0.0364253
-0.0420588
-0.0379638
-0.0390498
-0.0401584
-0.0411086
-0.0420362
-0.0430317
-0.0440271
-0.0499774
-0.0458145
-0.0515611
-0.0472398
-0.0478733
-0.0435294
-0.0441855
-0.0448416
-0.0454525
-0.046086
-0.0466968
-0.0472851
-0.0479186
-0.0485068
-0.049095
-0.0496833
-0.0552715
-0.0508597
-0.056448
-0.0520588
-0.0526697
-0.0532579
-0.0538462
-0.0544344
-0.055
-0.0555656
-0.0511312
-0.0516742
-0.0472398
-0.0477828
-0.0483258
-0.0488462
-0.0443892
-0.0449548
-0.0455656
-0.0461312
-0.0466968
-0.0422851
-0.0428959
-0.0434842
-0.0390498
-0.039638
-0.0402263
-0.0408371
-0.036448
-0.0370588
-0.0376471
-0.0282353
-0.0288235
-0.0243665
-0.0199321
-0.0154977
-0.0160407
-0.0165837
-0.0121493
0.00228506
0.0116968
0.011086
0.010543
0.00497736
0.00441175
-0.00115385
-0.00171946
-0.0073077
-0.0129186
-0.0184842
-0.0190724
-0.0246154
-0.0251584
-0.0256561
-0.0361765
-0.0367421
-0.0473077
-0.0528507
-0.0533937
-0.053914
-0.0544344
-0.0549774
-0.0504978
-0.0510181
-0.0515611
-0.0470588
-0.0475566
-0.0480317
-0.0485068
-0.0439819
-0.0444797
-0.0399774
-0.0404751
-0.0409729
-0.0314706
-0.026991
-0.0174661
-0.00794118
0.0115837
0.0311086
0.0606335
0.100158
0.169706
0.274253
0.378801
0.483371
0.537941
0.547489
0.512059
0.441629
0.361199
0.305792
0.265362
0.204932
0.139502
0.0840497
0.0386199
0.01319
-0.00221723
-0.00762447
-0.0180543
-0.0234616
-0.0338688
-0.034276
-0.0396833
-0.0450679
-0.0404525
-0.0508371
-0.0512218
-0.0516064
-0.051991
-0.0523982
-0.0527602
-0.0481448
-0.0485068
-0.0538462
-0.0542082
-0.0545475
-0.0548869
-0.0552262
-0.0555656
-0.0608823
-0.0561991
-0.0564932
-0.0567647
-0.0570588
-0.0523529
-0.047647
-0.0379411
-0.0432353
-0.043552
-0.0388461
-0.0341402
-0.0344343
-0.0347285
-0.03
-0.0252941
-0.0206108
-0.0209276
-0.0162443
-0.0165837
-0.0119683
-0.00730764
-0.00766964
0.00199099
0.0116742
0.0163575
0.0260181
0.0356335
0.0402489
0.0499095
0.0646606
0.0644118
0.0791629
0.088914
0.0987104
0.103507
0.113303
0.1281
0.122873
0.132647
0.127421
0.127195
0.122014
0.116855
0.116652
0.106448
0.0961991
0.0859276
0.0756561
0.0653846
0.0551131
0.0448642
0.034638
0.0294118
0.0141629
0.00893664
0.0037104
-0.00151584
-0.0117647
-0.011991
-0.0172172
-0.0224661
-0.027715
-0.0280317
-0.0283484
-0.0337104
-0.0341177
-0.0345702
-0.0400905
-0.0407693
-0.0417421
-0.0429638
-0.0443892
-0.0456335
-0.0515612
-0.0469231
-0.04681
-0.0463123
-0.0456335
-0.0450906
-0.0496607
-0.0442308
-0.0436878
-0.0431901
-0.0428507
-0.0426697
-0.0476471
-0.0476924
-0.0477829
-0.0378507
-0.0429412
-0.0430317
-0.0431222
-0.0431901
-0.0482806
-0.0483937
-0.0484616
-0.0485973
-0.0487331
-0.0488688
-0.0490046
-0.0541403
-0.0542761
-0.0543892
-0.0595023
-0.0546381
-0.0597964
-0.0599548
-0.0600906
-0.0602263
-0.0603621
-0.0605204
-0.0606788
-0.0658372
-0.0609955
-0.0611539
-0.056267
-0.0563801
-0.056448
-0.0515385
-0.0566516
-0.0517421
-0.05181
-0.0518779
-0.0519684
-0.0470362
-0.0420815
-0.0421041
-0.0371494
-0.0322172
-0.0223077
-0.0223982
-0.0175113
-0.0176471
-0.0177602
-0.0128507
-0.00798643
0.00190045
0.0067647
0.0116289
0.00147059
0.00135746
0.00119909
-0.00393666
-0.0140724
-0.0192082
-0.0193213
-0.0244344
-0.0244796
-0.0295249
-0.0295023
-0.0345023
-0.0445023
-0.0494796
-0.0494344
-0.0493439
-0.0492534
-0.0491629
-0.0490724
-0.0489819
-0.0488688
-0.0537783
-0.0536878
-0.0535973
-0.0485068
-0.0484615
-0.0484389
-0.048371
-0.0433258
-0.0432805
-0.0432353
-0.03319
-0.03319
-0.01819
-0.00819005
0.00680995
0.02681
0.0468099
0.0818099
0.136787
0.231765
0.326742
0.441719
0.506697
0.541674
0.521629
0.471606
0.396584
0.321561
0.281538
0.226516
0.171493
0.106493
0.0564932
0.0264932
0.00649319
-0.00350681
-0.0135294
-0.0185521
-0.0285521
-0.0335068
-0.0384842
-0.0484616
-0.0534163
-0.0533937
-0.0533937
-0.0583937
-0.0533711
-0.0533258
-0.053258
-0.0531901
-0.0531448
-0.0531222
-0.0530996
-0.0530996
-0.0531222
-0.0480996
-0.048077
-0.053077
-0.0530543
-0.0530317
-0.0530317
-0.0480317
-0.0480317
-0.048077
-0.0480996
-0.0531222
-0.0481448
-0.0481675
-0.0481901
-0.0431901
-0.0432353
-0.043258
-0.0432806
-0.0383032
-0.0383032
-0.0383032
-0.0382806
-0.033258
-0.0232353
-0.0182127
-0.0131675
-0.00312222
0.00192303
0.00694566
0.0119683
0.0270135
0.0320588
0.0471267
0.0521719
0.0672172
0.0721945
0.0821719
0.0921945
0.102195
0.112172
0.112149
0.122149
0.122149
0.117172
0.112172
0.112172
0.112172
0.102127
0.0920814
0.0820588
0.0720814
0.0621267
0.0521719
0.0422172
0.0272624
0.0223077
0.0123303
0.00235293
-0.00262444
-0.00757919
-0.00753394
-0.0225113
-0.0224887
-0.0324661
-0.0324208
-0.0373982
-0.0323303
-0.0372851
-0.0371719
-0.0370588
-0.0419683
-0.0418326
-0.0416742
-0.0414706
-0.0411764
-0.0406786
-0.0401356
-0.0395927
-0.0392081
-0.039095
-0.0391855
-0.0395022
-0.0399321
-0.040362
-0.0406335
-0.0458823
-0.0461312
-0.0463801
-0.0465611
-0.0466516
-0.0466742
-0.046629
-0.0465837
-0.0515159
-0.051448
-0.0513801
-0.0513122
-0.056267
-0.0512217
-0.0511765
-0.0511312
-0.056086
-0.0610181
-0.0659276
-0.0658371
-0.0607466
-0.0606561
-0.0605656
-0.0554751
-0.055362
-0.0602489
-0.0651132
-0.0599774
-0.0648643
-0.0647512
-0.0596381
-0.059525
-0.0593892
-0.0542535
-0.0541177
-0.053982
-0.0488689
-0.0487557
-0.0486426
-0.0485295
-0.0433938
-0.0432806
-0.0431449
-0.0430091
-0.0478734
-0.0427377
-0.0426245
-0.0425114
-0.0373983
-0.0322399
-0.0270589
-0.0269005
-0.0217195
-0.0165612
-0.0164028
-0.016267
-0.0111087
