ekg
0
0.00166667
-0.00299999
0.005
-0.00222223
-0.00727272
-0.0111538
0.014
0.0355882
0.0442105
0.07
0.115652
0.1596
0.177778
0.200517
0.285161
0.335606
0.356143
0.388108
0.37859
0.335732
0.29186
0.240667
0.22117
0.184388
0.181078
0.139245
0.0135455
-0.126404
-0.206186
-0.191967
-0.15627
-0.199154
-0.220821
-0.207319
-0.252324
-0.29226
-0.289133
-0.270195
-0.256835
-0.233704
-0.255663
-0.247941
-0.232012
-0.223989
-0.175165
-0.155054
-0.155579
-0.181443
-0.242879
-0.300396
-0.251505
-0.170714
-0.104626
-0.0780734
-0.0945496
-0.11146
-0.109304
-0.097906
-0.0766386
-0.0661157
-0.10126
-0.13228
-0.149016
-0.186395
-0.214809
-0.224887
-0.235778
-0.252847
-0.301259
-0.341135
-0.377308
-0.334241
-0.296122
-0.338255
-0.365265
-0.39085
-0.384258
-0.376242
-0.376604
-0.400683
-0.398988
-0.396515
-0.403473
-0.385178
-0.33193
-0.318555
-0.374943
-0.471836
-0.64419
-0.752238
-0.675929
-0.424649
0.0213904
0.802619
1.71393
2.5856
3.18238
3.34467
2.82749
2.57052
-0.0615764
-0.643512
-0.660411
-0.792057
-0.824005
-0.711197
-0.588442
-0.505576
-0.430868
-0.355272
-0.369005
-0.394955
-0.359095
-0.346765
-0.335385
-0.348552
-0.376968
-0.367398
-0.346561
-0.348688
-0.328869
-0.288688
-0.272805
-0.2319
-0.211561
-0.19638
-0.181312
-0.136448
-0.111765
-0.062466
0.00642536
0.0499548
0.0831222
0.0960408
0.138801
0.216539
0.268937
0.290588
0.346652
0.437376
0.478009
0.513552
0.558756
0.568824
0.568891
0.578416
0.597398
0.61138
0.610385
0.60414
0.54276
0.476222
0.384729
0.313213
0.261448
0.21957
0.152398
0.0698642
0.0171267
-0.0104978
-0.0429412
-0.0903168
-0.122692
-0.155068
-0.182443
-0.210068
-0.227851
-0.230634
-0.248326
-0.225724
-0.23776
-0.279638
-0.301335
-0.277919
-0.274412
-0.235747
-0.2219
-0.223009
-0.199163
-0.135272
-0.111086
-0.116833
-0.117285
-0.112398
-0.0977376
-0.0933484
-0.113869
-0.118982
-0.124072
-0.129231
-0.15457
-0.174887
-0.175317
-0.18586
-0.206335
-0.26181
-0.302421
-0.283213
-0.314547
-0.331742
-0.324502
-0.316946
-0.338281
-0.352534
-0.338303
-0.355023
-0.362692
-0.347557
-0.321697
-0.278122
-0.250747
-0.270317
-0.272534
-0.254774
-0.262534
-0.310023
-0.417195
-0.578869
-0.644932
-0.570385
-0.31043
0.229457
0.97914
1.81385
2.06853
3.11848
3.21867
2.62378
1.29878
-0.216109
-0.600882
-0.630747
-0.745566
-0.739932
-0.613213
-0.520747
-0.46862
-0.427715
-0.383914
-0.335882
-0.319095
-0.315588
-0.319208
-0.313054
-0.339502
-0.355091
-0.328484
-0.289729
-0.300543
-0.30552
-0.270091
-0.214977
-0.185181
-0.180588
-0.171267
-0.102059
-0.0277828
-0.0284615
-0.0191629
0.0451358
0.0943665
0.103235
0.0966742
0.114615
0.17224
0.234638
0.311765
0.403484
0.469842
0.450905
0.406742
0.432443
0.497873
0.547919
0.56267
0.59224
0.601516
0.59552
0.579276
0.527783
0.451177
0.374344
0.297127
0.249638
0.187081
0.119276
0.0663575
0.0433711
0.035362
-0.0225339
-0.125294
-0.173145
-0.191041
-0.223914
-0.211719
-0.174253
-0.216471
-0.298484
-0.295272
-0.281855
-0.268235
-0.274412
-0.250475
-0.236267
-0.236742
-0.187059
-0.14767
-0.168394
-0.148846
-0.134321
-0.119842
-0.115317
-0.110701
-0.125973
-0.116244
-0.101674
-0.127285
-0.152873
-0.153394
-0.168914
-0.164299
-0.159615
-0.160136
-0.175814
-0.196606
-0.292534
-0.253643
-0.245158
-0.302489
-0.370113
-0.392285
-0.393258
-0.371833
-0.331968
-0.29819
-0.328122
-0.363281
-0.348054
-0.290407
-0.283688
-0.313733
-0.280452
-0.257127
-0.349367
-0.556584
-0.708235
-0.624457
-0.345362
0.158824
0.348235
1.77303
2.56296
3.07292
3.15283
2.63283
1.37781
-0.137308
-0.562308
-0.636946
-0.765973
-0.764208
-0.65224
-0.545814
-0.455928
-0.386697
-0.368348
-0.383778
-0.387104
-0.382172
-0.396403
-0.396516
-0.379344
-0.347081
-0.324095
-0.320588
-0.316471
-0.292398
-0.263552
-0.259751
-0.240973
-0.212534
-0.209344
-0.191199
-0.132873
-0.0943665
-0.0757918
-0.0321945
0.0167195
0.0758824
0.120045
0.173394
0.216018
0.263371
0.305611
0.347738
0.409525
0.475905
0.507059
0.5131
0.513846
0.549118
0.593756
0.597851
0.591516
0.579955
0.533394
0.46681
0.399977
0.342534
0.29
0.237353
0.164412
0.115792
0.0515385
-0.032828
-0.0913574
-0.0838914
-0.101222
-0.143891
-0.171584
-0.179253
-0.181878
-0.194231
-0.241199
-0.258009
-0.214502
-0.200566
-0.226606
-0.242602
-0.233213
-0.23362
-0.233959
-0.209231
-0.174412
-0.129389
-0.104389
-0.109864
-0.125068
-0.105
-0.105113
-0.130543
-0.136063
-0.126538
-0.136946
-0.167308
-0.197805
-0.203507
-0.189344
-0.215294
-0.231335
-0.252489
-0.268869
-0.31
-0.300928
-0.302285
-0.304593
-0.312602
-0.335339
-0.316765
-0.320724
-0.353643
-0.35
-0.327941
-0.293575
-0.278801
-0.276267
-0.259163
-0.258688
-0.304955
-0.456606
-0.64405
-0.661493
-0.49319
-0.129276
0.0150001
1.31948
2.21905
2.92871
3.30844
3.12817
2.27799
0.71276
-0.407534
-0.577647
-0.677511
-0.757172
-0.686312
-0.55957
-0.457398
-0.385249
-0.330226
-0.322896
-0.294412
-0.280158
-0.284253
-0.300249
-0.290814
-0.362217
-0.426176
-0.439231
-0.306086
-0.217262
-0.227828
-0.273439
-0.289525
-0.270973
-0.242376
-0.23862
-0.229796
-0.165973
-0.112127
-0.0682126
0.010724
0.0946833
0.118643
0.137443
0.185996
0.20414
0.261946
0.289525
0.331833
0.41371
0.560204
0.726403
0.767217
0.582647
0.412828
0.407964
0.462783
0.487217
0.49629
0.500091
0.443778
0.36224
0.310136
0.247783
0.165475
0.132941
0.0950905
0.00714935
-0.0559049
-0.0692081
-0.0826697
-0.106063
-0.169457
-0.18767
-0.180633
-0.203462
-0.256199
-0.273688
-0.271018
-0.273077
-0.284751
-0.281222
-0.257489
-0.203575
-0.199525
-0.220385
-0.196041
-0.131606
-0.107172
-0.0877828
-0.108235
-0.128643
-0.123937
-0.119208
-0.114548
-0.089819
-0.100068
-0.140294
-0.180633
-0.206086
-0.171516
-0.172104
-0.182828
-0.208462
-0.264118
-0.314977
-0.355996
-0.34724
-0.304299
-0.307262
-0.365272
-0.397466
-0.387896
-0.362647
-0.351584
-0.366493
-0.358077
-0.322851
-0.328258
-0.297421
-0.258643
-0.269751
-0.306516
-0.353733
-0.471109
-0.648077
-0.71957
-0.715701
-0.23138
0.388394
1.23824
2.18812
2.98303
3.43805
3.35812
2.47835
0.878167
-0.372398
-0.597964
-0.697783
-0.792195
-0.736629
-0.591222
-0.469977
-0.417941
-0.385814
-0.369729
-0.365792
-0.375113
-0.363484
-0.335566
-0.350249
-0.370634
-0.359095
-0.356878
-0.331833
-0.318665
-0.320158
-0.305837
-0.256063
-0.236358
-0.211539
-0.181425
-0.171312
-0.167059
-0.143643
-0.0854073
-0.0369683
0.0216063
0.0800226
0.108416
0.151719
0.234728
0.27724
0.314231
0.380814
0.427353
0.433846
0.469842
0.525475
0.560905
0.571109
0.606109
0.610701
0.580136
0.544593
0.50871
0.47233
0.435747
0.348982
0.257127
0.219977
0.16276
0.090181
0.0277149
0.000135735
-0.0326697
-0.0804073
-0.0979638
-0.110611
-0.163235
-0.216018
-0.234005
-0.241968
-0.229683
-0.252127
-0.279208
-0.266109
-0.247919
-0.259638
-0.27129
-0.227557
-0.178597
-0.199434
-0.205158
-0.150995
-0.116923
-0.112964
-0.0837783
-0.0693213
-0.074819
-0.085543
-0.111471
-0.117376
-0.0979412
-0.0882353
-0.113462
-0.133597
-0.173778
-0.194163
-0.199502
-0.239819
-0.265294
-0.26595
-0.311878
-0.333575
-0.316177
-0.299072
-0.331923
-0.37776
-0.380995
-0.350453
-0.320588
-0.322014
-0.31629
-0.31086
-0.269412
-0.240181
-0.256606
-0.293869
-0.301448
-0.314434
-0.332149
-0.538959
-0.699977
-0.695679
-0.466267
0.01319
0.792692
1.73717
2.59683
3.2467
3.48158
3.07649
1.83654
0.151629
-0.523258
-0.543122
-0.697851
-0.757692
-0.662353
-0.5419
-0.44138
-0.400656
-0.394615
-0.377647
-0.339887
-0.327285
-0.33086
-0.28672
-0.28095
-0.324299
-0.351538
-0.306154
-0.26543
-0.26638
-0.290204
-0.311855
-0.281946
-0.256719
-0.215679
-0.169729
-0.138914
-0.103891
-0.0792534
-0.0699095
-0.0108145
0.0529864
0.0864932
0.134796
0.157828
0.215362
0.237624
0.344661
0.376312
0.407624
0.438801
0.449751
0.47543
0.521109
0.536697
0.551878
0.576697
0.576335
0.525769
0.470091
0.414253
0.363281
0.302149
0.24095
0.199525
0.147851
0.0961086
0.0392987
-0.0128733
-0.0452262
-0.0773982
-0.094638
-0.137127
-0.154615
-0.167127
-0.174819
-0.16267
-0.160701
-0.213733
-0.271538
-0.31414
-0.341697
-0.314095
-0.291471
-0.283665
-0.255543
-0.232489
-0.22905
-0.215385
-0.161719
-0.137986
-0.144027
-0.149842
-0.110611
-0.0664027
-0.0521719
-0.0577828
-0.0831674
-0.103507
-0.118869
-0.119208
-0.124389
-0.124434
-0.164548
-0.194842
-0.200204
-0.205656
-0.261199
-0.317692
-0.339932
-0.337262
-0.333643
-0.338032
-0.333869
-0.345543
-0.338371
-0.328348
-0.322489
-0.313484
-0.304887
-0.283891
-0.280973
-0.31819
-0.286176
-0.28457
-0.297647
-0.295
-0.316584
-0.382692
-0.588507
-0.744163
-0.654615
-0.349977
0.209615
1.00948
1.94471
2.84489
3.44993
3.4152
2.71577
1.20629
-0.333303
-0.673032
-0.70767
-0.832172
-0.776516
-0.735588
-0.52457
-0.433507
-0.397466
-0.376403
-0.344548
-0.311561
-0.298054
-0.319864
-0.298281
-0.274548
-0.284706
-0.278348
-0.275136
-0.283167
-0.276154
-0.268348
-0.283122
-0.268439
-0.223281
-0.187534
-0.156357
-0.11052
-0.0654072
-0.0460181
-0.0371493
0.0162444
0.0540046
0.0961765
0.143167
0.205272
0.272466
0.334434
0.371109
0.387421
0.438439
0.499344
0.530023
0.55052
0.585837
0.611086
0.626244
0.621312
0.591222
0.555882
0.520226
0.464321
0.418394
0.357421
0.281267
0.254977
0.143552
0.0919457
0.0452262
0.00834841
-0.0236425
-0.0557692
-0.0980996
-0.140362
-0.152557
-0.164751
-0.196878
-0.224186
-0.231584
-0.24905
-0.256561
-0.264208
-0.266697
-0.264027
-0.256154
-0.248167
-0.245091
-0.242036
-0.238869
-0.215453
-0.19681
-0.157873
-0.16362
-0.139208
-0.129932
-0.110814
-0.0615158
-0.0569005
-0.102217
-0.107489
-0.102579
-0.0925792
-0.0778507
-0.0479412
-0.0228959
-0.0628507
-0.132986
-0.198303
-0.259005
-0.280656
-0.292986
-0.304932
-0.300724
-0.314095
-0.378891
-0.394706
-0.366516
-0.340498
-0.33457
-0.301833
-0.290792
-0.286629
-0.283959
-0.29638
-0.299344
-0.322059
-0.31948
-0.300792
-0.276561
-0.277081
-0.397444
-0.587489
-0.672466
-0.557398
-0.182421
0.502647
1.38271
2.25787
2.98335
3.28885
3.30925
2.03982
0.425453
-0.514005
-0.603371
-0.717511
-0.786652
-0.710611
-0.598959
-0.491448
-0.428326
-0.370385
-0.288303
-0.218009
-0.220814
-0.299593
-0.379027
-0.395747
-0.392828
-0.353032
-0.323416
-0.311493
-0.296086
-0.265475
-0.229344
-0.213077
-0.17224
-0.141629
-0.151357
-0.146652
-0.112262
-0.0779186
-0.0388462
-0.000203624
0.0530317
0.11586
0.173597
0.22086
0.262783
0.35448
0.406041
0.432217
0.47319
0.498937
0.529366
0.544751
0.525045
0.540113
0.539887
0.539502
0.548982
0.573326
0.537466
0.461538
0.38552
0.354186
0.327624
0.275928
0.194027
0.116878
0.069638
0.0073756
-0.069819
-0.107127
-0.0995249
-0.0719457
-0.119344
-0.201629
-0.223959
-0.236357
-0.258597
-0.275475
-0.252081
-0.258462
-0.284389
-0.294932
-0.250588
-0.231312
-0.211968
-0.20767
-0.213235
-0.208484
-0.158665
-0.134027
-0.124344
-0.0697964
-0.0552262
-0.075543
-0.0907013
-0.0858371
-0.115882
-0.135973
-0.146267
-0.161516
-0.166765
-0.167059
-0.192466
-0.228077
-0.258891
-0.279638
-0.295385
-0.336561
-0.323665
-0.32638
-0.333462
-0.33362
-0.305679
-0.323688
-0.36733
-0.342624
-0.301742
-0.300769
-0.290362
-0.282081
-0.293235
-0.304864
-0.276833
-0.293869
-0.390385
-0.541606
-0.662444
-0.617941
-0.378077
0.0521267
0.777511
1.03787
2.34785
2.91756
3.05742
2.67756
1.62796
0.0635973
-0.645701
-0.659977
-0.753869
-0.747149
-0.625317
-0.558891
-0.488778
-0.39638
-0.364977
-0.398869
-0.405136
-0.367127
-0.347624
-0.339299
-0.344932
-0.346584
-0.317828
-0.308167
-0.30776
-0.247489
-0.227579
-0.212964
-0.178597
-0.174276
-0.160068
-0.136063
-0.0920814
-0.0581674
-0.039276
-0.0103393
0.0337104
0.0525566
0.0809729
0.164027
0.226901
0.264434
0.316674
0.378529
0.424977
0.451177
0.476923
0.497285
0.54233
0.557217
0.572353
0.597127
0.611358
0.580453
0.539276
0.462805
0.411063
0.374253
0.302104
0.23948
0.221833
0.164548
0.0821268
0.0295249
-0.0230769
-0.105769
-0.13362
-0.0911765
-0.118462
-0.160633
-0.192398
-0.203733
-0.229751
-0.245543
-0.246222
-0.231968
-0.182715
-0.188303
-0.198597
-0.188416
-0.182851
-0.132353
-0.0669683
-0.0567646
-0.0566063
-0.0814253
-0.066561
-0.0166968
-0.0418551
-0.0920135
-0.0920135
-0.106855
-0.19681
-0.212195
-0.167692
-0.1681
-0.208756
-0.249366
-0.209955
-0.195656
-0.236244
-0.291674
-0.332262
-0.288416
-0.270181
-0.287285
-0.31414
-0.310045
-0.279095
-0.269751
-0.254005
-0.252195
-0.277851
-0.307783
-0.304412
-0.310792
-0.314321
-0.31095
-0.372579
-0.479593
-0.496606
-0.373145
-0.0594117
0.524706
0.744299
1.9441
2.49882
2.69342
2.39814
1.60326
0.328529
-0.49586
-0.539796
-0.698552
-0.772873
-0.693846
-0.592376
-0.493937
-0.422919
-0.392421
-0.363529
-0.348642
-0.335204
-0.321131
-0.313824
-0.311425
-0.308439
-0.294842
-0.271674
-0.263891
-0.250995
-0.197896
-0.180023
-0.172262
-0.154389
-0.141244
-0.098009
-0.0847963
-0.0465384
0.00203624
-0.019457
0.0190951
0.0627829
0.076267
0.129525
0.177692
0.225385
0.267738
0.340023
0.421855
0.418281
0.384525
0.435453
0.495747
0.500588
0.515045
0.554095
0.537919
0.50181
0.485407
0.448529
0.366358
0.273937
0.206244
0.183326
0.165249
0.14224
0.0944118
0.0115838
-0.101267
-0.189004
-0.201742
-0.214163
-0.206041
-0.217602
-0.239004
-0.210294
-0.196086
-0.191471
-0.196855
-0.232149
-0.242127
-0.24224
-0.202647
-0.168032
-0.163235
-0.123326
-0.133575
-0.134118
-0.119457
-0.154683
-0.16009
-0.140498
-0.11086
-0.126041
-0.171606
-0.182308
-0.153484
-0.134909
-0.160973
-0.211697
-0.242376
-0.233326
-0.254525
-0.260792
-0.261991
-0.248235
-0.274412
-0.290385
-0.301584
-0.298326
-0.285158
-0.28129
-0.295928
-0.302918
-0.308823
-0.309185
-0.262081
-0.229118
-0.272489
-0.284344
-0.361991
-0.468439
-0.485158
-0.357647
-0.000520214
0.616991
1.30018
1.84391
1.98803
2.34226
2.13165
1.36661
0.162172
-0.521946
-0.526425
-0.63181
-0.728891
-0.623823
-0.52181
-0.477421
-0.474638
-0.401878
-0.337127
-0.311425
-0.326652
-0.32
-0.287941
-0.275181
-0.297217
-0.264593
-0.257556
-0.260701
-0.198982
-0.177466
-0.195882
-0.164118
-0.137149
-0.155023
-0.122624
-0.0899094
-0.0623076
-0.0449999
0.0175567
0.0703394
0.108077
0.120769
0.148439
0.18095
0.223349
0.29095
0.328303
0.375181
0.411403
0.447059
0.482398
0.482579
0.49267
0.487444
0.481561
0.464932
0.467738
0.445272
0.387647
0.32491
0.287036
0.234005
0.13586
0.0926245
0.064344
-0.00898184
-0.0823303
-0.0707466
-0.0991629
-0.122353
-0.120045
-0.147602
-0.154615
-0.131312
-0.137805
-0.14905
-0.150294
-0.20638
-0.257104
-0.252534
-0.147986
-0.133575
-0.0540271
0.00574663
-0.0443213
-0.11448
-0.11491
-0.0654525
-0.0509503
-0.081448
-0.106923
-0.112511
-0.133303
-0.174344
-0.18543
-0.171606
-0.167873
-0.199027
-0.215091
-0.216199
-0.237466
-0.263869
-0.255294
-0.251448
-0.252466
-0.27862
-0.274842
-0.261471
-0.248507
-0.240498
-0.231855
-0.236493
-0.278258
-0.286923
-0.283145
-0.258733
-0.242602
-0.332353
-0.440543
-0.49414
-0.410996
-0.212919
0.159819
0.797195
1.49011
2.07346
2.43697
2.49054
2.06452
1.85907
-0.130656
-0.534796
-0.583937
-0.728824
-0.740385
-0.624842
-0.527647
-0.46362
-0.406991
-0.366222
-0.344299
-0.348733
-0.351674
-0.345679
-0.334299
-0.322285
-0.299796
-0.267579
-0.27086
-0.259276
-0.24276
-0.216312
-0.169819
-0.148348
-0.156855
-0.215204
-0.193235
-0.166109
-0.108824
-0.0465158
0.00588235
0.0284389
0.030905
0.0582579
0.125452
0.182534
0.224525
0.276629
0.303529
0.340113
0.361244
0.377149
0.432647
0.467489
0.481991
0.486154
0.454774
0.458077
0.456199
0.443846
0.36629
0.338575
0.255633
0.172489
0.124231
0.0808823
0.0424887
-0.000995494
-0.0647964
-0.103801
-0.11776
-0.136063
-0.17914
-0.201561
-0.218575
-0.225317
-0.217149
-0.223824
-0.225113
-0.246131
-0.257104
-0.232964
-0.17371
-0.144344
-0.150136
-0.141041
-0.116833
-0.127443
-0.142964
-0.148484
-0.123982
-0.104389
-0.109842
-0.135407
-0.146086
-0.171833
-0.177851
-0.168959
-0.184955
-0.210814
-0.221629
-0.242738
-0.259027
-0.260543
-0.257172
-0.253869
-0.280317
-0.296561
-0.303394
-0.316109
-0.284118
-0.276425
-0.307579
-0.3219
-0.328281
-0.306538
-0.276946
-0.265339
-0.258235
-0.298122
-0.413801
-0.558394
-0.555
-0.361878
0.0156109
0.627986
1.39588
2.09928
2.62301
2.87206
2.63638
1.81093
0.405498
-0.439955
-0.545452
-0.655611
-0.73
-0.643733
-0.517557
-0.427647
-0.364706
-0.319887
-0.328733
-0.310837
-0.300317
-0.310543
-0.328824
-0.336923
-0.328326
-0.297851
-0.281222
-0.278597
-0.255407
-0.217579
-0.185204
-0.162919
-0.155701
-0.173529
-0.146199
-0.12871
-0.0860634
-0.0683937
-0.0257466
0.0270136
0.0648643
0.11776
0.170588
0.173054
0.230453
0.312896
0.340204
0.38233
0.409525
0.451222
0.502489
0.518326
0.518575
0.538507
0.553281
0.547692
0.54181
0.500679
0.464186
0.397262
0.365045
0.252489
0.199706
0.16181
0.123665
0.0753394
0.0318552
-0.0217421
-0.0553394
-0.103801
-0.112217
-0.100611
-0.113778
-0.151697
-0.204525
-0.222376
-0.229706
-0.271674
-0.288303
-0.254729
-0.226018
-0.212059
-0.178054
-0.153937
-0.164615
-0.180226
-0.180769
-0.106176
-0.071629
-0.0671493
-0.0576018
-0.0480091
-0.0883937
-0.128778
-0.0991403
-0.0195023
-0.00997738
-0.0804299
-0.135814
-0.16629
-0.176833
-0.172579
-0.218326
-0.299027
-0.354728
-0.340566
-0.371855
-0.393846
-0.356538
-0.349231
-0.356109
-0.341244
-0.333529
-0.332308
-0.322896
-0.311041
-0.302964
-0.305905
-0.297489
-0.290181
-0.276606
-0.343597
-0.506041
-0.63371
-0.585837
-0.312353
0.131652
0.835882
1.67032
2.43489
2.97973
3.13468
2.64464
1.51957
0.0645475
-0.295453
-0.490294
-0.660045
-0.764842
-0.684683
-0.559367
-0.473756
-0.40267
-0.350814
-0.333552
-0.341561
-0.340815
-0.327217
-0.311968
-0.290566
-0.285158
-0.294276
-0.288552
-0.249819
-0.234932
-0.243077
-0.21914
-0.249819
-0.284819
-0.249842
-0.230317
-0.176109
-0.0821267
-0.0432579
-0.0443665
-0.0206335
0.013009
0.0616742
0.130068
0.188167
0.23595
0.298665
0.345769
0.382557
0.434163
0.475656
0.491923
0.507738
0.533281
0.56371
0.583801
0.573688
0.533552
0.503371
0.472986
0.462127
0.340973
0.284638
0.227828
0.175679
0.118597
0.0514932
0.0141855
-0.0182579
-0.0558597
-0.088733
-0.131719
-0.174729
-0.187489
-0.190204
-0.207941
-0.215747
-0.218439
-0.246244
-0.269118
-0.276765
-0.263756
-0.235294
-0.2419
-0.253507
-0.254887
-0.22095
-0.206742
-0.197534
-0.198665
-0.175
-0.126018
-0.0969909
-0.0880543
-0.0841403
-0.0701357
-0.0759955
-0.09181
-0.0973529
-0.0975566
-0.112692
-0.133077
-0.143575
-0.164027
-0.219276
-0.239502
-0.219706
-0.230091
-0.256244
-0.292986
-0.304615
-0.330091
-0.313665
-0.304186
-0.32595
-0.344276
-0.330249
-0.310634
-0.298348
-0.301267
-0.295792
-0.301878
-0.308846
-0.301742
-0.275204
-0.278281
-0.315837
-0.402873
-0.569389
-0.680543
-0.596561
-0.307624
0.206335
0.960611
1.85014
2.11984
3.1545
3.2393
2.62439
1.26477
-0.219683
-0.599163
-0.658665
-0.768348
-0.738145
-0.597783
-0.477217
-0.411448
-0.385317
-0.369027
-0.31776
-0.301425
-0.309864
-0.28819
-0.256312
-0.248643
-0.259774
-0.229932
-0.205385
-0.197059
-0.20595
-0.203145
-0.149389
-0.149367
-0.166833
-0.149434
-0.119389
-0.103054
-0.0997511
-0.0847738
-0.0246833
0.0309502
0.0708824
0.139932
0.203122
0.225928
0.263213
0.325158
0.391833
0.453303
0.50457
0.515656
0.521493
0.542104
0.567647
0.578145
0.603484
0.58871
0.573891
0.548959
0.528846
0.463665
0.373484
0.318258
0.262873
0.182353
0.101765
0.0461539
0.0004525
-0.00540723
-0.0163348
-0.0723529
-0.113394
-0.114548
-0.0707919
-0.0823077
-0.118982
-0.11586
-0.172919
-0.255158
-0.272647
-0.220339
-0.203167
-0.231131
-0.279299
-0.282715
-0.276267
-0.304615
-0.297873
-0.296063
-0.274118
-0.25681
-0.234344
-0.206538
-0.203303
-0.20009
-0.176855
-0.153552
-0.130091
-0.10638
-0.102466
-0.118416
-0.119321
-0.085181
-0.065905
-0.0713349
-0.0616969
-0.0921946
-0.138054
-0.169615
-0.186652
-0.188281
-0.193665
-0.246742
-0.276312
-0.276833
-0.241222
-0.251063
-0.280611
-0.282986
-0.291516
-0.296923
-0.274163
-0.271674
-0.289729
-0.297783
-0.330339
-0.327466
-0.319253
-0.320995
-0.322647
-0.318959
-0.340113
-0.321335
-0.302398
-0.423235
-0.643891
-0.79948
-0.68991
-0.385226
0.154593
0.924548
1.83466
2.67505
3.25048
3.31091
2.74661
1.34756
-0.231448
-0.63043
-0.684389
-0.813077
-0.776448
-0.634548
-0.497421
-0.460158
-0.397805
-0.385181
-0.357376
-0.339367
-0.325814
-0.311267
-0.290973
-0.275588
-0.266063
-0.2531
-0.232919
-0.216629
-0.214638
-0.226018
-0.218371
-0.22043
-0.213281
-0.173801
-0.139955
-0.11595
-0.0969457
-0.0532353
-0.0152036
0.0321041
0.0489593
0.0954977
0.151403
0.207285
0.238575
0.304932
0.355905
0.396697
0.422715
0.45862
0.514163
0.544502
0.554955
0.575317
0.60043
0.600339
0.610158
0.584909
0.554502
0.514072
0.448507
0.357783
0.296946
0.236018
0.145204
0.119253
0.0831448
0.067172
0.0361086
-0.020362
-0.0769004
-0.103552
-0.120452
-0.137398
-0.159208
-0.196471
-0.214163
-0.221697
-0.229118
-0.241652
-0.249299
-0.257195
-0.245249
-0.243213
-0.266131
-0.273914
-0.256448
-0.228688
-0.210814
-0.202828
-0.204615
-0.171312
-0.147851
-0.148937
-0.139819
-0.110724
-0.0815837
-0.0574887
-0.0682353
-0.0538235
-0.059276
-0.0847059
-0.105294
-0.101018
-0.116312
-0.13638
-0.171787
-0.203167
-0.215452
-0.222534
-0.248235
-0.28638
-0.311131
-0.30181
-0.288688
-0.278054
-0.292195
-0.293959
-0.277172
-0.28267
-0.280113
-0.287873
-0.311312
-0.339729
-0.327511
-0.299548
-0.301199
-0.327443
-0.308597
-0.289548
-0.350407
-0.521131
-0.676719
-0.69224
-0.482534
-0.112534
0.512557
1.39769
2.33299
3.06337
3.25376
3.16934
2.17505
0.465792
-0.553348
-0.642466
-0.721403
-0.735136
-0.638643
-0.521991
-0.425181
-0.363348
-0.276312
-0.309005
-0.396063
-0.362805
-0.283122
-0.273439
-0.314751
-0.343122
-0.344751
-0.320294
-0.299615
-0.271493
-0.253891
-0.263643
-0.247511
-0.219005
-0.203394
-0.18276
-0.141742
-0.0759502
-0.0261086
0.023009
0.0313801
0.0690271
0.111448
0.108597
0.155566
0.272421
0.314072
0.345407
0.386561
0.397579
0.403462
0.524186
0.614638
0.589955
0.535181
0.515407
0.510498
0.550339
0.585113
0.55991
0.494615
0.429095
0.363394
0.322602
0.271697
0.200679
0.134593
0.0983937
0.0571041
-0.0193665
-0.061086
-0.0728507
-0.0897059
-0.111606
-0.143688
-0.17095
-0.20319
-0.210588
-0.173077
-0.165679
-0.243281
-0.275995
-0.323801
-0.331493
-0.289005
-0.226448
-0.228688
-0.255611
-0.237376
-0.22905
-0.23043
-0.211561
-0.202647
-0.188733
-0.164638
-0.135294
-0.105928
-0.091448
-0.0719231
-0.0423077
-0.0427149
-0.0730543
-0.123235
-0.153348
-0.163529
-0.183597
-0.188688
-0.209118
-0.230339
-0.23233
-0.274502
-0.33586
-0.345543
-0.332489
-0.34052
-0.33948
-0.325339
-0.33543
-0.33595
-0.320928
-0.303575
-0.280814
-0.303507
-0.336629
-0.349706
-0.3519
-0.343394
-0.334796
-0.335995
-0.341403
-0.426493
-0.4669
-0.717308
-0.667285
-0.407127
0.0730091
0.828167
1.74833
2.61353
3.18867
3.32391
2.76446
1.465
-0.154457
-0.64371
-0.677873
-0.801991
-0.81638
-0.695385
-0.593801
-0.486312
-0.41319
-0.385294
-0.358213
-0.332964
-0.340362
-0.355792
-0.349389
-0.345294
-0.341946
-0.337104
-0.327489
-0.300136
-0.279548
-0.258982
-0.258122
-0.232059
-0.176448
-0.161176
-0.14629
-0.116833
-0.0827602
-0.043914
-0.000429861
0.0576244
0.105339
0.132647
0.159253
0.215385
0.281244
0.336787
0.357534
0.408575
0.449774
0.51595
0.546968
0.557534
0.58767
0.582738
0.587986
0.593077
0.602466
0.601561
0.540339
0.468869
0.442376
0.391109
0.294525
0.217715
0.165814
0.0987104
0.041448
0.0239367
-0.00891402
-0.0667421
-0.114412
-0.127036
-0.149661
-0.167376
-0.209887
-0.232172
-0.234502
-0.241923
-0.25905
-0.270724
-0.277104
-0.253439
-0.239661
-0.235701
-0.221493
-0.196991
-0.167579
-0.1681
-0.148552
-0.128891
-0.0942986
-0.0497059
-0.0300679
-0.0204072
-0.0306787
-0.0458597
-0.0509955
-0.0410181
-0.0261312
-0.051448
-0.151878
-0.19233
-0.117805
-0.103326
-0.194027
-0.299819
-0.321041
-0.292534
-0.315249
-0.342738
-0.384072
-0.418235
-0.413959
-0.385475
-0.328032
-0.297986
-0.31724
-0.303846
-0.276176
-0.295792
-0.307624
-0.30448
-0.211742
-0.238959
-0.325633
-0.4819
-0.617625
-0.532986
-0.313281
0.0865837
0.716697
1.50172
2.24167
2.7817
2.98674
2.66686
1.61706
0.0273982
-0.597262
-0.616742
-0.735611
-0.798778
-0.701425
-0.584095
-0.462941
-0.393846
-0.377986
-0.400905
-0.39724
-0.35586
-0.344796
-0.33629
-0.252421
-0.181335
-0.157466
-0.158167
-0.2381
-0.307919
-0.353009
-0.363439
-0.353846
-0.274208
-0.204796
-0.190452
-0.186244
-0.137036
-0.0528281
-0.0136878
0.0154072
0.0691855
0.122624
0.140928
0.213846
0.241177
0.283167
0.339932
0.37638
0.452557
0.538529
0.549095
0.539253
0.559186
0.588891
0.623258
0.597444
0.57629
0.584977
0.573416
0.456516
0.324253
0.246765
0.214072
0.181335
0.118462
0.040543
-0.0274661
-0.0506108
-0.128756
-0.15681
-0.174774
-0.177715
-0.190475
-0.202873
-0.234842
-0.266561
-0.283122
-0.279321
-0.280181
-0.280769
-0.266131
-0.25138
-0.247014
-0.232511
-0.212647
-0.17267
-0.158167
-0.148937
-0.129389
-0.109457
-0.109525
-0.104751
-0.105271
-0.111041
-0.121765
-0.132262
-0.132602
-0.152896
-0.193371
-0.229072
-0.240023
-0.241176
-0.272308
-0.308394
-0.334095
-0.334932
-0.326154
-0.3431
-0.355837
-0.34819
-0.359502
-0.388891
-0.370249
-0.357715
-0.346561
-0.3231
-0.309072
-0.301493
-0.308371
-0.282081
-0.308235
-0.429276
-0.591154
-0.688575
-0.635701
-0.367376
0.0967421
0.836516
1.7014
2.49113
3.03597
3.16109
2.66627
1.50636
-0.0631448
-0.622308
-0.650905
-0.763665
-0.76638
-0.654864
-0.540023
-0.482511
-0.468439
-0.418032
-0.385996
-0.376425
-0.387036
-0.394412
-0.375317
-0.364434
-0.351561
-0.343348
-0.334502
-0.295611
-0.256855
-0.253348
-0.249887
-0.241222
-0.232805
-0.199412
-0.135679
-0.0967195
-0.0877602
-0.0438462
0.0151357
0.044276
0.0832806
0.102104
0.16086
0.234434
0.302421
0.344751
0.386629
0.423281
0.469751
0.485837
0.521403
0.576561
0.606448
0.585882
0.585091
0.59905
0.592964
0.556493
0.479683
0.43267
0.385362
0.287647
0.204729
0.151719
0.113552
0.0602941
0.0419457
-0.0315159
-0.0399548
-0.0533032
-0.0413801
-0.0892534
-0.181946
-0.239367
-0.261425
-0.253213
-0.229661
-0.210769
-0.221674
-0.252398
-0.242851
-0.238213
-0.233529
-0.183937
-0.109389
-0.0846832
-0.0997511
-0.104864
-0.0951583
-0.0906335
-0.0910181
-0.0862896
-0.0466968
-0.0472398
-0.0577376
-0.08319
-0.123801
-0.19948
-0.260226
-0.231109
-0.152059
-0.153122
-0.219321
-0.300566
-0.386629
-0.432805
-0.369548
-0.317014
-0.289819
-0.277353
-0.33362
-0.407624
-0.408167
-0.379796
-0.377715
-0.368032
-0.34276
-0.289683
-0.281674
-0.285724
-0.392421
-0.58414
-0.681176
-0.58819
-0.269819
0.229118
0.993416
1.87778
2.68731
3.24201
3.28188
2.61176
1.26163
-0.203394
-0.618303
-0.642805
-0.731629
-0.724842
-0.622941
-0.541787
-0.492398
-0.48629
-0.404299
-0.33638
-0.341516
-0.39776
-0.422127
-0.401471
-0.387647
-0.384661
-0.376471
-0.352602
-0.323507
-0.289615
-0.271109
-0.25276
-0.224321
-0.200928
-0.187489
-0.158869
-0.115158
-0.0864479
-0.0425792
-0.0136878
0.0151131
0.0590045
0.0728733
0.151584
0.220068
0.238122
0.275973
0.353597
0.405656
0.427127
0.463258
0.49914
0.534774
0.565272
0.575226
0.574887
0.554276
0.523665
0.492421
0.450339
0.387647
0.324615
0.251697
0.173982
0.121176
0.0681674
-0.00497735
-0.0280995
-0.061267
-0.0845475
-0.112624
-0.160317
-0.213054
-0.235724
-0.233077
-0.220136
-0.241991
-0.258643
-0.245
-0.225882
-0.226629
-0.247195
-0.24276
-0.213145
-0.193733
-0.164299
-0.139389
-0.114095
-0.0889593
-0.0940724
-0.109412
-0.110136
-0.106199
-0.10681
-0.1269
-0.131878
-0.1419
-0.177262
-0.203077
-0.203824
-0.234661
-0.265701
-0.271787
-0.282873
-0.323778
-0.334819
-0.311041
-0.33776
-0.385113
-0.397964
-0.375407
-0.386471
-0.405407
-0.395679
-0.361674
-0.343914
-0.33862
-0.323077
-0.300679
-0.294412
-0.30948
-0.391222
-0.537986
-0.669932
-0.66181
-0.463167
-0.074095
0.650091
1.56425
2.46882
3.17389
3.47912
3.09919
1.99407
0.229163
-0.635679
-0.655611
-0.770566
-0.805113
-0.703756
-0.546493
-0.44414
-0.422851
-0.373756
-0.352986
-0.356154
-0.373235
-0.353394
-0.349683
-0.338507
-0.346878
-0.367443
-0.34457
-0.311403
-0.292172
-0.267466
-0.263258
-0.254095
-0.220679
-0.167217
-0.138688
-0.115023
-0.106131
-0.0870588
-0.0328733
0.0313575
0.0855882
0.10457
0.203258
0.301742
0.384977
0.442828
0.430272
0.412398
0.454186
0.490656
0.491765
0.497421
0.512919
0.5431
0.548009
0.537715
0.572195
0.541199
0.464842
0.408213
0.366425
0.319434
0.257149
0.189638
0.157081
0.104412
0.076448
-0.00667421
-0.0397059
-0.107647
-0.185543
-0.193439
-0.161176
-0.173756
-0.20629
-0.208733
-0.180905
-0.217738
-0.279253
-0.275588
-0.251787
-0.232986
-0.208891
-0.229751
-0.190453
-0.156018
-0.151516
-0.142036
-0.142557
-0.113054
-0.0784389
-0.0736878
-0.123982
-0.109344
-0.104751
-0.0901584
-0.0606335
-0.106267
-0.1669
-0.187443
-0.192986
-0.20871
-0.184593
-0.180452
-0.246312
-0.292443
-0.314027
-0.366448
-0.379367
-0.397172
-0.414095
-0.389186
-0.370928
-0.363529
-0.381991
-0.392149
-0.38086
-0.336267
-0.341561
-0.339525
-0.321312
-0.313145
-0.385294
-0.562579
-0.734661
-0.740973
-0.491652
0.0178507
0.772557
1.65233
2.54224
3.26219
3.53729
3.03233
1.85251
0.152692
-0.567149
-0.621878
-0.781538
-0.821086
-0.695113
-0.648281
-0.406041
-0.364163
-0.358394
-0.354977
-0.375204
-0.38957
-0.397715
-0.413213
-0.428213
-0.40457
-0.373778
-0.355973
-0.336516
-0.306516
-0.271086
-0.265769
-0.261176
-0.23681
-0.202602
-0.168597
-0.149638
-0.105747
-0.0618778
-0.0379412
-0.029095
0.0298416
0.0936878
0.162127
0.215204
0.2431
0.295747
0.363009
0.394932
0.421652
0.468009
0.509072
0.519615
0.51991
0.539842
0.564389
0.553529
0.542421
0.526063
0.489751
0.428597
0.357466
0.28595
0.223869
0.186448
0.173869
0.0711765
0.0335294
-0.00427604
-0.0671493
-0.115113
-0.1181
-0.130995
-0.178846
-0.21638
-0.223665
-0.241018
-0.273416
-0.275204
-0.251742
-0.248167
-0.234434
-0.230633
-0.226606
-0.222217
-0.19267
-0.158054
-0.153303
-0.153643
-0.109231
-0.0897964
-0.0501131
-0.070181
-0.0852036
-0.0805656
-0.0961086
-0.111584
-0.1119
-0.122149
-0.147579
-0.163167
-0.168824
-0.194525
-0.265588
-0.286652
-0.297557
-0.343371
-0.349593
-0.296674
-0.314638
-0.357602
-0.379389
-0.374072
-0.360249
-0.37724
-0.380181
-0.359955
-0.313439
-0.304072
-0.295023
-0.30862
-0.315272
-0.301991
-0.314389
-0.411855
-0.603597
-0.689977
-0.580362
-0.285656
0.25905
1.08376
2.00333
2.85287
3.4224
3.3721
2.61708
1.05222
-0.402557
-0.672262
-0.7119
-0.751448
-0.740905
-0.599819
-0.507851
-0.435317
-0.388077
-0.3719
-0.343054
-0.312511
-0.330837
-0.333009
-0.33267
-0.357285
-0.353937
-0.333824
-0.33595
-0.322014
-0.292647
-0.277398
-0.257036
-0.222014
-0.17724
-0.13767
-0.108281
-0.0890045
-0.0747964
0.0143892
0.108462
0.157489
0.121493
0.0902715
0.11862
0.171584
0.239118
0.321403
0.383552
0.430475
0.446787
0.462851
0.51871
0.574299
0.58457
0.574683
0.564548
0.524027
0.503213
0.52224
0.480996
0.359593
0.308054
0.296176
0.289005
0.226742
0.114299
0.0117421
-0.0309049
-0.0635972
-0.0713122
-0.049095
-0.0620136
-0.114796
-0.192489
-0.299932
-0.322421
-0.264819
-0.242104
-0.233937
-0.255588
-0.272036
-0.263235
-0.254231
-0.245068
-0.205724
-0.141357
-0.142081
-0.15767
-0.168167
-0.148801
-0.134366
-0.109683
-0.114887
-0.125158
-0.0805656
-0.100973
-0.146267
-0.151629
-0.132081
-0.142579
-0.1731
-0.17871
-0.189367
-0.235249
-0.276086
-0.286923
-0.313009
-0.34957
-0.386946
-0.369774
-0.352172
-0.348213
-0.341719
-0.321584
-0.312195
-0.288665
-0.312602
-0.35681
-0.344253
-0.323552
-0.324253
-0.326154
-0.32319
-0.315362
-0.437466
-0.633937
-0.739842
-0.645362
-0.38086
0.148688
0.918416
1.81342
2.68335
3.23821
3.28305
2.68781
1.25765
0.697738
-0.617127
-0.661652
-0.790339
-0.783371
-0.681403
-0.579932
-0.495181
-0.448348
-0.430068
-0.405249
-0.388326
-0.387285
-0.39957
-0.417195
-0.408167
-0.370317
-0.351991
-0.322828
-0.323077
-0.323303
-0.278937
-0.239909
-0.216018
-0.202104
-0.197964
-0.168846
-0.129887
-0.0811312
-0.0374887
-0.00366516
0.0302715
0.0790724
0.0875113
0.120362
0.223009
0.295724
0.333281
0.380272
0.411742
0.437806
0.478529
0.518869
0.538801
0.568643
0.583439
0.582896
0.566833
0.555181
0.518122
0.496109
0.379095
0.321991
0.274638
0.207014
0.134253
0.0813801
0.0333937
0.000497736
-0.0521719
-0.105091
-0.138077
-0.15595
-0.178575
-0.18095
-0.223145
-0.250068
-0.241719
-0.237919
-0.254072
-0.265226
-0.261131
-0.246629
-0.211833
-0.197059
-0.18724
-0.152376
-0.167511
-0.152692
-0.107851
-0.0980317
-0.108281
-0.0936425
-0.0789366
-0.0842986
-0.0996833
-0.0800679
-0.10043
-0.165882
-0.15638
-0.147081
-0.188213
-0.239525
-0.280769
-0.286991
-0.298235
-0.309683
-0.316109
-0.317602
-0.354774
-0.372443
-0.334683
-0.330701
-0.339299
-0.359367
-0.345226
-0.307036
-0.271335
-0.245362
-0.237014
-0.260204
-0.265815
-0.332195
-0.493846
-0.631086
-0.618281
-0.480045
-0.061267
0.617986
1.42751
2.2071
2.85679
3.13658
2.85645
1.87131
1.46627
-0.518281
-0.596923
-0.73009
-0.793665
-0.718665
-0.571086
-0.456787
-0.421109
-0.423778
-0.43362
-0.388394
-0.354977
-0.325158
-0.309027
-0.386538
-0.428394
-0.374683
-0.330769
-0.317308
-0.319163
-0.341063
-0.308032
-0.239864
-0.231493
-0.238167
-0.199728
-0.141041
-0.0522624
-0.00350676
0.000316776
0.029163
0.0729412
0.101606
0.175113
0.228348
0.256448
0.289005
0.326199
0.373077
0.414615
0.450656
0.48638
0.50672
0.521697
0.576267
0.575453
0.539276
0.502783
0.46095
0.44405
0.376833
0.304231
0.246403
0.213326
0.165113
0.101901
0.0286426
-0.0496606
-0.0779638
-0.0961991
-0.119253
-0.167014
-0.199661
-0.217036
-0.239118
-0.260656
-0.271991
-0.268032
-0.233756
-0.22414
-0.219344
-0.209457
-0.18948
-0.169547
-0.164502
-0.129457
-0.089457
-0.089457
-0.0945249
-0.0896606
-0.0399774
-0.0353846
-0.140792
-0.186222
-0.181991
-0.182805
-0.188462
-0.194253
-0.205272
-0.241448
-0.267579
-0.268597
-0.28448
-0.300294
-0.286222
-0.312285
-0.353258
-0.339457
-0.341357
-0.348914
-0.346312
-0.367828
-0.387398
-0.393869
-0.376674
-0.350792
-0.331787
-0.31638
-0.302285
-0.322602
-0.409547
-0.575611
-0.667081
-0.554095
-0.246357
0.281697
1.04541
1.87955
2.63896
3.12839
3.11265
2.43219
1.05253
-0.296267
-0.55457
-0.668394
-0.763439
-0.765113
-0.664661
-0.572964
-0.475091
-0.405204
-0.416357
-0.430181
-0.398801
-0.400294
-0.413552
-0.391267
-0.363077
-0.344548
-0.331697
-0.313846
-0.301109
-0.273688
-0.246176
-0.233597
-0.226018
-0.198235
-0.170339
-0.15733
-0.114208
-0.090905
-0.0474434
0.00599547
0.0493213
0.0876471
0.14086
0.198914
0.256652
0.274366
0.307059
0.369072
0.430543
0.491765
0.507828
0.498688
0.514344
0.539321
0.573507
0.572285
0.54095
0.509367
0.467353
0.420136
0.39767
0.284955
0.227014
0.173733
0.115226
0.0316968
-0.0266968
-0.0299321
-0.0730995
-0.131086
-0.148688
-0.141086
-0.173077
-0.224548
-0.250792
-0.241991
-0.212828
-0.203167
-0.208371
-0.203846
-0.164412
-0.169887
-0.165407
-0.13086
-0.0909276
-0.0808371
-0.0858371
-0.0858597
-0.0959729
-0.101267
-0.0815611
-0.0817421
-0.111968
-0.127534
-0.133213
-0.123937
-0.144751
-0.200747
-0.211923
-0.218167
-0.219412
-0.255498
-0.296584
-0.327624
-0.318665
-0.329774
-0.375995
-0.347557
-0.339706
-0.357104
-0.368914
-0.364321
-0.357172
-0.326471
-0.331968
-0.313914
-0.253507
-0.243145
-0.36086
-0.509796
-0.604842
-0.571018
-0.347715
0.0601358
0.732896
1.57111
2.40993
3.04421
3.30391
2.85367
1.70842
0.123507
-0.55586
-0.619389
-0.732692
-0.7619
-0.612805
-0.591674
-0.534434
-0.45129
-0.416267
-0.397534
-0.387127
-0.412172
-0.40448
-0.382511
-0.36509
-0.367059
-0.363869
-0.336018
-0.293122
-0.235588
-0.208303
-0.206018
-0.168484
-0.200769
-0.208054
-0.120181
-0.0670362
-0.0636199
-0.0551357
-0.0517421
-0.0632579
0.020362
0.123937
0.192511
0.206063
0.244457
0.297511
0.315249
0.357647
0.394774
0.426267
0.492466
0.548371
0.588959
0.568801
0.5381
0.532172
0.511018
0.444457
0.402443
0.345113
0.267489
0.21448
0.196335
0.118122
0.0548643
0.0265611
-0.0217194
-0.0500226
-0.0682127
-0.061267
-0.0840045
-0.176403
-0.223416
-0.240045
-0.261403
-0.242579
-0.218529
-0.234389
-0.244796
-0.260091
-0.225339
-0.185498
-0.175633
-0.160611
-0.115566
-0.0955656
-0.100543
-0.11052
-0.135407
-0.120294
-0.125407
-0.125724
-0.111199
-0.1169
-0.137851
-0.173665
-0.209434
-0.225249
-0.226222
-0.262376
-0.283552
-0.289661
-0.315837
-0.346742
-0.352466
-0.353303
-0.359774
-0.361923
-0.37448
-0.376946
-0.373213
-0.352557
-0.343778
-0.370905
-0.349095
-0.344525
-0.333756
-0.319819
-0.34586
-0.464095
-0.665633
-0.697489
-0.474615
-0.0867421
0.576787
1.45059
2.36468
3.07919
3.38898
3.02891
2.02891
0.343801
-0.576267
-0.665905
-0.759615
-0.772738
-0.656109
-0.61552
-0.496674
-0.410882
-0.369095
-0.381267
-0.381244
-0.382647
-0.402195
-0.41138
-0.412443
-0.365023
-0.327398
-0.354072
-0.365453
-0.327059
-0.288462
-0.280226
-0.272353
-0.224638
-0.191765
-0.158733
-0.115611
-0.0824435
-0.0690724
-0.0503394
-0.0314706
0.0573077
0.125701
0.178937
0.19233
0.230814
0.319027
0.4019
0.439276
0.476041
0.482421
0.508733
0.549729
0.570294
0.560385
0.570136
0.584502
0.548688
0.482805
0.441765
0.395091
0.317851
0.250158
0.207308
0.144457
0.116357
0.0329638
0.00452488
-0.0389367
-0.0772851
-0.0904977
-0.118575
-0.146493
-0.194208
-0.211787
-0.21905
-0.24086
-0.277308
-0.268462
-0.254434
-0.210317
-0.170679
-0.161018
-0.161312
-0.161538
-0.166765
-0.142014
-0.0972172
-0.087353
-0.0774887
-0.0776244
-0.132896
-0.128326
-0.108665
-0.098914
-0.104276
-0.109615
-0.095
-0.135498
-0.151109
-0.166719
-0.232398
-0.263348
-0.239412
-0.245566
-0.291765
-0.33819
-0.334729
-0.286652
-0.284434
-0.342376
-0.374299
-0.369457
-0.401561
-0.394593
-0.378326
-0.378778
-0.35776
-0.33319
-0.312986
-0.310317
-0.386765
-0.578665
-0.715973
-0.663122
-0.409638
0.0140045
0.74319
1.65276
2.52749
3.18222
3.46208
3.04213
1.94219
0.197217
-0.572828
-0.612738
-0.767489
-0.847172
-0.716448
-0.659796
-0.512624
-0.421041
-0.35095
-0.338462
-0.364819
-0.355249
-0.344253
-0.37543
-0.405656
-0.391516
-0.334525
-0.266674
-0.257964
-0.293643
-0.329027
-0.329593
-0.29052
-0.231516
-0.167466
-0.128462
-0.124593
-0.125611
-0.0865385
-0.00242085
0.0316063
0.0956561
0.124706
0.153597
0.172262
0.225543
0.308462
0.395928
0.413009
0.434819
0.516312
0.567602
0.568462
0.559163
0.569548
0.579729
0.559525
0.538959
0.5381
0.526833
0.450294
0.338552
0.231471
0.178937
0.131267
0.108507
0.00576922
-0.00701357
-0.04
-0.0930995
-0.131154
-0.144253
-0.157285
-0.210294
-0.233213
-0.24086
-0.238394
-0.235928
-0.263122
-0.284751
-0.266199
-0.272262
-0.273145
-0.248733
-0.219299
-0.199842
-0.180271
-0.155792
-0.121335
-0.111674
-0.106946
-0.0572624
-0.0676244
-0.102828
-0.112692
-0.107376
-0.10733
-0.107647
-0.118077
-0.143643
-0.179005
-0.189276
-0.20491
-0.245747
-0.281425
-0.302059
-0.312941
-0.304299
-0.31181
-0.365023
-0.392851
-0.389434
-0.389095
-0.380407
-0.357557
-0.345679
-0.345973
-0.355
-0.350679
-0.331154
-0.314412
-0.30095
-0.302624
-0.350045
-0.457624
-0.629525
-0.711109
-0.576968
-0.242489
0.377376
1.25735
2.18744
3.01753
3.52758
3.32744
2.37729
0.657353
-0.552308
-0.676742
-0.761154
-0.815769
-0.740249
-0.573982
-0.476855
-0.44957
-0.402986
-0.367986
-0.370905
-0.357579
-0.358054
-0.361561
-0.371493
-0.369729
-0.37819
-0.393778
-0.346991
-0.307896
-0.278032
-0.252557
-0.227398
-0.212715
-0.188145
-0.16862
-0.15414
-0.119796
-0.105656
-0.0265385
0.0324886
0.0764253
0.125317
0.17405
0.217421
0.275362
0.342738
0.384729
0.421425
0.463032
0.514027
0.569751
0.595158
0.585317
0.590385
0.600181
0.639706
0.628891
0.577828
0.551629
0.495271
0.42371
0.316855
0.284638
0.192172
0.14448
0.0916516
0.0438009
0.0209049
-0.0220815
-0.0700453
-0.0979412
-0.120769
-0.143575
-0.181267
-0.218597
-0.25086
-0.2781
-0.315294
-0.312082
-0.263507
-0.23457
-0.240385
-0.286131
-0.301878
-0.237466
-0.187873
-0.213371
-0.213869
-0.159299
-0.129638
-0.0647738
-0.0447964
-0.0750452
-0.0953167
-0.095543
-0.105747
-0.115973
-0.131199
-0.101493
-0.1019
-0.157511
-0.19819
-0.223846
-0.269683
-0.280634
-0.271629
-0.317828
-0.339502
-0.3569
-0.374751
-0.361968
-0.377602
-0.38543
-0.424344
-0.394072
-0.344909
-0.303235
-0.297353
-0.310769
-0.306855
-0.293258
-0.295068
-0.292172
-0.364502
-0.536448
-0.692579
-0.673394
-0.459163
-0.0745023
0.570475
1.39532
2.27014
3.02002
3.36502
3.04995
2.02011
0.305339
-0.204661
-0.664434
-0.753778
-0.802421
-0.715226
-0.587941
-0.481425
-0.421606
-0.414683
-0.401584
-0.357217
-0.355882
-0.370588
-0.383937
-0.382534
-0.364027
-0.35552
-0.366516
-0.341833
-0.301538
-0.276471
-0.271901
-0.232647
-0.178303
-0.133891
-0.124593
-0.135407
-0.0811991
-0.0270588
0.00219455
0.0414706
0.0704072
0.114163
0.167624
0.210588
0.273032
0.350407
0.397217
0.42871
0.459887
0.500837
0.541538
0.556855
0.566765
0.586561
0.591244
0.570543
0.539502
0.513054
0.47129
0.449208
0.361674
0.278824
0.196063
0.128326
0.0853846
0.0471493
-0.00131224
-0.059638
-0.0827602
-0.120928
-0.159095
-0.192104
-0.229864
-0.262172
-0.264299
-0.286176
-0.292828
-0.299072
-0.290136
-0.276154
-0.262127
-0.252805
-0.2331
-0.228145
-0.22319
-0.168529
-0.12905
-0.119367
-0.119367
-0.119389
-0.129299
-0.109253
-0.114615
-0.129955
-0.130272
-0.115566
-0.111154
-0.141878
-0.187624
-0.213281
-0.213778
-0.239547
-0.27552
-0.311493
-0.332511
-0.33862
-0.350272
-0.367738
-0.345611
-0.333122
-0.384457
-0.418959
-0.385588
-0.353575
-0.347511
-0.347964
-0.311878
-0.332081
-0.336561
-0.298688
-0.30319
-0.364819
-0.496855
-0.664005
-0.665724
-0.4869
-0.092715
0.561697
1.41609
2.27057
2.95036
3.25529
3.01038
2.00029
1.5802
-0.58448
-0.653416
-0.746674
-0.814819
-0.72371
-0.579095
-0.472398
-0.449253
-0.419389
-0.38224
-0.381312
-0.394276
-0.378167
-0.365
-0.379548
-0.351606
-0.332919
-0.318643
-0.274548
-0.260973
-0.272534
-0.23405
-0.205475
-0.181787
-0.173032
-0.134344
-0.0855656
-0.0366516
-0.0327828
-0.023914
0.0450226
0.0889141
0.14767
0.191199
0.239367
0.307262
0.384706
0.416855
0.443507
0.484774
0.505611
0.54129
0.576719
0.581765
0.566471
0.565724
0.584593
0.558077
0.521222
0.498982
0.411538
0.338801
0.245882
0.192805
0.169593
0.141244
0.102873
0.0145023
-0.0988235
-0.142059
-0.105204
-0.112986
-0.170407
-0.232489
-0.27448
-0.321109
-0.327534
-0.253552
-0.244367
-0.265023
-0.280407
-0.26052
-0.210407
-0.170317
-0.165294
-0.210317
-0.175158
-0.129955
-0.114887
-0.104977
-0.0801131
-0.0302941
-0.0206335
-0.0861312
-0.146538
-0.1919
-0.212443
-0.203235
-0.18405
-0.204819
-0.225747
-0.221923
-0.253077
-0.339208
-0.365317
-0.351335
-0.342353
-0.34371
-0.370701
-0.383258
-0.380724
-0.357285
-0.346923
-0.328394
-0.320905
-0.32457
-0.325091
-0.344231
-0.289434
-0.269163
-0.325656
-0.486878
-0.653507
-0.660588
-0.463009
-0.115045
0.528552
1.34781
2.12222
2.76167
3.03633
2.77615
1.92602
0.416448
-0.0622625
-0.575588
-0.714321
-0.804457
-0.717014
-0.568009
-0.487828
-0.435973
-0.426018
-0.435656
-0.432059
-0.382014
-0.360973
-0.37362
-0.350679
-0.327489
-0.334344
-0.341538
-0.339005
-0.311493
-0.268914
-0.226222
-0.208394
-0.220407
-0.187308
-0.164095
-0.105724
-0.102353
-0.0888688
-0.055181
0.00346152
0.071923
0.125317
0.18362
0.226606
0.284367
0.332059
0.379253
0.416063
0.447285
0.48819
0.53362
0.553801
0.563665
0.573032
0.55681
0.540272
0.513597
0.471493
0.403937
0.380995
0.297602
0.238891
0.165226
0.112014
0.0588688
-0.00457015
-0.0531674
-0.101833
-0.130204
-0.163167
-0.180882
-0.223416
-0.260475
-0.267081
-0.268529
-0.279593
-0.275498
-0.251199
-0.231652
-0.226991
-0.222014
-0.231742
-0.211516
-0.176448
-0.161335
-0.131131
-0.0909502
-0.0757013
-0.115769
-0.13638
-0.122127
-0.127715
-0.11319
-0.103642
-0.144389
-0.165294
-0.186222
-0.217262
-0.263394
-0.28448
-0.280588
-0.296719
-0.297873
-0.309163
-0.320249
-0.351335
-0.367624
-0.349321
-0.346697
-0.344231
-0.34095
-0.335792
-0.367421
-0.365181
-0.324321
-0.305633
-0.310724
-0.30681
-0.396765
-0.568575
-0.667534
-0.553824
-0.230747
0.311833
1.1098
1.96348
2.68247
3.13679
3.07129
2.37584
0.955724
-0.333439
-0.576833
-0.660385
-0.714887
-0.701109
-0.565317
-0.473348
-0.425272
-0.415226
-0.411493
-0.391041
-0.361041
-0.358597
-0.356968
-0.349796
-0.32681
-0.313552
-0.32086
-0.303258
-0.276063
-0.258824
-0.216584
-0.169231
-0.151674
-0.153891
-0.125996
-0.107964
-0.0648869
-0.0416516
0.0467421
0.0802262
0.118756
0.147353
0.170882
0.204231
0.277421
0.370339
0.417896
0.445158
0.50733
0.533959
0.520158
0.495837
0.491199
0.536063
0.555452
0.589412
0.572941
0.521109
0.468846
0.381403
0.308643
0.250475
0.227081
0.148529
0.134864
0.136154
0.0874434
-0.00608598
-0.139548
-0.252896
-0.26595
-0.223552
-0.215679
-0.257489
-0.273914
-0.285023
-0.24586
-0.211787
-0.207489
-0.227783
-0.242896
-0.24776
-0.207489
-0.182443
-0.172534
-0.122557
-0.0924887
-0.0875565
-0.0826697
-0.0928054
-0.1031
-0.108529
-0.114095
-0.104615
-0.125294
-0.196199
-0.212127
-0.182964
-0.163824
-0.229932
-0.296199
-0.332489
-0.358733
-0.344774
-0.340679
-0.381606
-0.377647
-0.374186
-0.381425
-0.384005
-0.386041
-0.366448
-0.359253
-0.358394
-0.323597
-0.32043
-0.320091
-0.310023
-0.358122
-0.507738
-0.658054
-0.639344
-0.411086
-0.0130995
0.635
1.46864
2.32778
3.02224
3.35188
3.01156
2.02127
0.361199
-0.533371
-0.632195
-0.755475
-0.813869
-0.678326
-0.630204
-0.490498
-0.444774
-0.407851
-0.393439
-0.414231
-0.422511
-0.409502
-0.394095
-0.366697
-0.368891
-0.360475
-0.331742
-0.318529
-0.320792
-0.2931
-0.265475
-0.242919
-0.205272
-0.162217
-0.158846
-0.155566
-0.112104
-0.068371
-0.0197511
0.00368779
0.0672398
0.11595
0.169593
0.223371
0.2819
0.349955
0.377738
0.410091
0.466923
0.513281
0.549434
0.564977
0.580226
0.605204
0.584842
0.573891
0.552466
0.475294
0.39276
0.320362
0.262896
0.205068
0.172081
0.123688
0.100317
0.0272625
-0.0506561
-0.0988461
-0.142195
-0.165566
-0.15871
-0.151448
-0.188778
-0.240701
-0.257421
-0.268778
-0.259661
-0.240271
-0.21086
-0.191493
-0.211991
-0.207376
-0.172647
-0.147715
-0.162489
-0.152081
-0.0914253
-0.0511086
-0.0811086
-0.096267
-0.111652
-0.137081
-0.152376
-0.137738
-0.128213
-0.148891
-0.174638
-0.180475
-0.216471
-0.247489
-0.258462
-0.274706
-0.300928
-0.326991
-0.333077
-0.329231
-0.310769
-0.343032
-0.375837
-0.363371
-0.359774
-0.369253
-0.345724
-0.348348
-0.347059
-0.347534
-0.321244
-0.276267
-0.275814
-0.37828
-0.545
-0.662059
-0.619276
-0.376357
0.147308
0.916176
1.82061
2.67518
3.26991
3.35973
2.81953
1.42437
-0.185633
-0.61043
-0.659751
-0.773371
-0.756448
-0.609819
-0.469389
-0.436538
-0.407285
-0.372262
-0.336086
-0.352217
-0.393054
-0.360679
-0.346154
-0.379729
-0.366991
-0.348824
-0.375113
-0.36138
-0.323032
-0.314955
-0.271787
-0.213665
-0.200385
-0.187059
-0.138665
-0.0850453
-0.0561991
0.00766967
0.0665158
0.135407
0.169299
0.212941
0.191606
0.250362
0.323643
0.341403
0.368756
0.410701
0.432217
0.513416
0.549321
0.515091
0.490385
0.530023
0.549231
0.54819
0.536787
0.470136
0.388348
0.346131
0.328484
0.250611
0.147511
0.0743665
0.0561538
0.0579412
0.0197964
0.00140271
-0.0471041
-0.165362
-0.248371
-0.261267
-0.298824
-0.29086
-0.287489
-0.28905
-0.265453
-0.241652
-0.267692
-0.293484
-0.264118
-0.214389
-0.204434
-0.18448
-0.14957
-0.124751
-0.129977
-0.0750452
-0.0550452
-0.100204
-0.11043
-0.100633
-0.0758145
-0.0709276
-0.101222
-0.141833
-0.162443
-0.1881
-0.203891
-0.219706
-0.225588
-0.246561
-0.307805
-0.359095
-0.350272
-0.261471
-0.21819
-0.245543
-0.338348
-0.430973
-0.462557
-0.456719
-0.432172
-0.398303
-0.37052
-0.345068
-0.329095
-0.320407
-0.327851
-0.357443
-0.438982
-0.600814
-0.718145
-0.630294
-0.356742
0.207421
1.02679
1.98629
2.85595
3.40088
3.37584
2.66568
1.08577
-0.39905
-0.64905
-0.698982
-0.798597
-0.742511
-0.610701
-0.498891
-0.468258
-0.404525
-0.378846
-0.37224
-0.369661
-0.379751
-0.400611
-0.383937
-0.371199
-0.365566
-0.337081
-0.298303
-0.308824
-0.344661
-0.311154
-0.272579
-0.249118
-0.210701
-0.167466
-0.124072
-0.100045
-0.0860407
-0.0473529
0.0262444
0.0800679
0.098914
0.162715
0.231516
0.275045
0.338077
0.385724
0.423167
0.465091
0.486471
0.522308
0.552873
0.558394
0.593756
0.623891
0.603665
0.572851
0.53129
0.464321
0.406923
0.354457
0.306742
0.253801
0.190928
0.128077
0.0549548
0.031448
-0.0423303
-0.115973
-0.144208
-0.14224
-0.160181
-0.183032
-0.230814
-0.263009
-0.254864
-0.266652
-0.278326
-0.279751
-0.275747
-0.266471
-0.22724
-0.212828
-0.198326
-0.178891
-0.154299
-0.14948
-0.139593
-0.0947511
-0.0750679
-0.0704298
-0.0757466
-0.065724
-0.0903167
-0.104977
-0.100271
-0.086086
-0.0969683
-0.147851
-0.198824
-0.209751
-0.205566
-0.231538
-0.26776
-0.309208
-0.340837
-0.337579
-0.324253
-0.331606
-0.359683
-0.372308
-0.368462
-0.377036
-0.366968
-0.347557
-0.344118
-0.333009
-0.316923
-0.313937
-0.307941
-0.303507
-0.310158
-0.366946
-0.55414
-0.706154
-0.672489
-0.408258
0.0511087
0.780656
1.69032
2.59011
3.225
3.44498
2.90993
1.62993
-0.0599773
-0.624796
-0.659502
-0.773846
-0.727511
-0.525566
-0.468507
-0.427081
-0.392262
-0.315158
-0.336719
-0.407172
-0.380882
-0.360995
-0.379977
-0.399005
-0.385181
-0.371946
-0.378122
-0.378439
-0.343326
-0.292986
-0.258439
-0.214186
-0.190045
-0.136018
-0.0868552
-0.0676471
-0.0636425
-0.0244796
0.0148643
0.0341177
0.123032
0.206629
0.270023
0.298258
0.361131
0.41362
0.425769
0.447579
0.484027
0.545023
0.635792
0.656131
0.575973
0.55043
0.564842
0.569118
0.548077
0.471629
0.414796
0.352715
0.31543
0.268009
0.195317
0.137308
0.114163
0.0310407
-0.0121267
-0.0253167
-0.0785068
-0.146561
-0.16948
-0.182308
-0.209887
-0.252217
-0.254299
-0.241131
-0.282624
-0.294004
-0.245226
-0.221357
-0.236923
-0.232308
-0.192715
-0.178009
-0.188145
-0.143213
-0.0884163
-0.0436651
-0.0190271
-0.0243439
-0.11957
-0.129729
-0.0848643
-0.0952036
-0.145633
-0.151018
-0.136516
-0.137104
-0.157692
-0.203303
-0.224027
-0.249932
-0.286041
-0.322308
-0.333597
-0.354864
-0.366312
-0.353529
-0.376448
-0.394186
-0.395724
-0.370158
-0.361109
-0.367805
-0.360498
-0.360339
-0.343959
-0.309706
-0.300973
-0.314751
-0.316086
-0.362534
-0.52957
-0.706516
-0.702489
-0.52819
-0.153846
0.480701
1.33077
2.23079
2.97054
3.29048
3.07538
2.05023
0.365113
-0.59457
-0.663846
-0.787579
-0.841086
-0.830385
-0.611425
-0.515294
-0.457376
-0.422602
-0.43043
-0.42448
-0.387059
-0.395475
-0.406629
-0.403914
-0.355792
-0.321652
-0.336878
-0.35233
-0.317919
-0.274072
-0.245249
-0.226584
-0.202986
-0.169208
-0.135158
-0.105814
-0.061448
0.0024208
0.0211538
0.0399321
0.093371
0.141584
0.199774
0.267851
0.305475
0.327738
0.389661
0.466109
0.507014
0.542692
0.568145
0.588394
0.608439
0.603213
0.577376
0.566131
0.554615
0.51776
0.465385
0.402873
0.335294
0.282353
0.229253
0.211244
0.0982805
0.0451584
-0.00309953
-0.081267
-0.129344
-0.142376
-0.140068
-0.16724
-0.183959
-0.225385
-0.241538
-0.242828
-0.253914
-0.234593
-0.225226
-0.230566
-0.215769
-0.190882
-0.18086
-0.185656
-0.165634
-0.125701
-0.090724
-0.0557692
-0.0459276
-0.0561312
-0.0713122
-0.0866063
-0.0820588
-0.0877149
-0.0883937
-0.0940498
-0.134661
-0.165271
-0.151063
-0.146991
-0.197941
-0.263959
-0.325
-0.356063
-0.357014
-0.367986
-0.354231
-0.331131
-0.348665
-0.356131
-0.32776
-0.337557
-0.369389
-0.367262
-0.356018
-0.341335
-0.285136
-0.259932
-0.269321
-0.346244
-0.427557
-0.559208
-0.616403
-0.413891
0.0137783
0.667534
1.41676
2.13124
2.75591
3.07052
2.76023
1.84045
0.271357
-0.547104
-0.620724
-0.760091
-0.821154
-0.715339
-0.668462
-0.495113
-0.454412
-0.424683
-0.403213
-0.416719
-0.417941
-0.39095
-0.373348
-0.340023
-0.331335
-0.323054
-0.240294
-0.207783
-0.275339
-0.302715
-0.26
-0.212014
-0.17905
-0.140882
-0.0723303
-0.0387557
-0.0650679
-0.0563122
-0.0176471
-0.00398188
0.0696833
0.143213
0.196652
0.249932
0.327941
0.360611
0.392805
0.434502
0.460792
0.49181
0.50767
0.527738
0.562217
0.581357
0.575181
0.553552
0.521606
0.459276
0.401674
0.358982
0.29095
0.222692
0.164253
0.115701
0.0921493
-0.0264254
-0.065
-0.0735068
-0.106719
-0.169502
-0.177059
-0.179253
-0.215905
-0.247172
-0.257964
-0.258371
-0.28362
-0.268891
-0.219186
-0.194389
-0.204253
-0.208846
-0.193416
-0.188077
-0.162828
-0.137557
-0.147308
-0.132308
-0.107602
-0.103077
-0.143665
-0.139321
-0.125113
-0.146018
-0.181923
-0.192941
-0.20414
-0.235272
-0.256448
-0.282647
-0.293733
-0.314751
-0.330905
-0.326991
-0.338032
-0.358959
-0.350181
-0.346674
-0.353552
-0.345566
-0.371629
-0.390747
-0.391878
-0.374593
-0.359231
-0.331425
-0.317149
-0.368982
-0.509683
-0.657285
-0.623439
-0.414661
-0.0116516
0.655679
1.50355
2.3121
2.93676
3.17656
2.80645
1.71652
0.137602
-0.540928
-0.649819
-0.769932
-0.792376
-0.693462
-0.573529
-0.481584
-0.436629
-0.436968
-0.404796
-0.436335
-0.411425
-0.394729
-0.40233
-0.364095
-0.351109
-0.338575
-0.296312
-0.274389
-0.277715
-0.270837
-0.258643
-0.231131
-0.203326
-0.175362
-0.127466
-0.0795023
-0.0362444
-0.022828
0.000520393
0.0687104
0.1519
0.185158
0.183394
0.241561
0.304638
0.397511
0.434955
0.441991
0.47871
0.515
0.555815
0.571131
0.591063
0.605701
0.599615
0.598032
0.556131
0.469005
0.411425
0.348575
0.265475
0.212217
0.138733
0.0600227
0.0113122
-0.00226241
-0.0156335
-0.033552
-0.116222
-0.178869
-0.191312
-0.213416
-0.225181
-0.216493
-0.207398
-0.203077
-0.203552
-0.223824
-0.228937
-0.214095
-0.19405
-0.15371
-0.128416
-0.118235
-0.0830543
-0.0679185
-0.067828
-0.097828
-0.1281
-0.143439
-0.113824
-0.0892986
-0.0899095
-0.135611
-0.151493
-0.172511
-0.21862
-0.244774
-0.250769
-0.251719
-0.25776
-0.263982
-0.230204
-0.146312
-0.15724
-0.223077
-0.289095
-0.335769
-0.373167
-0.435249
-0.406199
-0.315249
-0.321267
-0.408303
-0.456516
-0.4169
-0.376222
-0.36733
-0.588439
-0.671584
-0.567579
-0.28405
0.258891
1.06665
1.94991
2.68873
3.15801
3.1526
2.56719
1.21726
-0.162014
-0.525452
-0.643643
-0.763167
-0.679593
-0.61405
-0.557489
-0.459887
-0.410204
-0.401765
-0.416403
-0.445701
-0.462014
-0.420023
-0.372783
-0.354751
-0.376448
-0.383597
-0.336222
-0.284095
-0.2619
-0.239457
-0.2119
-0.199389
-0.196697
-0.178914
-0.140769
-0.102489
-0.0691629
-0.035724
0.0077828
0.0664706
0.110068
0.158575
0.207081
0.285611
0.354072
0.377036
0.419434
0.476516
0.533213
0.53448
0.555294
0.595611
0.595385
0.539593
0.508507
0.457262
0.425701
0.408507
0.355905
0.2931
0.220136
0.141787
0.0733484
0.00986424
-0.0236878
-0.0473077
-0.0808145
-0.11414
-0.157285
-0.210158
-0.222511
-0.234367
-0.245905
-0.247059
-0.267828
-0.268394
-0.233869
-0.229276
-0.239548
-0.234683
-0.199661
-0.189367
-0.169118
-0.128982
-0.103846
-0.0988462
-0.123846
-0.158824
-0.158801
-0.123733
-0.113756
-0.133756
-0.158439
-0.178348
-0.20371
-0.209593
-0.200792
-0.237127
-0.278891
-0.295611
-0.296719
-0.327489
-0.363597
-0.365113
-0.361674
-0.338371
-0.325068
-0.352285
-0.40457
-0.41138
-0.401923
-0.380136
-0.379434
-0.36448
-0.346131
-0.340611
-0.310226
-0.357647
-0.521177
-0.680815
-0.722059
-0.438801
0.0140045
0.692285
1.58104
2.49493
3.15919
3.42882
3.0086
1.83814
0.0976244
-0.607805
-0.637692
-0.766448
-0.779593
-0.637805
-0.522851
-0.450068
-0.405814
-0.390905
-0.399887
-0.411222
-0.412466
-0.384728
-0.379661
-0.373462
-0.375995
-0.363054
-0.33957
-0.336154
-0.298032
-0.255181
-0.237421
-0.244751
-0.226765
-0.153597
-0.110498
-0.0921493
-0.0635973
-0.0448869
0.00880091
0.0524887
0.101222
0.184932
0.243416
0.271606
0.32948
0.392262
0.424887
0.462217
0.47914
0.555588
0.586448
0.60681
0.6269
0.641629
0.59595
0.549977
0.523665
0.481991
0.404864
0.317308
0.254548
0.201629
0.128597
0.0804299
0.0271493
-0.0211538
-0.0695701
-0.0730769
-0.0865611
-0.149842
-0.187941
-0.180814
-0.203145
-0.220023
-0.246652
-0.258077
-0.259367
-0.275475
-0.261199
-0.231629
-0.216946
-0.17724
-0.142534
-0.092828
-0.0679412
-0.072828
-0.0377828
-0.0179412
-0.0631674
-0.148394
-0.168688
-0.139027
-0.104434
-0.0499095
-0.0552941
-0.170656
-0.241131
-0.241833
-0.23767
-0.208529
-0.264389
-0.320385
-0.331448
-0.342602
-0.318824
-0.285045
-0.286606
-0.318891
-0.331765
-0.344819
-0.366629
-0.386312
-0.417738
-0.375068
-0.333054
-0.337986
-0.326538
-0.261878
-0.257489
-0.29095
-0.372443
-0.579005
-0.701109
-0.713326
-0.319977
0.203846
1.03303
2.01256
2.89219
3.4369
3.42676
2.54674
0.941742
-0.378303
-0.623258
-0.698167
-0.787828
-0.731652
-0.610181
-0.508077
-0.441855
-0.37776
-0.376923
-0.360023
-0.337059
-0.367308
-0.373484
-0.367647
-0.37095
-0.351018
-0.317738
-0.30905
-0.309548
-0.269774
-0.245362
-0.251199
-0.227308
-0.20862
-0.174932
-0.136199
-0.0771267
-0.0279864
-0.0238461
0.0303394
0.104615
0.143552
0.192262
0.235792
0.289027
0.376787
0.41405
0.441063
0.467806
0.47905
0.505
0.545611
0.575792
0.585611
0.585226
0.574683
0.54371
0.512308
0.430701
0.353778
0.301606
0.229072
0.161199
0.118145
0.0650226
0.00690045
-0.0413575
-0.0748416
-0.098371
-0.126833
-0.175068
-0.217941
-0.24052
-0.237851
-0.240068
-0.24224
-0.259457
-0.286312
-0.272647
-0.25362
-0.249253
-0.239638
-0.240294
-0.241176
-0.216991
-0.202557
-0.182783
-0.158326
-0.139095
-0.114864
-0.110543
-0.0958145
-0.0806335
-0.0903168
-0.120113
-0.119955
-0.10991
-0.125181
-0.165701
-0.181471
-0.226991
-0.237398
-0.272783
-0.298416
-0.304186
-0.310181
-0.346561
-0.363213
-0.375588
-0.368462
-0.356448
-0.347896
-0.352081
-0.372398
-0.363213
-0.360113
-0.374163
-0.367692
-0.320271
-0.29543
-0.311357
-0.327896
-0.374593
-0.541742
-0.60862
-0.714729
-0.480249
0.00443441
0.714253
1.599
2.53887
3.28885
3.50876
3.08882
1.809
0.0390498
-0.660928
-0.705701
-0.805249
-0.809774
-0.703032
-0.59052
-0.468507
-0.392489
-0.358371
-0.357421
-0.365407
-0.361991
-0.356244
-0.360973
-0.378258
-0.354593
-0.348665
-0.330158
-0.301177
-0.266086
-0.235747
-0.23595
-0.221516
-0.177149
-0.152873
-0.123688
-0.0695023
-0.030181
0.0192081
0.0484615
0.0874887
0.151335
0.210045
0.263303
0.306109
0.363643
0.430747
0.472534
0.474163
0.490385
0.551199
0.616765
0.667149
0.687262
0.687059
0.631584
0.560701
0.53948
0.533054
0.476425
0.399683
0.297647
0.210136
0.162557
0.139887
0.0769457
0.0188461
-0.0042534
-0.0223077
-0.0754525
-0.123756
-0.111991
-0.120023
-0.13276
-0.165249
-0.232534
-0.299434
-0.330928
-0.337149
-0.338122
-0.323846
-0.274457
-0.239977
-0.22043
-0.240634
-0.235769
-0.260792
-0.21095
-0.131222
-0.0865158
-0.0367647
-0.0569683
-0.102172
-0.112353
-0.0975113
-0.0426018
-0.0176244
-0.0427376
-0.0580543
-0.0434389
-0.12905
-0.25491
-0.240792
-0.171516
-0.217353
-0.328258
-0.369231
-0.360588
-0.367715
-0.420023
-0.452851
-0.434683
-0.399299
-0.375656
-0.36767
-0.345407
-0.329819
-0.337986
-0.327805
-0.283348
-0.256855
-0.273484
-0.320339
-0.332602
-0.579932
-0.731787
-0.633032
-0.393665
0.0410181
0.770837
1.67566
2.52543
3.16038
3.26554
2.77563
1.53054
-0.0392534
-0.563507
-0.627489
-0.820385
-0.78871
-0.633167
-0.529728
-0.494706
-0.473371
-0.440339
-0.414389
-0.428507
-0.444525
-0.419344
-0.377783
-0.364502
-0.360701
-0.336199
-0.306403
-0.291923
-0.262851
-0.253959
-0.255045
-0.211267
-0.172557
-0.158778
-0.144661
-0.100294
-0.050724
-0.0312443
0.0228507
0.0816064
0.135204
0.183665
0.211765
0.264457
0.346674
0.378394
0.419751
0.485769
0.531199
0.531425
0.521652
0.566493
0.615747
0.619367
0.59776
0.551222
0.519955
0.478552
0.406267
0.328077
0.254638
0.166312
0.107715
0.0891177
0.0508371
-0.00726243
-0.0804072
-0.143778
-0.182014
-0.190249
-0.192941
-0.195045
-0.211946
-0.258575
-0.274955
-0.291131
-0.287195
-0.287896
-0.292873
-0.277692
-0.257647
-0.24233
-0.201674
-0.176267
-0.18138
-0.181448
-0.135792
-0.135339
-0.13552
-0.0959954
-0.0914932
-0.116968
-0.107715
-0.0935294
-0.0992534
-0.109977
-0.185769
-0.191584
-0.177421
-0.233462
-0.289593
-0.305882
-0.317308
-0.328688
-0.324729
-0.335792
-0.327014
-0.329299
-0.357059
-0.374321
-0.370475
-0.364344
-0.355023
-0.336538
-0.349005
-0.358575
-0.317647
-0.268824
-0.295679
-0.409706
-0.456086
-0.672805
-0.550543
-0.277986
0.180453
0.944389
1.79864
2.54799
3.03238
3.09692
2.44645
1.12131
-0.262738
-0.605905
-0.659366
-0.758054
-0.774502
-0.669005
-0.532466
-0.439706
-0.419842
-0.405882
-0.389819
-0.3531
-0.363891
-0.3669
-0.389389
-0.366109
-0.33267
-0.324615
-0.3069
-0.279299
-0.251674
-0.234027
-0.226267
-0.198213
-0.160113
-0.101855
-0.028371
-0.0347059
-0.0510633
0.0224435
0.106063
0.204819
0.273575
0.257195
0.190475
0.193439
0.326176
0.463484
0.490249
0.461584
0.522511
0.538009
0.51819
0.512964
0.542285
0.571177
0.544661
0.517715
0.445385
0.392783
0.389955
0.37681
0.298371
0.204842
0.166131
0.0973077
-0.0115837
-0.0254299
-0.0241855
-0.102805
-0.166131
-0.198937
-0.211403
-0.208643
-0.300611
-0.301991
-0.273077
-0.248959
-0.234389
-0.244638
-0.234864
-0.249887
-0.249751
-0.214457
-0.17914
-0.174163
-0.15905
-0.113778
-0.118733
-0.0888235
-0.0241177
-0.00957016
-0.100045
-0.140543
-0.116199
-0.127014
-0.172896
-0.183846
-0.190045
-0.261357
-0.237624
-0.253733
-0.299864
-0.306312
-0.312805
-0.338846
-0.329683
-0.315701
-0.322149
-0.313688
-0.286222
-0.3231
-0.363643
-0.367081
-0.391968
-0.372986
-0.325611
-0.30586
-0.285679
-0.353484
-0.557285
-0.712217
-0.63871
-0.59052
0.0371719
0.734819
1.61799
2.47686
3.12118
3.31563
2.8902
1.67484
0.0301131
-0.573824
-0.647217
-0.771109
-0.791199
-0.658416
-0.531471
-0.466267
-0.439683
-0.435543
-0.426606
-0.424774
-0.411629
-0.406357
-0.389118
-0.381312
-0.372805
-0.349389
-0.326357
-0.303552
-0.295611
-0.282557
-0.249729
-0.207308
-0.195
-0.167308
-0.11914
-0.0907918
-0.0824887
-0.0389819
0.0194796
0.077828
0.126154
0.154366
0.187489
0.250362
0.332919
0.395
0.446652
0.503416
0.525023
0.531018
0.556719
0.587647
0.603054
0.587443
0.58138
0.570136
0.518371
0.441199
0.388869
0.331267
0.268529
0.180158
0.111471
0.0627375
-0.000927605
-0.039457
-0.0728507
-0.11129
-0.135
-0.178552
-0.196584
-0.199231
-0.236561
-0.258326
-0.264434
-0.290294
-0.260814
-0.235769
-0.24052
-0.230656
-0.205837
-0.160837
-0.145792
-0.155769
-0.11586
-0.0860633
-0.0911538
-0.120882
-0.10586
-0.0611086
-0.0762443
-0.151471
-0.161855
-0.157262
-0.177828
-0.203507
-0.19905
-0.219548
-0.240362
-0.246538
-0.267986
-0.269683
-0.271244
-0.312489
-0.343597
-0.33457
-0.335905
-0.3681
-0.370995
-0.35871
-0.351131
-0.35543
-0.356335
-0.35819
-0.341109
-0.32095
-0.29991
-0.270679
-0.356878
-0.540543
-0.667104
-0.583982
-0.301199
0.196584
0.384977
1.88891
2.71328
3.27778
3.33731
2.70192
1.3317
-0.208394
-0.588281
-0.642398
-0.805724
-0.804004
-0.648167
-0.519185
-0.458394
-0.423756
-0.406176
-0.401787
-0.393303
-0.362828
-0.341923
-0.358054
-0.375543
-0.357919
-0.329547
-0.32086
-0.317443
-0.259434
-0.206742
-0.174186
-0.126403
-0.0883031
-0.0399547
-0.0613574
-0.0326923
0.0309955
0.00975118
-0.0714027
-0.0174886
0.106312
0.2
0.248643
0.292172
0.325294
0.332964
0.385339
0.422353
0.474027
0.545226
0.58595
0.596244
0.581041
0.540498
0.559638
0.603416
0.5669
0.484955
0.432579
0.364977
0.252149
0.148982
0.0854978
0.03681
-0.0267873
-0.0603393
-0.0689593
-0.102579
-0.121063
-0.144231
-0.187127
-0.174887
-0.157285
-0.254186
-0.310724
-0.272059
-0.258009
-0.288552
-0.274005
-0.264661
-0.250249
-0.200611
-0.180882
-0.20095
-0.180882
-0.145973
-0.106086
-0.0511312
-0.0261538
-0.046086
-0.0809955
-0.106109
-0.131538
-0.131968
-0.152443
-0.15319
-0.11905
-0.134932
-0.195814
-0.246787
-0.257783
-0.268982
-0.305317
-0.306765
-0.333122
-0.349253
-0.345882
-0.313416
-0.321425
-0.373959
-0.395158
-0.393959
-0.381765
-0.392647
-0.369683
-0.339095
-0.318235
-0.325068
-0.328032
-0.367851
-0.524344
-0.696086
-0.703552
-0.490973
-0.0626244
0.661312
0.920566
2.49005
3.22455
3.46414
3.03391
1.85873
0.14362
-0.636697
-0.657172
-0.782172
-0.796244
-0.679548
-0.542579
-0.445905
-0.385656
-0.375928
-0.372081
-0.377466
-0.396312
-0.372149
-0.371855
-0.391946
-0.389457
-0.372489
-0.32957
-0.315634
-0.306086
-0.286878
-0.243122
-0.214683
-0.196561
-0.168371
-0.150023
-0.126516
-0.0828281
-0.0289593
0.0249774
0.0688009
0.112624
0.161606
0.210769
0.269796
0.353281
0.406312
0.424005
0.481109
0.54767
0.568846
0.579548
0.594706
0.604548
0.614253
0.608643
0.582715
0.536425
0.494864
0.453235
0.371448
0.284095
0.206403
0.133439
0.0851358
0.0466742
0.013258
-0.0153619
-0.0639819
-0.107172
-0.180226
-0.208484
-0.196719
-0.214683
-0.237217
-0.264163
-0.285724
-0.292059
-0.288348
-0.249525
-0.240362
-0.230837
-0.20129
-0.176787
-0.157036
-0.147127
-0.13233
-0.132579
-0.0978054
-0.0630769
-0.033552
-0.0489819
-0.0842986
-0.0696154
-0.0549321
-0.075181
-0.0952715
-0.105475
-0.136018
-0.166629
-0.1919
-0.217353
-0.233032
-0.233869
-0.274774
-0.290814
-0.316833
-0.328077
-0.330204
-0.338145
-0.351086
-0.368009
-0.367964
-0.369706
-0.375249
-0.338552
-0.323371
-0.321991
-0.272511
-0.2481
-0.21638
-0.203077
-0.294728
-0.476878
-0.644163
-0.705995
-0.587036
-0.222534
-0.0778054
1.26692
2.23676
3.04661
3.46147
3.23654
2.27672
0.576833
-0.498077
-0.657941
-0.762647
-0.807217
-0.686403
-0.544864
-0.442557
-0.365023
-0.328597
-0.328959
-0.317579
-0.295136
-0.30629
-0.325158
-0.329887
-0.38233
-0.404502
-0.398891
-0.399909
-0.355385
-0.299932
-0.284186
-0.259027
-0.234163
-0.204276
-0.139615
-0.0750679
-0.0305882
-0.0011991
0.0431674
0.102376
0.166335
0.190068
0.223733
0.282149
0.315181
0.337783
0.439932
0.531584
0.537896
0.543937
0.599729
0.615475
0.570973
0.561086
0.585679
0.600023
0.574253
0.518235
0.441968
0.380249
0.308054
0.260701
0.20819
0.105611
0.0229412
-0.00495473
0.00219458
-0.0208371
-0.0739819
-0.112172
-0.155158
-0.173122
-0.175973
-0.168643
-0.180905
-0.233032
-0.249977
-0.246629
-0.228032
-0.269186
-0.295068
-0.240747
-0.226312
-0.291742
-0.272104
-0.212489
-0.162851
-0.143077
-0.133348
-0.148462
-0.138665
-0.0989366
-0.0891403
-0.0943665
-0.104661
-0.109955
-0.0952036
-0.10052
-0.131086
-0.166674
-0.192195
-0.202783
-0.258303
-0.273869
-0.29948
-0.330272
-0.346312
-0.332964
-0.320452
-0.363326
-0.390701
-0.381267
-0.371131
-0.379796
-0.363937
-0.359253
-0.347647
-0.342104
-0.325905
-0.312398
-0.308688
-0.305656
-0.328054
-0.410588
-0.557466
-0.688507
-0.713778
-0.45371
-0.0335747
0.701674
1.59208
2.42735
3.07742
3.31769
2.85308
1.72824
0.0533258
-0.646561
-0.710928
-0.834434
-0.847624
-0.70086
-0.581041
-0.523982
-0.460633
-0.435475
-0.417692
-0.401041
-0.398507
-0.376629
-0.347421
-0.33905
-0.360249
-0.340656
-0.330475
-0.315769
-0.286629
-0.242466
-0.207873
-0.178303
-0.149027
-0.159796
-0.145611
-0.0965837
-0.0474661
-0.0132127
0.0311086
0.0749547
0.113303
0.191403
0.279389
0.312036
0.354366
0.411312
0.442602
0.503348
0.523959
0.58948
0.634819
0.654729
0.624208
0.618303
0.627195
0.621018
0.559638
0.512828
0.435498
0.382873
0.340158
0.262443
0.179434
0.121244
0.0629412
-0.000384636
-0.0440272
-0.0675339
-0.0908145
-0.123937
-0.156765
-0.209118
-0.215995
-0.212489
-0.228665
-0.229548
-0.225271
-0.240882
-0.251109
-0.24086
-0.19543
-0.165113
-0.17991
-0.179683
-0.159412
-0.134344
-0.094276
-0.0392308
-0.0742987
-0.119525
-0.0997285
-0.0748416
-0.0651131
-0.100611
-0.111041
-0.136538
-0.167217
-0.202986
-0.213937
-0.205068
-0.206312
-0.207421
-0.223348
-0.234276
-0.245226
-0.261267
-0.28767
-0.334661
-0.407127
-0.409548
-0.390724
-0.415045
-0.430882
-0.362624
-0.305452
-0.340339
-0.339118
-0.31491
-0.305679
-0.304027
-0.425656
-0.577624
-0.600091
-0.582489
-0.134276
0.494457
1.33853
2.10301
2.68751
2.97708
2.80692
1.88697
0.322692
-0.535611
-0.608643
-0.752579
-0.82819
-0.696742
-0.556335
-0.471991
-0.490407
-0.495045
-0.438597
-0.382986
-0.360385
-0.368348
-0.39586
-0.397692
-0.394186
-0.310837
-0.252805
-0.270045
-0.302285
-0.294344
-0.266425
-0.228371
-0.180158
-0.136923
-0.128439
-0.0949095
-0.0710633
-0.0219457
0.0422172
0.0912444
0.125068
0.143643
0.202104
0.290249
0.35819
0.410656
0.437715
0.459548
0.485905
0.501697
0.582014
0.6019
0.606222
0.595023
0.603575
0.616923
0.56991
0.472511
0.349638
0.271584
0.238371
0.179955
0.136448
0.0978281
0.00411766
-0.0895927
-0.138258
-0.146652
-0.159706
-0.192511
-0.215023
-0.227104
-0.243801
-0.265136
-0.270973
-0.251674
-0.242285
-0.247602
-0.252851
-0.227919
-0.232873
-0.20776
-0.182511
-0.15724
-0.127149
-0.0921719
-0.0772172
-0.10224
-0.132443
-0.127783
-0.117805
-0.11776
-0.117941
-0.133394
-0.159163
-0.195385
-0.211855
-0.203326
-0.239864
-0.256471
-0.287873
-0.28905
-0.295362
-0.316652
-0.343009
-0.344457
-0.320588
-0.312081
-0.329186
-0.361335
-0.353326
-0.34819
-0.360204
-0.373348
-0.332986
-0.30457
-0.319932
-0.336154
-0.44638
-0.628756
-0.685181
-0.511787
-0.128801
0.523801
0.761878
2.1255
2.77446
3.07337
2.85744
1.96231
0.403394
-0.564864
-0.618552
-0.72362
-0.770837
-0.701539
-0.600815
-0.518575
-0.458937
-0.429977
-0.408484
-0.406109
-0.386765
-0.360045
-0.352579
-0.339457
-0.341448
-0.353982
-0.341674
-0.339457
-0.297489
-0.230498
-0.208348
-0.195769
-0.192896
-0.16
-0.116968
-0.103846
-0.0706109
-0.0223756
0.0308823
0.0745022
0.143032
0.221312
0.259457
0.287647
0.340701
0.398439
0.455679
0.492308
0.533326
0.563937
0.584344
0.614593
0.619389
0.608416
0.606674
0.589457
0.542059
0.469276
0.401154
0.322941
0.259706
0.21629
0.157624
0.0888914
0.0202715
-0.0285068
-0.022353
-0.0561539
-0.119231
-0.147149
-0.204683
-0.241719
-0.238371
-0.224615
-0.210543
-0.216131
-0.176561
-0.1619
-0.242036
-0.267059
-0.232014
-0.196923
-0.171855
-0.141742
-0.0866742
-0.066629
-0.0765385
-0.0816516
-0.0668552
-0.0723303
-0.0928959
-0.113529
-0.089276
-0.0701131
-0.141086
-0.182104
-0.198167
-0.209412
-0.225837
-0.247127
-0.248281
-0.259434
-0.270679
-0.361855
-0.342919
-0.32405
-0.360317
-0.347081
-0.314502
-0.351946
-0.408462
-0.398235
-0.365023
-0.335656
-0.305113
-0.286516
-0.296516
-0.387466
-0.582444
-0.699525
-0.61595
-0.342557
0.125407
0.893213
1.76136
2.58505
3.13903
3.25324
2.69774
1.42256
-0.0820815
-0.560747
-0.683891
-0.822511
-0.767557
-0.630113
-0.556674
-0.487557
-0.402081
-0.393575
-0.429683
-0.4819
-0.472421
-0.411244
-0.388982
-0.381312
-0.3831
-0.355023
-0.342376
-0.34
-0.29776
-0.235453
-0.212738
-0.209909
-0.162127
-0.13414
-0.116041
-0.0977828
-0.0343665
0.0292308
0.0229638
0.0216742
0.0903394
0.173937
0.257421
0.320769
0.358937
0.436923
0.484457
0.486493
0.483032
0.509163
0.544977
0.555249
0.550045
0.594434
0.603394
0.587081
0.450407
0.408258
0.345724
0.257715
0.194299
0.130769
0.0922172
0.0285294
-0.0352263
-0.0887557
-0.132262
-0.150996
-0.169638
-0.182919
-0.195973
-0.233597
-0.260611
-0.272014
-0.272964
-0.26362
-0.259027
-0.229253
-0.209367
-0.199389
-0.194412
-0.199276
-0.169027
-0.133914
-0.113824
-0.0889819
-0.0792534
-0.0993665
-0.124253
-0.138959
-0.138801
-0.123937
-0.134751
-0.150588
-0.151425
-0.162466
-0.203439
-0.25448
-0.285815
-0.287353
-0.293846
-0.310407
-0.311855
-0.337964
-0.348891
-0.35491
-0.361606
-0.354253
-0.367217
-0.384638
-0.395769
-0.404615
-0.399593
-0.400407
-0.35767
-0.31767
-0.321946
-0.343597
-0.446154
-0.640317
-0.731539
-0.623235
-0.300656
0.247036
1.11529
2.07887
2.88269
3.35695
3.33645
2.49627
2.13111
-0.454118
-0.664027
-0.713281
-0.82181
-0.760226
-0.619208
-0.50991
-0.443462
-0.400769
-0.426946
-0.431493
-0.412783
-0.422828
-0.402941
-0.390996
-0.388756
-0.385814
-0.382149
-0.353258
-0.309887
-0.2869
-0.269027
-0.235973
-0.207692
-0.209321
-0.175814
-0.127398
-0.0890045
-0.0554751
-0.0217421
0.0470815
0.090724
0.11914
0.17267
0.246199
0.299864
0.348077
0.410905
0.46319
0.520023
0.55138
0.572308
0.617896
0.6281
0.617828
0.627036
0.595814
0.549457
0.502873
0.485995
0.413869
0.306357
0.223507
0.14043
0.0621719
-0.00110861
-0.0295249
-0.063009
-0.106493
-0.129977
-0.143326
-0.151561
-0.194548
-0.232172
-0.194615
-0.181403
-0.232805
-0.304027
-0.345113
-0.325995
-0.271719
-0.212217
-0.187466
-0.167511
-0.157489
-0.157511
-0.107624
-0.0777828
-0.0879412
-0.0880543
-0.04319
-0.043371
-0.0985294
-0.133688
-0.138846
-0.0941403
-0.0895928
-0.140136
-0.175837
-0.186584
-0.222217
-0.308032
-0.358959
-0.320045
-0.266063
-0.312195
-0.34371
-0.31543
-0.362511
-0.390339
-0.413462
-0.395973
-0.367014
-0.350611
-0.335158
-0.300226
-0.281471
-0.29543
-0.36948
-0.402308
-0.356561
-0.367285
-0.493891
-0.650815
-0.683258
-0.535271
-0.146674
0.482376
1.35172
2.26634
3.03095
3.41566
3.18552
2.12048
1.68054
-0.579344
-0.674186
-0.774005
-0.833778
-0.7231
-0.571471
-0.464231
-0.422172
-0.411267
-0.39767
-0.35776
-0.302014
-0.310204
-0.360837
-0.396833
-0.393801
-0.348326
-0.300928
-0.277127
-0.262896
-0.302828
-0.332738
-0.283122
-0.218778
-0.199593
-0.150339
-0.11095
-0.0665611
-0.0371493
0.0121946
0.081448
0.140611
0.159683
0.198643
0.25724
0.305747
0.358891
0.41138
0.453394
0.495
0.511109
0.546719
0.592081
0.612262
0.622217
0.596855
0.566222
0.540475
0.494434
0.473009
0.351493
0.274683
0.21233
0.15448
0.0911991
0.0527602
0.014276
-0.0541403
-0.117466
-0.135792
-0.139186
-0.162557
-0.205452
-0.237941
-0.250385
-0.252919
-0.260023
-0.266538
-0.292828
-0.304163
-0.280498
-0.251471
-0.222172
-0.197896
-0.203416
-0.238507
-0.208597
-0.183959
-0.159367
-0.144683
-0.0946606
-0.0297511
-0.0199321
-0.0500452
-0.0803394
-0.105566
-0.130995
-0.131403
-0.121493
-0.146471
-0.171584
-0.211719
-0.242014
-0.242602
-0.248597
-0.29991
-0.351222
-0.367489
-0.349276
-0.346765
-0.384412
-0.381425
-0.371765
-0.364344
-0.367941
-0.372376
-0.368303
-0.352376
-0.35233
-0.336991
-0.318484
-0.329955
-0.336787
-0.34905
-0.426538
-0.598348
-0.714548
-0.660068
-0.375385
0.159321
0.969118
1.91916
2.83462
3.41007
3.52014
2.65971
1.07943
-0.410204
-0.694412
-0.738688
-0.852986
-0.80733
-0.656629
-0.535158
-0.447805
-0.405701
-0.404502
-0.384864
-0.348077
-0.327308
-0.327919
-0.311063
-0.334751
-0.366131
-0.336674
-0.329751
-0.315091
-0.270045
-0.239186
-0.223281
-0.18276
-0.127692
-0.0928054
-0.0780769
-0.0635294
-0.00918552
0.0450679
0.0693665
0.0986878
0.152715
0.216538
0.299774
0.372579
0.414955
0.472059
0.528733
0.595204
0.641471
0.647376
0.667896
0.693213
0.688371
0.633258
0.572873
0.552217
0.571267
0.520068
0.38871
0.282149
0.255249
0.247986
0.210611
0.15319
0.105633
0.0230543
-0.0846154
-0.122579
-0.150566
-0.193552
-0.176448
-0.199367
-0.221923
-0.23405
-0.221018
-0.227873
-0.269502
-0.246041
-0.232353
-0.273258
-0.283801
-0.244231
-0.21457
-0.174887
-0.140204
-0.140362
-0.115543
-0.0808145
-0.100973
-0.111063
-0.110995
-0.10586
-0.0959276
-0.0760633
-0.0561765
-0.0662444
-0.0714932
-0.0819231
-0.107421
-0.142873
-0.168348
-0.203914
-0.259548
-0.275362
-0.281516
-0.292738
-0.334072
-0.321109
-0.368891
-0.376516
-0.372805
-0.376765
-0.3819
-0.397534
-0.378959
-0.312534
-0.20543
-0.212172
-0.296018
-0.346538
-0.313326
-0.300249
-0.337624
-0.384729
-0.511131
-0.646991
-0.577421
-0.332602
0.0471493
0.716968
0.967014
2.42215
3.04724
3.22249
2.72772
1.47285
-0.121765
-0.681041
-0.714751
-0.842647
-0.810362
-0.683846
-0.56905
-0.497014
-0.423439
-0.370905
-0.328394
-0.346878
-0.398824
-0.436335
-0.416629
-0.388122
-0.374095
-0.349208
-0.308756
-0.298484
-0.258507
-0.24362
-0.228733
-0.208982
-0.179434
-0.144955
-0.105385
-0.0608597
-0.0366063
-0.00257918
0.0562896
0.114887
0.147986
0.190656
0.242941
0.315294
0.367534
0.409502
0.471018
0.502172
0.517896
0.547941
0.582851
0.60767
0.611787
0.630656
0.599434
0.567964
0.541199
0.484276
0.402149
0.354638
0.276991
0.184186
0.110905
0.0573982
0.00909503
-0.039095
-0.0723303
-0.11052
-0.113416
-0.145769
-0.222828
-0.254909
-0.271946
-0.283575
-0.274661
-0.255385
-0.25086
-0.256086
-0.226063
-0.200769
-0.19543
-0.20509
-0.214977
-0.189955
-0.164774
-0.134502
-0.064276
-0.0591855
-0.109231
-0.12457
-0.0748642
-0.0553393
-0.0658597
-0.0464479
-0.0822172
-0.128303
-0.144389
-0.200136
-0.240792
-0.251471
-0.262376
-0.278529
-0.284751
-0.300769
-0.316674
-0.332805
-0.339276
-0.341267
-0.353597
-0.370362
-0.356131
-0.350226
-0.356063
-0.345611
-0.313462
-0.303461
-0.292647
-0.279027
-0.291131
-0.360475
-0.477466
-0.619661
-0.637376
-0.459932
-0.0469004
0.611878
1.40622
1.64593
2.76577
3.0357
2.74554
1.78543
0.215815
-0.572919
-0.626244
-0.735272
-0.791177
-0.715136
-0.603077
-0.539661
-0.489118
-0.429502
-0.394796
-0.368394
-0.364593
-0.357511
-0.349955
-0.356697
-0.338054
-0.254593
-0.191448
-0.223643
-0.241018
-0.278348
-0.25543
-0.227353
-0.179186
-0.140769
-0.122195
-0.0735747
-0.0749548
-0.0761991
0.0426923
0.121471
0.125204
0.163733
0.222014
0.275136
0.317986
0.365317
0.422262
0.473665
0.53948
0.579955
0.575068
0.579728
0.629027
0.652941
0.586312
0.489457
0.45733
0.439728
0.416629
0.323303
0.204774
0.131041
0.0922625
0.053552
-0.0151357
-0.0837104
-0.10724
-0.135611
-0.123937
-0.131765
-0.204186
-0.281109
-0.287511
-0.263439
-0.244344
-0.220226
-0.215814
-0.22095
-0.215905
-0.195815
-0.160362
-0.0998643
-0.12457
-0.194321
-0.164299
-0.0693665
-0.0394344
-0.0745928
-0.109977
-0.12052
-0.131131
-0.116765
-0.0875791
-0.0985068
-0.15948
-0.21552
-0.191697
-0.182828
-0.233959
-0.270158
-0.296312
-0.30233
-0.308416
-0.319434
-0.310317
-0.306312
-0.282602
-0.274366
-0.291629
-0.298824
-0.305068
-0.354231
-0.400294
-0.392851
-0.354457
-0.305995
-0.276222
-0.312624
-0.443326
-0.616063
-0.682285
-0.518869
-0.0860407
0.621629
1.50466
2.34321
2.98704
3.20122
3.19593
1.74131
0.137647
-0.550747
-0.614774
-0.750339
-0.80862
-0.720611
-0.606312
-0.515158
-0.451041
-0.42629
-0.42276
-0.41181
-0.390611
-0.383507
-0.385656
-0.377421
-0.344502
-0.337262
-0.340452
-0.308348
-0.276041
-0.258846
-0.231584
-0.219163
-0.211584
-0.173869
-0.13095
-0.0829185
-0.04
-0.0321493
0.00101813
0.0594344
0.0978055
0.156131
0.244638
0.298054
0.33086
0.363235
0.44552
0.482557
0.518756
0.574367
0.604796
0.594887
0.584502
0.588529
0.6019
0.56991
0.547602
0.425181
0.357443
0.269163
0.18052
0.141923
0.138281
0.0795475
-0.00425337
-0.0582579
-0.0818778
-0.104887
-0.167579
-0.214864
-0.216538
-0.22319
-0.229909
-0.25138
-0.262036
-0.252036
-0.2169
-0.186991
-0.187217
-0.197262
-0.172059
-0.151629
-0.141109
-0.135656
-0.120271
-0.114819
-0.109638
-0.104819
-0.110113
-0.120611
-0.111131
-0.131697
-0.162398
-0.158371
-0.164638
-0.175973
-0.207285
-0.238348
-0.269457
-0.315814
-0.342285
-0.323371
-0.294321
-0.295317
-0.316131
-0.346923
-0.357873
-0.374186
-0.396131
-0.373416
-0.355181
-0.374683
-0.370611
-0.357443
-0.330453
-0.330679
-0.355
-0.439389
-0.605249
-0.658281
-0.51457
-0.171199
0.416833
1.24966
2.14785
2.90158
3.31581
3.15536
2.28034
0.661244
-0.471991
-0.625475
-0.755181
-0.827262
-0.717851
-0.582511
-0.506154
-0.472715
-0.459434
-0.448281
-0.43543
-0.415136
-0.397919
-0.385588
-0.382579
-0.349615
-0.271606
-0.189321
-0.21733
-0.275385
-0.258303
-0.196086
-0.208688
-0.251041
-0.208213
-0.140226
-0.132149
-0.0937557
0.00479637
0.0233937
-0.00296379
0.0407014
0.114276
0.182805
0.266267
0.329661
0.377805
0.420747
0.487986
0.539706
0.545769
0.531358
0.566629
0.606516
0.64586
0.694751
0.603281
0.471425
0.419231
0.361606
0.283552
0.250407
0.192104
0.163665
0.0750905
-0.0435068
-0.112081
-0.100452
-0.0834841
-0.13638
-0.17905
-0.201244
-0.233054
-0.279412
-0.320452
-0.311335
-0.242149
-0.212466
-0.222534
-0.202511
-0.202398
-0.197149
-0.1769
-0.106652
-0.0363348
0.00400453
0.00936652
-0.0603846
-0.0552262
-0.00522622
-0.0305656
-0.166267
-0.197036
-0.157534
-0.162986
-0.153756
-0.169819
-0.231018
-0.267398
-0.258891
-0.210249
-0.276493
-0.357579
-0.378778
-0.385068
-0.356086
-0.341991
-0.332986
-0.359344
-0.38138
-0.353665
-0.345339
-0.405272
-0.412308
-0.39043
-0.374548
-0.365272
-0.339005
-0.378371
-0.556697
-0.727398
-0.65319
-0.379548
0.138484
0.916086
1.84421
2.72801
3.36717
3.43149
2.82595
1.36088
-0.258439
-0.672036
-0.690566
-0.804887
-0.75586
-0.724864
-0.53267
-0.474344
-0.449412
-0.441131
-0.451041
-0.445837
-0.417828
-0.406063
-0.409027
-0.396154
-0.382919
-0.379932
-0.352104
-0.304502
-0.277104
-0.264932
-0.262511
-0.239774
-0.20681
-0.178801
-0.150679
-0.112466
-0.0589593
0.004819
0.0283031
0.0666063
0.155204
0.223891
0.247443
0.281222
0.349955
0.407941
0.445249
0.497285
0.51905
0.550633
0.576742
0.587262
0.5819
0.585882
0.574457
0.527896
0.496109
0.433869
0.351403
0.28371
0.19052
0.12181
0.0978733
0.0841629
-0.0243213
-0.0778733
-0.106629
-0.140317
-0.163529
-0.186041
-0.217941
-0.229208
-0.240136
-0.25586
-0.261312
-0.271674
-0.266742
-0.236357
-0.181018
-0.146041
-0.176154
-0.186018
-0.135837
-0.100566
-0.0802262
-0.055
-0.0498869
-0.054819
-0.0594797
-0.114389
-0.089819
-0.0653846
-0.110973
-0.151652
-0.172398
-0.193281
-0.219118
-0.219796
-0.210701
-0.251878
-0.303484
-0.335181
-0.321471
-0.317557
-0.343303
-0.364253
-0.36552
-0.357421
-0.369977
-0.402172
-0.39819
-0.371674
-0.366516
-0.362014
-0.338281
-0.306584
-0.289661
-0.355453
-0.492851
-0.632489
-0.634005
-0.450588
-0.0877828
0.610294
1.52362
2.45781
3.17724
3.48176
3.09643
2.02622
0.286063
-0.588597
-0.607443
-0.725679
-0.799005
-0.708213
-0.579344
-0.518281
-0.510973
-0.432489
-0.431946
-0.452557
-0.43638
-0.394842
-0.37552
-0.353054
-0.350181
-0.356538
-0.282534
-0.253846
-0.280452
-0.25724
-0.184072
-0.180882
-0.257647
-0.219163
-0.115588
-0.106991
-0.118032
-0.10405
-0.0499547
0.0592534
0.173348
0.207149
0.235814
0.284457
0.357941
0.411177
0.423937
0.456177
0.538145
0.609548
0.62043
0.581086
0.601538
0.646335
0.680611
0.684457
0.578077
0.426403
0.309367
0.236878
0.229072
0.221041
0.162873
0.0695928
0.00624435
-0.0471267
-0.0654072
-0.123462
-0.136335
-0.15414
-0.17181
-0.184005
-0.215747
-0.252104
-0.262941
-0.243484
-0.254027
-0.264321
-0.229593
-0.219547
-0.219118
-0.168801
-0.138552
-0.0984615
-0.133303
-0.1881
-0.107896
-0.037466
-0.00210405
0.00780544
-0.067647
-0.108054
-0.188439
-0.133869
-0.119389
-0.170068
-0.200928
-0.206991
-0.19319
-0.234344
-0.260498
-0.291606
-0.342557
-0.358484
-0.344389
-0.350294
-0.356538
-0.378778
-0.381606
-0.38905
-0.370204
-0.37948
-0.395475
-0.377308
-0.35
-0.314299
-0.302014
-0.311471
-0.295792
-0.372919
-0.544004
-0.685249
-0.656991
-0.45405
-0.0308371
0.612919
1.48695
2.35613
3.01566
3.26998
2.89453
1.73939
0.0455204
-0.622783
-0.676425
-0.796516
-0.819072
-0.734796
-0.64414
-0.53181
-0.471403
-0.470294
-0.461063
-0.455634
-0.419231
-0.386177
-0.412873
-0.394231
-0.385995
-0.382986
-0.344932
-0.281878
-0.243937
-0.245905
-0.252851
-0.224548
-0.176018
-0.137715
-0.139367
-0.100634
-0.0466742
-0.0128055
0.0258371
0.0693665
0.138122
0.212149
0.235973
0.283982
0.346267
0.418235
0.480068
0.521584
0.53767
0.558326
0.563394
0.573145
0.582579
0.586742
0.580385
0.53371
0.491629
0.434389
0.3669
0.299185
0.206063
0.142851
0.134796
0.0714932
0.00791852
-0.0403846
-0.103416
-0.126267
-0.153665
-0.14052
-0.176923
-0.213348
-0.214683
-0.255294
-0.280566
-0.230769
-0.180928
-0.176018
-0.176041
-0.191199
-0.190814
-0.155407
-0.105294
-0.0703394
-0.0703846
-0.075
-0.0495475
-0.0593892
-0.0995702
-0.0950453
-0.0857466
-0.0864932
-0.0924208
-0.0184389
-0.0295702
-0.115656
-0.216719
-0.267783
-0.293914
-0.300068
-0.281154
-0.312263
-0.358213
-0.359005
-0.354774
-0.37052
-0.371538
-0.358281
-0.370656
-0.377805
-0.348891
-0.337896
-0.328982
-0.341199
-0.314412
-0.239548
-0.278529
-0.304253
-0.525068
-0.628507
-0.535
-0.216742
0.315928
1.08339
1.90627
2.60966
3.05385
2.96885
2.27966
0.830928
-0.453348
-0.718824
-0.769683
-0.866199
-0.776674
-0.690566
-0.611493
-0.5169
-0.473643
-0.473484
-0.432647
-0.415837
-0.413552
-0.350769
-0.328009
-0.330701
-0.30871
-0.276946
-0.265317
-0.218552
-0.221629
-0.244548
-0.19224
-0.114842
-0.102217
-0.144412
-0.181425
-0.113235
-0.0198642
0.0235973
0.0670136
0.0803846
0.103597
0.151697
0.214751
0.277783
0.35552
0.377805
0.424525
0.445747
0.501606
0.5119
0.496674
0.541154
0.590136
0.563552
0.511561
0.469163
0.416448
0.323394
0.26043
0.227308
0.148959
0.0654073
0.0566742
0.0728281
0.0692308
-0.0239592
-0.0816968
-0.13414
-0.201335
-0.193235
-0.179819
-0.175882
-0.181403
-0.261719
-0.316946
-0.277036
-0.232014
-0.2169
-0.181652
-0.156425
-0.121131
-0.105792
-0.100068
-0.109525
-0.119502
-0.0999095
-0.0954751
-0.111176
-0.1169
-0.097647
-0.113643
-0.155204
-0.187149
-0.189072
-0.210973
-0.222919
-0.224661
-0.246131
-0.27733
-0.31319
-0.314072
-0.295317
-0.311697
-0.332534
-0.332783
-0.323281
-0.353914
-0.365317
-0.362149
-0.363756
-0.353959
-0.326674
-0.320747
-0.326063
-0.363235
-0.453348
-0.603846
-0.672647
-0.538009
-0.239163
-0.126674
1.09054
1.97747
2.73505
3.1831
3.10192
2.3521
0.862851
-0.397059
-0.622851
-0.70543
-0.776335
-0.746267
-0.665091
-0.576176
-0.492579
-0.445226
-0.446063
-0.440498
-0.408688
-0.386719
-0.384095
-0.386335
-0.364072
-0.332489
-0.316312
-0.315068
-0.318575
-0.286991
-0.270362
-0.223824
-0.18724
-0.170339
-0.168167
-0.145837
-0.0832579
-0.0106335
0.0372625
0.0551584
0.0930091
0.150814
0.213394
0.266199
0.334072
0.381765
0.414253
0.466425
0.518054
0.513959
0.514389
0.529525
0.574163
0.57319
0.572059
0.565792
0.524186
0.426991
0.35948
0.286584
0.218213
0.179683
0.111244
0.0229186
-0.0254298
-0.0540045
-0.0627828
-0.100928
-0.163507
-0.190792
-0.177805
-0.194412
-0.210543
-0.221448
-0.192014
-0.162285
-0.167443
-0.18233
-0.17733
-0.177534
-0.15267
-0.127511
-0.0470362
0.038439
0.0387557
0.0189367
0.0288688
-0.00147057
-0.0720814
-0.137805
-0.183416
-0.169095
-0.084819
-0.0756335
-0.181765
-0.2531
-0.254389
-0.265566
-0.326878
-0.338213
-0.29448
-0.285679
-0.301787
-0.33776
-0.343507
-0.33414
-0.345023
-0.346357
-0.308303
-0.310475
-0.317036
-0.282217
-0.271833
-0.290882
-0.325882
-0.317421
-0.3769
-0.551697
-0.609909
-0.454842
-0.220407
0.188032
0.921109
1.86885
2.74667
3.23991
3.32885
2.52867
1.03455
-0.33405
-0.612964
-0.673032
-0.770204
-0.730973
-0.620928
-0.529932
-0.496697
-0.463529
-0.442104
-0.428959
-0.39871
-0.367036
-0.354706
-0.376719
-0.373846
-0.346697
-0.325045
-0.313439
-0.326674
-0.304661
-0.237715
-0.215769
-0.178552
-0.181063
-0.143552
-0.125814
-0.127851
-0.0947511
-0.0214706
0.0520588
0.100339
0.138484
0.176674
0.234977
0.268167
0.321176
0.399095
0.441629
0.458507
0.494887
0.535792
0.581199
0.576222
0.555633
0.554457
0.522873
0.51095
0.408733
0.326131
0.273167
0.245023
0.176787
0.103439
0.0649321
-0.00875567
-0.0871946
-0.125362
-0.168326
-0.141063
-0.113552
-0.135814
-0.182851
-0.269186
-0.309955
-0.305158
-0.275158
-0.240091
-0.189796
-0.129276
-0.123959
-0.178959
-0.199005
-0.188846
-0.148371
-0.0927376
-0.0675339
-0.0776923
-0.0928054
-0.0928733
-0.098371
-0.10905
-0.124638
-0.135249
-0.141041
-0.19224
-0.233552
-0.229864
-0.236448
-0.267828
-0.298869
-0.304977
-0.311199
-0.322149
-0.333009
-0.338959
-0.345068
-0.351199
-0.362715
-0.360136
-0.367783
-0.384367
-0.389525
-0.387715
-0.372602
-0.343258
-0.324751
-0.358756
-0.437127
-0.599231
-0.703326
-0.628529
-0.344932
0.138416
0.931086
1.84873
2.76208
3.40122
3.43066
2.70989
1.21912
-0.320928
-0.619774
-0.718032
-0.826629
-0.786561
-0.628824
-0.504774
-0.445204
-0.424683
-0.451652
-0.43819
-0.416109
-0.4269
-0.426041
-0.378801
-0.361018
-0.362964
-0.360023
-0.347489
-0.350113
-0.297715
-0.265204
-0.257783
-0.235679
-0.208575
-0.165973
-0.147828
-0.0994344
-0.046086
0.00208146
0.0401357
0.0884842
0.14233
0.216267
0.265045
0.313529
0.366561
0.429321
0.481425
0.502941
0.519072
0.555068
0.565928
0.586109
0.615769
0.590023
0.558801
0.507082
0.439819
0.387534
0.335339
0.307805
0.174842
0.126448
0.0827828
0.0339819
-0.00477374
-0.0482805
-0.131584
-0.159661
-0.157489
-0.195362
-0.2281
-0.215362
-0.241878
-0.25276
-0.243439
-0.253778
-0.27414
-0.239457
-0.209683
-0.184751
-0.169593
-0.144276
-0.0888914
-0.0685973
-0.0584615
-0.00834842
-0.0532127
-0.0880995
-0.0730996
-0.0531448
-0.0782353
-0.0884163
-0.0938462
-0.10448
-0.105181
-0.0958145
-0.0864932
-0.10724
-0.1931
-0.274072
-0.300272
-0.296538
-0.282692
-0.323756
-0.379842
-0.431154
-0.407851
-0.360136
-0.382783
-0.399977
-0.405814
-0.34948
-0.294389
-0.319977
-0.376244
-0.374548
-0.262692
-0.214072
-0.347172
-0.582262
-0.683756
-0.600588
-0.332986
0.179774
1.0183
2.02767
2.93238
3.46715
3.39197
2.6569
1.10186
-0.33319
-0.643032
-0.727195
-0.770452
-0.748439
-0.627217
-0.522579
-0.460724
-0.447511
-0.403303
-0.312308
-0.272896
-0.367489
-0.447986
-0.430882
-0.378643
-0.320679
-0.256968
-0.277828
-0.338575
-0.359751
-0.341154
-0.272647
-0.199163
-0.145656
-0.0969457
-0.0429864
-0.00393665
0.00509049
-0.0259502
0.0579864
0.141968
0.166041
0.199955
0.278778
0.362398
0.400566
0.413235
0.470588
0.52267
0.53405
0.555045
0.590633
0.61095
0.590928
0.595566
0.604638
0.553348
0.506855
0.455
0.357647
0.23009
0.14233
0.119389
0.031267
0.018009
0.00454748
-0.0238235
-0.071991
-0.140113
-0.188122
-0.21086
-0.243077
-0.250023
-0.241765
-0.252919
-0.278869
-0.284751
-0.280498
-0.27586
-0.266131
-0.221131
-0.180815
-0.170498
-0.190226
-0.189864
-0.169208
-0.148281
-0.13776
-0.0926923
-0.0776697
-0.0925339
-0.0923982
-0.0825792
-0.08319
-0.094095
-0.139864
-0.170271
-0.195837
-0.211471
-0.207172
-0.242986
-0.278665
-0.319457
-0.335747
-0.342217
-0.348167
-0.353665
-0.349593
-0.34181
-0.369729
-0.356968
-0.352783
-0.361176
-0.41052
-0.405181
-0.370611
-0.373484
-0.351719
-0.308394
-0.30724
-0.352285
-0.458462
-0.645068
-0.712014
-0.538733
-0.179887
0.429344
1.28382
2.19848
2.91335
3.28346
3.0888
2.22405
0.559457
-0.529253
-0.63733
-0.755769
-0.815317
-0.797262
-0.658032
-0.547489
-0.495091
-0.459525
-0.42862
-0.424276
-0.433529
-0.431742
-0.408462
-0.354751
-0.33586
-0.321878
-0.308077
-0.294367
-0.301177
-0.30267
-0.263982
-0.200226
-0.176629
-0.137896
-0.108959
-0.0650227
-0.011086
0.00785068
0.0518325
0.0908145
0.139819
0.198824
0.252353
0.300339
0.382964
0.445113
0.466697
0.497873
0.548937
0.569457
0.594819
0.609887
0.594751
0.609072
0.597896
0.56129
0.499299
0.456946
0.419344
0.336561
0.243665
0.19052
0.17224
0.103937
0.0557013
-0.0174887
-0.0954299
-0.10819
-0.100701
-0.112896
-0.169683
-0.251018
-0.246968
-0.22767
-0.243009
-0.263167
-0.248258
-0.218258
-0.177738
-0.162059
-0.16638
-0.195815
-0.180249
-0.179864
-0.169548
-0.089095
-0.0687783
-0.078733
-0.0388235
-0.0139366
-0.034095
-0.0993213
-0.144774
-0.0953394
-0.040905
-0.106629
-0.152285
-0.172964
-0.228688
-0.254615
-0.285566
-0.316471
-0.312511
-0.288439
-0.259231
-0.324977
-0.385769
-0.376968
-0.348869
-0.380882
-0.387014
-0.366493
-0.353213
-0.366176
-0.344955
-0.280362
-0.25905
-0.303688
-0.397262
-0.568213
-0.659072
-0.52552
-0.222557
0.280158
1.05808
1.84661
2.55566
3.02507
3.02018
2.31122
0.942805
-0.341131
-0.636357
-0.728733
-0.809367
-0.75871
-0.65129
-0.62586
-0.495633
-0.50267
-0.468597
-0.448167
-0.401244
-0.373665
-0.365294
-0.351968
-0.329072
-0.291471
-0.279163
-0.2969
-0.294547
-0.282285
-0.224887
-0.147285
-0.11448
-0.10138
-0.0980543
-0.0897059
-0.0813801
-0.0429412
-0.0143212
0.0443665
0.0678733
0.146086
0.194412
0.247738
0.315679
0.368167
0.420385
0.472308
0.488733
0.519457
0.544638
0.554615
0.544118
0.5431
0.531471
0.529434
0.48224
0.389864
0.297262
0.214231
0.145792
0.097172
0.058552
0.0300453
-0.00343892
-0.0268099
-0.134932
-0.172602
-0.185023
-0.207376
-0.239593
-0.226222
-0.227172
-0.252692
-0.258032
-0.233394
-0.243348
-0.252602
-0.246584
-0.235792
-0.190317
-0.159774
-0.149163
-0.138416
-0.138145
-0.128032
-0.127896
-0.138122
-0.138665
-0.129276
-0.120023
-0.141086
-0.142376
-0.158575
-0.194819
-0.211199
-0.242692
-0.283846
-0.305091
-0.311584
-0.312738
-0.288394
-0.299005
-0.329864
-0.340588
-0.326222
-0.321538
-0.35733
-0.364231
-0.346493
-0.337941
-0.342919
-0.365679
-0.34991
-0.335475
-0.33767
-0.427873
-0.573348
-0.667014
-0.551923
-0.267398
0.22595
0.993597
1.82557
2.54783
2.99584
3.05016
2.43663
1.08314
-0.286539
-0.556629
-0.686086
-0.834548
-0.811968
-0.692398
-0.593778
-0.527986
-0.487081
-0.474118
-0.407851
-0.381154
-0.37371
-0.370792
-0.353371
-0.341471
-0.324774
-0.288167
-0.261719
-0.280452
-0.269231
-0.212805
-0.161222
-0.169163
-0.177036
-0.12509
-0.0829864
-0.0603846
-0.0276244
0.00520364
0.0730996
0.146154
0.179457
0.222828
0.295837
0.363575
0.380973
0.408122
0.459932
0.501199
0.541923
0.552059
0.59672
0.616018
0.574864
0.548303
0.536358
0.509208
0.446493
0.403416
0.380158
0.316787
0.198281
0.0447511
-0.0437557
-0.00717194
0.0145702
-0.0883484
-0.206063
-0.243484
-0.21543
-0.212104
-0.273394
-0.239412
-0.21509
-0.175498
-0.185837
-0.210973
-0.185928
-0.140769
-0.155498
-0.155204
-0.0797964
-0.00452488
0.0056561
-0.0492534
-0.0792987
-0.044457
-0.0899774
-0.100611
-0.0512443
-0.107036
-0.208009
-0.239027
-0.175023
-0.156109
-0.172285
-0.303439
-0.304548
-0.235656
-0.246833
-0.293009
-0.313914
-0.299751
-0.300611
-0.32138
-0.357081
-0.327624
-0.273529
-0.280249
-0.272489
-0.329186
-0.36448
-0.297376
-0.216674
-0.212104
-0.244253
-0.479502
-0.794548
-0.787353
-0.476267
-0.366425
0.642195
1.55027
2.42769
3.10041
3.32903
2.88385
1.76471
0.185769
-0.544208
-0.630928
-0.745747
-0.784706
-0.657828
-0.548959
-0.520769
-0.510498
-0.479321
-0.405407
-0.368733
-0.356742
-0.36905
-0.396131
-0.363733
-0.271991
-0.240498
-0.298982
-0.282398
-0.245701
-0.243982
-0.247172
-0.275158
-0.278032
-0.205792
-0.143303
-0.0755882
-0.0178281
0.0150905
0.0480543
0.0810181
0.13414
0.177308
0.215453
0.283484
0.35129
0.408869
0.436154
0.458032
0.50448
0.535588
0.541471
0.541765
0.56129
0.554932
0.507986
0.46595
0.413778
0.356041
0.277511
0.173507
0.119661
0.0761765
0.0426471
-0.0257466
-0.0790724
-0.0972172
-0.135226
-0.178009
-0.21509
-0.241584
-0.237986
-0.254208
-0.244774
-0.224728
-0.219412
-0.224231
-0.214163
-0.163869
-0.178733
-0.198688
-0.168348
-0.127986
-0.0929412
-0.108077
-0.117964
-0.10776
-0.0977602
-0.103462
-0.139208
-0.129706
-0.110272
-0.161335
-0.182647
-0.20371
-0.21457
-0.225453
-0.276516
-0.302647
-0.28362
-0.27457
-0.285407
-0.311448
-0.347534
-0.373258
-0.393529
-0.393688
-0.363937
-0.355294
-0.363009
-0.370633
-0.3619
-0.362624
-0.363778
-0.350882
-0.368891
-0.418778
-0.552624
-0.688529
-0.674593
-0.427738
0.021086
0.72957
1.64738
2.56491
3.24317
3.40217
2.9567
1.68713
0.00361989
-0.624434
-0.68319
-0.783665
-0.787149
-0.689729
-0.566539
-0.476584
-0.458235
-0.468914
-0.474977
-0.453054
-0.40871
-0.381855
-0.374683
-0.357285
-0.339977
-0.322896
-0.315973
-0.324186
-0.282421
-0.240701
-0.234163
-0.232466
-0.180249
-0.13267
-0.119887
-0.0918552
-0.0336199
0.0345023
0.0726697
0.111199
0.144864
0.218348
0.276674
0.32491
0.372964
0.435724
0.493054
0.52
0.581516
0.652557
0.648009
0.573009
0.522489
0.526674
0.535452
0.53371
0.491652
0.414276
0.281606
0.193529
0.155136
0.111697
0.0382126
-0.0252037
-0.0785294
-0.10672
-0.114819
-0.132692
-0.145091
-0.137195
-0.154276
-0.21586
-0.246968
-0.237715
-0.228281
-0.228643
-0.198756
-0.173665
-0.163416
-0.148281
-0.143122
-0.0778054
-0.0426244
-0.0823303
-0.127059
-0.141923
-0.13681
-0.0918552
-0.0720814
-0.0823303
-0.0976697
-0.1081
-0.133688
-0.14948
-0.175452
-0.206538
-0.232783
-0.239027
-0.270294
-0.296606
-0.292873
-0.304095
-0.305272
-0.291425
-0.317557
-0.33371
-0.335023
-0.3269
-0.309366
-0.326742
-0.387919
-0.396878
-0.352534
-0.314005
-0.321335
-0.345543
-0.398914
-0.559186
-0.745204
-0.768914
-0.580475
-0.192217
0.455588
1.32839
2.29165
3.09557
3.47995
3.20443
2.19891
0.468462
-0.0665158
-0.625656
-0.724072
-0.777489
-0.68681
-0.57819
-0.482692
-0.406018
-0.383394
-0.358552
-0.304389
-0.302851
-0.385656
-0.430928
-0.408643
-0.396222
-0.38276
-0.329118
-0.315792
-0.347805
-0.345068
-0.297443
-0.259728
-0.216833
-0.178756
-0.155566
-0.097172
-0.058552
-0.014819
0.0191403
0.0531901
0.10724
0.185973
0.224321
0.252624
0.320882
0.378982
0.41681
0.444186
0.500769
0.546901
0.56267
0.558145
0.5531
0.552624
0.526787
0.500588
0.459095
0.40233
0.320294
0.293077
0.210566
0.142692
0.0945928
0.0364254
-0.0219004
-0.0703846
-0.108801
-0.15233
-0.165701
-0.163642
-0.181448
-0.203484
-0.24957
-0.265407
-0.246357
-0.252217
-0.267986
-0.253348
-0.228348
-0.198235
-0.188054
-0.177783
-0.167602
-0.152557
-0.147783
-0.113054
-0.0829864
-0.0677602
-0.0627828
-0.0781674
-0.0788235
-0.0894344
-0.0996832
-0.0997285
-0.124955
-0.155588
-0.181471
-0.202285
-0.217805
-0.238303
-0.279299
-0.30086
-0.307308
-0.303552
-0.314887
-0.341154
-0.367579
-0.369751
-0.357715
-0.360724
-0.382851
-0.3831
-0.380294
-0.36862
-0.367873
-0.353303
-0.321448
-0.300498
-0.299072
-0.375566
-0.51448
-0.650928
-0.647964
-0.435249
0.0329186
0.736697
1.58588
2.47052
3.12543
3.31552
2.79584
1.54622
-0.0685747
-0.588145
-0.60681
-0.810158
-0.794072
-0.659367
-0.552443
-0.469525
-0.42543
-0.389344
-0.389683
-0.398665
-0.388507
-0.376199
-0.368891
-0.365928
-0.352376
-0.298484
-0.299683
-0.301312
-0.263009
-0.244774
-0.221561
-0.183281
-0.159977
-0.131606
-0.0831448
-0.0643891
-0.015543
0.0132579
0.0620136
0.10086
0.134774
0.193439
0.256923
0.305136
0.357896
0.410113
0.462059
0.483597
0.504751
0.53052
0.575973
0.61095
0.62552
0.674819
0.648665
0.567195
0.540475
0.433484
0.256267
0.158597
0.135679
0.0977376
0.0795702
0.031267
-0.0319683
-0.0701357
-0.103122
-0.135995
-0.143665
-0.131086
-0.0981448
-0.11991
-0.221199
-0.261946
-0.237398
-0.18276
-0.117851
-0.13767
-0.217308
-0.246878
-0.231448
-0.155995
-0.10052
-0.105113
-0.149819
-0.169502
-0.119231
-0.00420813
0.0106788
-0.00438913
-0.00452489
-0.0597964
-0.0950905
-0.105566
-0.126222
-0.141923
-0.147715
-0.173643
-0.199547
-0.18043
-0.11629
-0.157172
-0.27819
-0.354186
-0.360068
-0.340882
-0.342014
-0.34362
-0.315679
-0.317647
-0.328665
-0.352511
-0.337941
-0.344457
-0.356855
-0.341267
-0.304842
-0.290792
-0.317466
-0.411471
-0.59276
-0.654118
-0.52138
-0.168575
0.454819
1.30373
2.14808
2.85765
3.2074
2.9476
2.06844
0.509819
-0.538824
-0.648326
-0.739344
-0.788348
-0.745634
-0.610928
-0.533462
-0.496561
-0.478032
-0.435317
-0.386018
-0.36371
-0.356109
-0.36276
-0.334186
-0.30586
-0.297873
-0.320045
-0.332195
-0.299774
-0.282059
-0.259163
-0.211199
-0.168032
-0.129615
-0.116131
-0.0925339
-0.0488461
-0.0302715
0.0234616
0.0723756
0.101267
0.165317
0.229118
0.292466
0.340566
0.373145
0.429842
0.47095
0.49681
0.542262
0.557443
0.557217
0.566652
0.55543
0.53862
0.501312
0.453824
0.386448
0.324163
0.251471
0.158529
0.10595
0.0886199
0.0113574
-0.0506109
-0.102557
-0.129842
-0.132081
-0.163914
-0.200158
-0.210973
-0.206652
-0.227353
-0.237941
-0.2231
-0.212624
-0.226833
-0.206018
-0.185339
-0.205204
-0.190226
-0.149977
-0.124457
-0.103846
-0.0935068
-0.0983032
-0.103032
-0.102534
-0.106765
-0.0763801
-0.0666063
-0.0871493
-0.112873
-0.123733
-0.159638
-0.19552
-0.21129
-0.207104
-0.218009
-0.269027
-0.285
-0.310882
-0.31681
-0.312624
-0.308235
-0.293846
-0.289593
-0.305792
-0.312851
-0.320181
-0.321674
-0.316403
-0.318439
-0.316697
-0.30095
-0.276923
-0.34629
-0.466719
-0.556018
-0.532398
-0.338462
-0.00500001
0.662986
1.43572
2.09378
2.58283
2.74285
2.39828
1.4938
0.0732353
-0.57448
-0.620475
-0.74991
-0.797353
-0.711697
-0.625656
-0.556697
-0.531878
-0.40672
-0.415407
-0.393575
-0.361131
-0.353778
-0.356878
-0.320294
-0.324027
-0.322715
-0.271267
-0.259751
-0.2631
-0.24138
-0.224615
-0.192602
-0.170385
-0.137919
-0.125407
-0.102873
-0.0650679
-0.0271493
0.0306787
0.078552
0.126538
0.14457
0.257443
0.360045
0.442421
0.47948
0.471199
0.487443
0.558326
0.51362
0.393077
0.362059
0.400837
0.39914
0.371991
0.364434
0.321719
0.243959
0.18586
0.142534
0.104231
0.0609049
0.0124886
-0.0358598
-0.0639141
-0.121584
-0.143982
-0.116041
-0.0527828
-0.0543665
-0.125656
-0.206584
-0.242217
-0.187534
-0.182624
-0.222715
-0.252738
-0.247602
-0.202398
-0.187104
-0.191878
-0.156765
-0.106697
-0.0967421
-0.101923
-0.0973077
-0.0879185
-0.0786425
-0.0794796
-0.0806108
-0.116833
-0.133145
-0.159434
-0.185724
-0.186968
-0.193213
-0.18948
-0.180701
-0.181878
-0.232986
-0.26905
-0.239977
-0.225792
-0.266561
-0.282285
-0.287896
-0.313846
-0.340272
-0.337149
-0.353982
-0.359864
-0.344186
-0.330453
-0.343258
-0.408077
-0.520724
-0.547579
-0.52586
-0.228281
0.297828
1.04104
1.80412
2.45697
2.90029
2.83959
2.199
0.877715
-0.320498
-0.551358
-0.660973
-0.788914
-0.73767
-0.613168
-0.521471
-0.449072
-0.440136
-0.429163
-0.427692
-0.405679
-0.373778
-0.357217
-0.351086
-0.335249
-0.32957
-0.293756
-0.267919
-0.272127
-0.256244
-0.210249
-0.17414
-0.182964
-0.191448
-0.144932
-0.0933032
-0.0565837
-0.0197059
0.0123077
0.0547738
0.0775113
0.140543
0.238213
0.295181
0.326787
0.358258
0.399457
0.44043
0.451244
0.461493
0.506109
0.52043
0.504457
0.513032
0.511131
0.483937
0.431312
0.353213
0.274774
0.216538
0.16371
0.106222
0.053552
0.0105204
-0.0324887
-0.0852263
-0.127421
-0.134299
-0.156086
-0.192919
-0.214615
-0.205837
-0.181742
-0.177534
-0.193054
-0.178235
-0.183326
-0.173416
-0.138348
-0.108326
-0.0936199
-0.0791177
-0.0741855
-0.0788462
-0.0885294
-0.0836199
-0.0890272
-0.0745475
-0.0651131
-0.0907692
-0.106584
-0.127511
-0.138552
-0.164615
-0.19552
-0.211335
-0.21733
-0.233371
-0.244457
-0.275679
-0.2769
-0.267986
-0.283959
-0.294774
-0.30052
-0.29129
-0.292059
-0.283258
-0.300226
-0.332217
-0.323801
-0.313869
-0.316516
-0.320747
-0.381425
-0.509231
-0.61
-0.521041
-0.274932
0.185249
0.894887
1.71351
2.46679
2.67493
3.0641
2.57446
1.35005
-0.100181
-0.552647
-0.618529
-0.738484
-0.732195
-0.653394
-0.559932
-0.478643
-0.431041
-0.431742
-0.425611
-0.394276
-0.376923
-0.364683
-0.332919
-0.301471
-0.330339
-0.314412
-0.228439
-0.147262
-0.100973
-0.094638
-0.203213
-0.246561
-0.239864
-0.203032
-0.165837
-0.113371
-0.0408824
0.0215611
0.0490724
0.0817195
0.169367
0.236991
0.249683
0.27724
0.344683
0.411923
0.433869
0.485475
0.566719
0.587489
0.522692
0.462376
0.451606
0.49043
0.498824
0.411968
0.314796
0.247217
0.179299
0.116312
0.0932353
0.065
0.0017647
-0.0562896
-0.0890271
-0.116357
-0.143529
-0.155475
-0.16224
-0.193869
-0.174864
-0.095543
-0.0510407
-0.146267
-0.271267
-0.281109
-0.21586
-0.170498
-0.145113
-0.139615
-0.114072
-0.0685747
-0.0431222
-0.0677828
-0.0976018
-0.102624
-0.107828
-0.108167
-0.113756
-0.109547
-0.105407
-0.131471
-0.15767
-0.198824
-0.240023
-0.241109
-0.227285
-0.248326
-0.22914
-0.184887
-0.220724
-0.301719
-0.347466
-0.358009
-0.368552
-0.389118
-0.36991
-0.376154
-0.377783
-0.389186
-0.399412
-0.367443
-0.362376
-0.378643
-0.451312
-0.597919
-0.707851
-0.640045
-0.372828
0.132805
0.896425
1.7948
2.64271
3.22072
3.3093
2.68898
1.30989
-0.163801
-0.533167
-0.554163
-0.787805
-0.755181
-0.616561
-0.526335
-0.482624
-0.463054
-0.438778
-0.436538
-0.424706
-0.397217
-0.384163
-0.39129
-0.379163
-0.347738
-0.331357
-0.33552
-0.30991
-0.269072
-0.242443
-0.230362
-0.218122
-0.200566
-0.167919
-0.120317
-0.107647
-0.0498642
0.0181222
0.0711539
0.104299
0.13767
0.191041
0.254072
0.306606
0.343891
0.391312
0.408824
0.440814
0.481991
0.517579
0.527805
0.527421
0.526697
0.505769
0.474367
0.427443
0.340113
0.287534
0.249887
0.202285
0.179683
0.0718552
0.029095
0.00176469
-0.0454299
-0.0930995
-0.136176
-0.168937
-0.191086
-0.202692
-0.213801
-0.214706
-0.230407
-0.235973
-0.231425
-0.2069
-0.186742
-0.176357
-0.160973
-0.11052
-0.0800226
-0.0744796
-0.0588914
-0.0283936
-0.0280769
-0.0330317
-0.06819
-0.0533258
-0.0735068
-0.123937
-0.129434
-0.124774
-0.120294
-0.16629
-0.20267
-0.209186
-0.215724
-0.237421
-0.279095
-0.31052
-0.286833
-0.313122
-0.344502
-0.320679
-0.311697
-0.352715
-0.37905
-0.361176
-0.353688
-0.345724
-0.341357
-0.34448
-0.344163
-0.344842
-0.331742
-0.345995
-0.464706
-0.626222
-0.653982
-0.503326
-0.139412
0.474367
1.31222
2.20523
2.98385
3.34796
3.1274
2.10199
0.427081
-0.507014
-0.605407
-0.723801
-0.79319
-0.674548
-0.518824
-0.481991
-0.339299
-0.254706
-0.250814
-0.379615
-0.462602
-0.467941
-0.450769
-0.403303
-0.380249
-0.366991
-0.324186
-0.301606
-0.289208
-0.261833
-0.229389
-0.206923
-0.194412
-0.141652
-0.0936199
-0.0804977
-0.0872172
-0.0539366
0.0343439
0.102783
0.12129
0.199819
0.258303
0.281697
0.329887
0.392896
0.45552
0.487557
0.479299
0.460747
0.456742
0.477466
0.482557
0.467262
0.481584
0.490611
0.454005
0.371968
0.299638
0.222149
0.13448
0.091629
0.0685973
0.0803846
0.0771946
0.0541629
-0.118778
-0.176652
-0.184208
-0.201516
-0.218416
-0.224932
-0.231041
-0.236855
-0.222353
-0.202466
-0.197195
-0.201968
-0.176652
-0.141448
-0.106448
-0.0960633
-0.0905882
-0.0650679
-0.024638
-0.00441176
-0.00920815
0.00617647
0.0214932
-0.0385068
-0.0637104
-0.0789593
-0.0694796
-0.0851357
-0.120724
-0.146403
-0.162376
-0.148529
-0.189683
-0.240837
-0.292014
-0.343167
-0.339186
-0.325181
-0.311222
-0.31724
-0.348235
-0.349706
-0.351878
-0.374163
-0.360701
-0.35043
-0.37224
-0.360068
-0.333846
-0.324027
-0.317489
-0.301946
-0.36595
-0.537579
-0.683575
-0.66
-0.431833
-0.00891403
0.644548
1.53369
2.46305
3.14317
3.32373
2.85434
1.59446
-0.0849548
-0.628688
-0.677308
-0.776403
-0.776968
-0.670317
-0.571991
-0.477217
-0.435634
-0.435339
-0.423982
-0.393439
-0.39086
-0.398869
-0.381357
-0.368235
-0.349593
-0.315905
-0.307308
-0.283891
-0.276018
-0.263032
-0.239955
-0.211878
-0.198575
-0.154729
-0.105724
-0.0867195
-0.0529412
0.00561085
0.0491176
0.087466
0.135792
0.199072
0.22224
0.320385
0.378258
0.415543
0.432511
0.464118
0.494887
0.534977
0.559525
0.548733
0.518054
0.523009
0.527489
0.466267
0.424502
0.382557
0.325453
0.2381
0.185588
0.142919
0.0552036
-0.0375113
-0.0652715
-0.0730091
-0.0705204
-0.0777602
-0.169661
-0.186154
-0.192353
-0.218235
-0.20862
-0.208552
-0.253394
-0.258145
-0.22767
-0.212104
-0.176425
-0.140814
-0.140181
-0.12948
-0.0988688
-0.0732127
-0.0576018
-0.0371267
-0.0268778
-0.0117647
-0.0119457
-0.047353
-0.0578281
-0.0583032
-0.0637783
-0.0993892
-0.130272
-0.151176
-0.162014
-0.177919
-0.213756
-0.244525
-0.28543
-0.286267
-0.301991
-0.317805
-0.318462
-0.338937
-0.329706
-0.301199
-0.308213
-0.340045
-0.355792
-0.354525
-0.340204
-0.336833
-0.334208
-0.318462
-0.2919
-0.282443
-0.453688
-0.607579
-0.618914
-0.470362
-0.127285
0.495747
1.2693
2.07335
2.78792
3.09799
2.89382
1.99038
0.446991
-0.477353
-0.547127
-0.676199
-0.808914
-0.799955
-0.708348
-0.617466
-0.494661
-0.452217
-0.418032
-0.395837
-0.398326
-0.455294
-0.427081
-0.394095
-0.351471
-0.319072
-0.311787
-0.254502
-0.24224
-0.244819
-0.202081
-0.184163
-0.155928
-0.102602
-0.0992082
-0.0907693
0.0127602
0.126335
0.23
0.323688
0.302195
0.145407
0.083552
0.186652
0.304344
0.331697
0.353665
0.405181
0.436109
0.466561
0.491538
0.511018
0.525091
0.513846
0.48724
0.460452
0.418575
0.336131
0.273416
0.225634
0.152738
0.0699321
0.0421719
0.034095
-0.00395928
-0.0865611
-0.138846
-0.140769
-0.13724
-0.168326
-0.18414
-0.219729
-0.224977
-0.17991
-0.169683
-0.189321
-0.17371
-0.172964
-0.15233
-0.136629
-0.12086
-0.0950905
-0.0645023
-0.0592082
-0.0741177
-0.0790724
-0.078914
-0.0840724
-0.0795023
-0.0902489
-0.101018
-0.0868778
-0.132873
-0.173891
-0.185
-0.201131
-0.232149
-0.248122
-0.259095
-0.280045
-0.301018
-0.30681
-0.317443
-0.328054
-0.328778
-0.334389
-0.334796
-0.325928
-0.332783
-0.359593
-0.355679
-0.345045
-0.346674
-0.344796
-0.344163
-0.385317
-0.525113
-0.645837
-0.605588
-0.387308
-0.303326
0.660294
1.4733
2.22086
2.76898
2.93321
2.52819
1.50814
0.0266742
-0.622421
-0.67491
-0.790995
-0.805498
-0.726131
-0.645023
-0.577873
-0.50043
-0.458891
-0.416787
-0.404231
-0.411516
-0.429208
-0.402421
-0.365882
-0.344299
-0.337941
-0.32681
-0.305317
-0.283371
-0.260905
-0.228077
-0.190566
-0.168846
-0.152376
-0.120588
-0.0835973
-0.0365158
0.0107466
0.0580995
0.115362
0.182738
0.210339
0.213009
0.260543
0.337919
0.385249
0.402217
0.438552
0.484299
0.494615
0.494525
0.483891
0.47267
0.496154
0.484412
0.412285
0.354819
0.307149
0.239321
0.151471
0.0984615
0.0754072
0.0223303
-0.0356561
-0.0532353
-0.0756787
-0.117692
-0.149389
-0.160882
-0.186991
-0.202647
-0.207986
-0.20319
-0.168167
-0.142964
-0.142783
-0.182738
-0.147647
-0.117398
-0.0870588
-0.0818778
-0.0769005
-0.0618326
-0.0568778
-0.0570588
-0.042285
-0.0375792
-0.0530769
-0.0838009
-0.104728
-0.100792
-0.131968
-0.173213
-0.189525
-0.165814
-0.182059
-0.233348
-0.254548
-0.250543
-0.271516
-0.282557
-0.318484
-0.299231
-0.299774
-0.325249
-0.320814
-0.311629
-0.313009
-0.329977
-0.336855
-0.31267
-0.303054
-0.28914
-0.306448
-0.400317
-0.52672
-0.572353
-0.419774
-0.0468552
0.569321
1.33762
2.12579
2.81898
3.09305
2.73794
2.54758
0.300973
-0.602896
-0.680158
-0.781267
-0.835724
-0.722149
-0.607851
-0.539751
-0.504367
-0.45371
-0.397262
-0.375294
-0.362986
-0.376018
-0.36414
-0.317851
-0.301765
-0.310814
-0.279796
-0.20862
-0.202489
-0.221335
-0.190023
-0.138507
-0.13181
-0.154887
-0.14776
-0.100566
-0.0733937
-0.0862217
-0.0289819
0.073371
0.125928
0.163529
0.211018
0.263439
0.315679
0.357624
0.40448
0.456244
0.45224
0.447715
0.482964
0.492783
0.496991
0.490792
0.459344
0.432376
0.384977
0.362443
0.244751
0.186855
0.138846
0.0708145
-0.0173303
-0.0754073
-0.0831222
-0.10552
-0.142579
-0.154367
-0.130814
-0.142081
-0.182964
-0.198552
-0.173937
-0.13905
-0.14405
-0.163846
-0.173529
-0.17319
-0.172692
-0.157127
-0.121697
-0.0864253
-0.0762217
-0.0710407
-0.0610407
-0.056267
-0.0716516
-0.0820815
-0.0776697
-0.0985294
-0.134615
-0.145814
-0.157149
-0.178348
-0.20957
-0.260724
-0.2819
-0.273145
-0.274208
-0.305136
-0.311018
-0.30181
-0.322466
-0.333032
-0.318416
-0.338665
-0.348914
-0.344548
-0.350747
-0.362195
-0.352986
-0.342081
-0.348416
-0.356267
-0.455611
-0.636946
-0.707127
-0.543959
-0.176765
0.405158
1.19301
2.081
2.82876
3.25215
3.07179
2.25744
0.6831
-0.462262
-0.634525
-0.744864
-0.809253
-0.727466
-0.703416
-0.559864
-0.493213
-0.450068
-0.45009
-0.453394
-0.406222
-0.363439
-0.35095
-0.34914
-0.332489
-0.315905
-0.334593
-0.348416
-0.297172
-0.220837
-0.189728
-0.198665
-0.207172
-0.170475
-0.133575
-0.11629
-0.0838235
-0.0262443
0.0216516
0.0347964
0.137941
0.200815
0.208597
0.241471
0.294072
0.336425
0.373665
0.440588
0.482195
0.498416
0.514434
0.519661
0.514457
0.50871
0.507511
0.475679
0.388552
0.321403
0.279027
0.241448
0.163756
0.080905
0.0278733
-0.0101584
-0.0280317
-0.0856109
-0.107715
-0.139502
-0.160995
-0.167285
-0.188439
-0.199389
-0.185023
-0.180339
-0.185385
-0.175271
-0.165023
-0.15457
-0.133982
-0.0984389
-0.0778733
-0.067285
-0.0367873
-0.00660632
0.00337105
-0.0365611
-0.0663801
-0.0614253
-0.0567647
-0.0673077
-0.102986
-0.123801
-0.134706
-0.170679
-0.206787
-0.203009
-0.234253
-0.255407
-0.281584
-0.30276
-0.318914
-0.325023
-0.331086
-0.341991
-0.33776
-0.338258
-0.323846
-0.294842
-0.276674
-0.268756
-0.24509
-0.219819
-0.216878
-0.310339
-0.339683
-0.505588
-0.634593
-0.714367
-0.622828
-0.353462
0.115792
0.849231
1.76213
2.6148
3.20301
3.32149
2.68106
1.26165
-0.256923
-0.605407
-0.640091
-0.771425
-0.73095
-0.559593
-0.487308
-0.483122
-0.46491
-0.44414
-0.422511
-0.418167
-0.380905
-0.313371
-0.305385
-0.297443
-0.304977
-0.342919
-0.331109
-0.30448
-0.332783
-0.340882
-0.288869
-0.231425
-0.213778
-0.196199
-0.123507
-0.0606335
-0.0377376
0.00518098
0.0533937
0.0967647
0.125023
0.18819
0.23138
0.309457
0.347195
0.404706
0.417059
0.419027
0.450543
0.461516
0.477104
0.537149
0.566539
0.525588
0.474299
0.432738
0.360701
0.283416
0.195928
0.138303
0.10543
0.0572625
-0.000995472
-0.0391176
-0.0670814
-0.0948869
-0.122511
-0.159842
-0.186833
-0.193462
-0.209683
-0.210566
-0.211176
-0.176584
-0.141719
-0.171561
-0.216244
-0.195769
-0.180271
-0.154819
-0.114276
-0.0837104
-0.0931674
-0.0826697
-0.0423529
-0.0372172
-0.0421267
-0.0471946
-0.0624887
-0.073009
-0.0735746
-0.089276
-0.110113
-0.135973
-0.157059
-0.228281
-0.224525
-0.245611
-0.256425
-0.287217
-0.303077
-0.303801
-0.314276
-0.319683
-0.340498
-0.351244
-0.347692
-0.359887
-0.362398
-0.354457
-0.369887
-0.358235
-0.338575
-0.334842
-0.346833
-0.351131
-0.415045
-0.546652
-0.67457
-0.694525
-0.436041
-0.0274887
0.715543
1.63369
2.53251
3.23163
3.46091
2.87557
1.56602
-0.0876018
-0.655928
-0.684909
-0.795226
-0.797851
-0.661335
-0.546199
-0.489774
-0.435204
-0.41
-0.421267
-0.440588
-0.434502
-0.417624
-0.395045
-0.386878
-0.373869
-0.336176
-0.303688
-0.301312
-0.293959
-0.251652
-0.214253
-0.211538
-0.188756
-0.115724
-0.0625792
-0.0543891
-0.0513575
-0.0133936
0.0697059
0.122873
0.171086
0.239321
0.26767
0.311041
0.35914
0.411606
0.448394
0.464751
0.475634
0.526244
0.571493
0.581425
0.566041
0.535158
0.493824
0.462127
0.404977
0.337557
0.274887
0.217036
0.159072
0.106086
0.0880091
0.0550679
-0.00262444
-0.0804072
-0.148326
-0.15086
-0.138054
-0.169842
-0.211199
-0.227014
-0.227534
-0.222919
-0.218167
-0.203439
-0.198597
-0.1681
-0.142353
-0.151561
-0.135633
-0.109796
-0.109208
-0.0687104
-0.0331674
-0.0279638
-0.0478507
-0.0779185
-0.0630543
-0.0382353
-0.0435973
-0.0741855
-0.0899321
-0.100769
-0.156833
-0.182986
-0.16405
-0.190068
-0.211018
-0.3069
-0.297896
-0.228801
-0.214525
-0.305294
-0.311154
-0.2769
-0.322873
-0.349412
-0.316516
-0.323665
-0.374502
-0.388439
-0.364005
-0.325385
-0.292534
-0.291561
-0.324548
-0.450068
-0.616448
-0.675362
-0.496991
-0.138643
0.374231
0.567014
1.96543
2.74443
3.16391
3.0493
2.2407
0.697398
-0.446674
-0.567149
-0.710113
-0.831629
-0.736855
-0.620113
-0.569887
-0.518937
-0.482398
-0.436176
-0.429683
-0.437443
-0.409683
-0.386471
-0.373371
-0.325633
-0.278303
-0.261357
-0.259367
-0.262081
-0.254683
-0.197104
-0.189412
-0.231742
-0.218801
-0.115679
-0.0325565
-0.00929865
0.0140724
0.0224435
0.075905
0.104344
0.122738
0.201041
0.279186
0.3369
0.414231
0.441109
0.472557
0.50862
0.519344
0.524683
0.544593
0.549005
0.527964
0.516493
0.499638
0.43233
0.369864
0.302398
0.244729
0.151833
0.0737104
0.0505204
0.0573982
0.0643665
0.0316064
-0.120837
-0.193054
-0.214683
-0.246063
-0.242217
-0.208054
-0.213529
-0.243529
-0.238326
-0.212964
-0.192489
-0.187149
-0.206765
-0.181109
-0.130362
-0.104638
-0.089095
-0.0587104
-0.0484842
-0.0633258
-0.0831674
-0.0982579
-0.103552
-0.0944118
-0.105272
-0.130837
-0.126312
-0.132217
-0.178235
-0.20905
-0.229955
-0.241063
-0.252036
-0.283009
-0.294163
-0.295294
-0.301335
-0.33724
-0.328077
-0.329118
-0.355181
-0.371448
-0.363167
-0.335068
-0.361244
-0.365769
-0.342828
-0.338891
-0.333552
-0.354683
-0.469027
-0.638914
-0.692443
-0.533167
-0.219095
0.344502
1.14738
1.96959
2.64758
3.01719
2.88796
2.75867
0.623281
-0.504253
-0.640294
-0.765226
-0.858326
-0.778371
-0.663281
-0.580339
-0.500995
-0.475498
-0.458688
-0.431561
-0.424027
-0.381606
-0.349344
-0.367986
-0.361719
-0.310158
-0.303529
-0.312262
-0.301154
-0.269796
-0.217896
-0.19586
-0.188937
-0.181719
-0.124299
-0.0668552
-0.0192534
0.0135747
0.0417195
0.0650453
0.0983032
0.146267
0.24405
0.316787
0.359276
0.371471
0.408394
0.444977
0.461063
0.476561
0.486561
0.521018
0.534864
0.523326
0.506606
0.459864
0.392896
0.370158
0.262036
0.193665
0.155204
0.1069
0.0236425
-0.0443891
-0.0570362
-0.0892986
-0.136312
-0.137964
-0.134276
-0.170498
-0.196538
-0.222172
-0.197602
-0.17267
-0.192511
-0.202172
-0.181742
-0.151267
-0.125792
-0.0953846
-0.0849774
-0.0796832
-0.0845022
-0.0792307
-0.0590045
-0.0690498
-0.0944117
-0.0749774
-0.0706335
-0.0764027
-0.0873529
-0.108281
-0.109253
-0.110339
-0.106629
-0.0777828
-0.123846
-0.220023
-0.296199
-0.317217
-0.298054
-0.303824
-0.334502
-0.360181
-0.375769
-0.376131
-0.351606
-0.347692
-0.354548
-0.311674
-0.308145
-0.3231
-0.300452
-0.264163
-0.319072
-0.535882
-0.711086
-0.616901
-0.313348
0.215656
0.994661
1.84305
2.56595
3.01462
2.9943
2.40916
1.03819
-0.309593
-0.605633
-0.690656
-0.789276
-0.725385
-0.701584
-0.560113
-0.537443
-0.502941
-0.436403
-0.334548
-0.277172
-0.325
-0.393348
-0.396923
-0.355769
-0.344842
-0.313982
-0.262873
-0.221584
-0.245091
-0.283507
-0.286946
-0.260339
-0.18862
-0.126742
-0.109548
-0.0721719
-0.0146833
0.032828
0.0453393
0.0978507
0.165271
0.222624
0.254932
0.317353
0.384638
0.436652
0.453394
0.474819
0.495634
0.511041
0.545815
0.535113
0.50405
0.527692
0.470656
0.353235
0.270701
0.237919
0.174864
0.101833
0.0588009
0.0406561
-0.00239819
-0.0252489
-0.0928281
-0.115
-0.146946
-0.183643
-0.215
-0.230995
-0.221742
-0.212285
-0.197579
-0.197715
-0.212715
-0.207489
-0.192195
-0.1519
-0.126629
-0.116131
-0.100769
-0.0905883
-0.10552
-0.0954525
-0.0754751
-0.0657692
-0.0863122
-0.106606
-0.107059
-0.123167
-0.149615
-0.160792
-0.201878
-0.228235
-0.209638
-0.231063
-0.287557
-0.299072
-0.295294
-0.311131
-0.316787
-0.307217
-0.32767
-0.338213
-0.338529
-0.353643
-0.359005
-0.345362
-0.342557
-0.334367
-0.359842
-0.377964
-0.367489
-0.363167
-0.600611
-0.716018
-0.611471
-0.319548
0.171154
0.915724
1.80905
2.62713
3.18011
3.23923
2.67925
1.28984
-0.215588
-0.6181
-0.686131
-0.820023
-0.777783
-0.64862
-0.565452
-0.499819
-0.452919
-0.433778
-0.432489
-0.415566
-0.412941
-0.400498
-0.368665
-0.357376
-0.351425
-0.340452
-0.314276
-0.283054
-0.26681
-0.260385
-0.223846
-0.187262
-0.150385
-0.118416
-0.0963122
-0.0840498
-0.0365837
0.0160634
0.0638009
0.0914706
0.16405
0.236652
0.274299
0.316968
0.364457
0.386584
0.458575
0.480158
0.496041
0.52138
0.536358
0.530792
0.534706
0.523235
0.476561
0.404525
0.367149
0.299367
0.226584
0.158733
0.100701
0.0474661
0.0142308
-0.003914
-0.0517647
-0.0841629
-0.121312
-0.168348
-0.16509
-0.176516
-0.197534
-0.228281
-0.193824
-0.159072
-0.144005
-0.163982
-0.143937
-0.0835973
-0.0229864
-0.0476018
-0.0572624
-0.00678732
-0.00635745
-0.0861086
-0.0861312
-0.0314027
-0.0517647
-0.0721041
-0.0725566
-0.0683484
-0.109344
-0.190498
-0.236923
-0.243416
-0.234706
-0.230995
-0.262421
-0.278869
-0.290317
-0.301765
-0.3081
-0.314163
-0.32
-0.315882
-0.331742
-0.332466
-0.32319
-0.324932
-0.337127
-0.343846
-0.339276
-0.327443
-0.337285
-0.348077
-0.400136
-0.554638
-0.698778
-0.655498
-0.393507
0.101697
0.280091
1.67321
2.58075
3.20864
3.35731
2.80663
1.46204
-0.126719
-0.570634
-0.660792
-0.777828
-0.7681
-0.682421
-0.580837
-0.497172
-0.449118
-0.447738
-0.449819
-0.419887
-0.403054
-0.380792
-0.377873
-0.390113
-0.342828
-0.315882
-0.319163
-0.302692
-0.276154
-0.244321
-0.21233
-0.170385
-0.153258
-0.145747
-0.113054
-0.080362
-0.0275566
0.0302715
0.068371
0.111448
0.15448
0.207579
0.270747
0.318688
0.366516
0.399118
0.441312
0.498009
0.524344
0.505317
0.490792
0.495656
0.510023
0.493891
0.482489
0.425814
0.338552
0.280928
0.23819
0.175271
0.117217
0.063914
0.0255429
-0.0128055
-0.065905
-0.128824
-0.136629
-0.134005
-0.181063
-0.232579
-0.203348
-0.213914
-0.244412
-0.249615
-0.234593
-0.184729
-0.169683
-0.174231
-0.158824
-0.153326
-0.132715
-0.0971041
-0.0565837
-0.0113801
-0.00131221
-0.0362217
-0.0561765
-0.0361538
-0.0313801
-0.0469683
-0.0527828
-0.0636652
-0.119728
-0.161086
-0.177579
-0.20414
-0.230701
-0.236765
-0.262443
-0.293145
-0.308891
-0.314796
-0.330837
-0.32181
-0.322647
-0.328416
-0.339389
-0.360973
-0.353122
-0.35509
-0.360928
-0.359412
-0.361968
-0.348258
-0.360475
-0.369729
-0.398258
-0.544095
-0.666131
-0.610543
-0.337036
0.0911312
0.803914
1.70683
2.64002
3.29339
3.43238
2.70699
1.28708
-0.231878
-0.634977
-0.723348
-0.832783
-0.764412
-0.629389
-0.5331
-0.475566
-0.425679
-0.411131
-0.439208
-0.436222
-0.405701
-0.373213
-0.385611
-0.387534
-0.344321
-0.321403
-0.303665
-0.291018
-0.263575
-0.236244
-0.223869
-0.221244
-0.173416
-0.14043
-0.0973529
-0.0491855
-0.00570134
0.0430543
0.0616742
0.105045
0.178326
0.236516
0.299683
0.332738
0.380611
0.468145
0.520113
0.511742
0.508009
0.543778
0.589095
0.583937
0.548235
0.527172
0.520747
0.508665
0.391425
0.339253
0.276719
0.168778
0.0958371
0.0678055
0.0496607
-0.00361988
-0.0518778
-0.0947511
-0.13233
-0.144728
-0.1869
-0.21371
-0.210271
-0.231154
-0.241674
-0.25681
-0.266652
-0.246335
-0.23595
-0.210385
-0.144706
-0.104027
-0.0982579
-0.0624887
-0.00196831
0.0234163
0.0438009
0.0289593
-0.0810407
-0.155973
-0.150973
-0.151244
-0.121742
-0.087353
-0.0931222
-0.138982
-0.174932
-0.195905
-0.23181
-0.267783
-0.278756
-0.274751
-0.300792
-0.326787
-0.317715
-0.308507
-0.334367
-0.345249
-0.386199
-0.36267
-0.324593
-0.31129
-0.32681
-0.355317
-0.36543
-0.32129
-0.232964
-0.251719
-0.309774
-0.386109
-0.583982
-0.743733
-0.670272
-0.4169
0.0659503
0.789027
1.65774
2.51201
3.09154
3.18149
2.68238
1.37387
0.845068
-0.654661
-0.666177
-0.770928
-0.77957
-0.696787
-0.621629
-0.561697
-0.494412
-0.436222
-0.405995
-0.408688
-0.391131
-0.377805
-0.349593
-0.33638
-0.363914
-0.366516
-0.309163
-0.271855
-0.264321
-0.236697
-0.213937
-0.200973
-0.167941
-0.144774
-0.101222
-0.0775339
-0.0339367
0.0195475
0.0679412
0.126425
0.215
0.263394
0.296516
0.384434
0.417172
0.409253
0.445837
0.486923
0.517489
0.527489
0.522036
0.546267
0.555068
0.518462
0.466584
0.419367
0.381968
0.304163
0.266131
0.148235
0.105339
0.0623755
0.00427599
-0.0688462
-0.106652
-0.129118
-0.151199
-0.16776
-0.193914
-0.204729
-0.205091
-0.215023
-0.229661
-0.20414
-0.193235
-0.212602
-0.22233
-0.191946
-0.156471
-0.135769
-0.114955
-0.0841403
-0.0635068
-0.0630769
-0.0879185
-0.0930769
-0.0835294
-0.0794344
-0.075543
-0.086448
-0.107308
-0.133258
-0.14414
-0.164864
-0.19543
-0.241222
-0.272014
-0.267557
-0.252986
-0.26862
-0.304344
-0.340023
-0.33043
-0.320294
-0.335204
-0.33552
-0.311335
-0.312941
-0.325045
-0.396946
-0.392647
-0.37086
-0.365679
-0.376833
-0.349321
-0.363959
-0.523009
-0.659367
-0.576697
-0.33138
0.0920814
0.79043
1.6433
2.47118
3.07016
3.13529
2.62613
1.34697
-0.182986
-0.635023
-0.695543
-0.829548
-0.786652
-0.760701
-0.564932
-0.521584
-0.472262
-0.446584
-0.45457
-0.402466
-0.374661
-0.35681
-0.339502
-0.322398
-0.32052
-0.298824
-0.287262
-0.265566
-0.208665
-0.181652
-0.204412
-0.197014
-0.154502
-0.111855
-0.0789366
-0.0458597
0.0171493
0.0701584
0.0833032
0.141516
0.219683
0.277715
0.325656
0.373394
0.395656
0.437579
0.469276
0.520656
0.546493
0.521991
0.501652
0.505837
0.519683
0.513235
0.461425
0.394231
0.331719
0.27905
0.226244
0.153281
0.0852715
0.0472851
0.00436654
-0.0134163
-0.115837
-0.167873
-0.164774
-0.186448
-0.207624
-0.228326
-0.218778
-0.224027
-0.228982
-0.218756
-0.178439
-0.143054
-0.112557
-0.0219004
0.0288009
-0.040543
-0.0749321
-0.0444117
-0.0489819
-0.108665
-0.153484
-0.143529
-0.118869
-0.134457
-0.145181
-0.115928
-0.126629
-0.152398
-0.178303
-0.224253
-0.250091
-0.235882
-0.216719
-0.247557
-0.298371
-0.269163
-0.280091
-0.345792
-0.371267
-0.311719
-0.267308
-0.317873
-0.358484
-0.349796
-0.341674
-0.3531
-0.338462
-0.3219
-0.312149
-0.303552
-0.44129
-0.591244
-0.655769
-0.562511
-0.315136
0.175204
0.938597
1.72188
2.41507
2.86925
2.91889
2.3188
0.992376
-0.361561
-0.626403
-0.652421
-0.796493
-0.802195
-0.687014
-0.62267
-0.556131
-0.474887
-0.423213
-0.41095
-0.403348
-0.380995
-0.374163
-0.32276
-0.301584
-0.30052
-0.274299
-0.277941
-0.271629
-0.235158
-0.223552
-0.206991
-0.185113
-0.15776
-0.110339
-0.0528054
0.0197285
0.0471946
