r
98
227
354
479
606
735
866
1000
1128
1253
1376
1498
1620
1746
1877
2015
2150
2284
2413
2539
2664
2789
2916
3043
3172
3297
3420
3543
3666
3791
3918
4046
4172
4296
4418
4541
4665
4789
4916
5042
5166
5288
5409
5532
5656
5783
5910
6034
6156
6279
6403
6529
6657
6781
6903
7025
7147
7272
7400
7528
7652
7774
7895
8017
8139
8263
8384
8504
8625
8746
8868
8993
9115
9236
9355
9475
9596
9720
9843
9964
10082
10201
10320
10440
10563
10685
10805
10923
11041
11161
11282
11403
11523
11641
11760
11879
12000
12122
12242
12361
12478
12596
12715
12835
12955
13073
13190
13307
13425
13543
13664
13783
13900
14016
14133
14251
14370
14491
14608
14725
14840
14957
15075
15195
15314
15431
15551
15670
15789
15906
16022
16138
16255
16372
16491
16608
16839
16954
17070
17186
17303
17418
17532
17646
17761
17878
17995
18110
18226
18341
18458
18577
18696
18814
18930
19045
19160
19275
19391
19505
19619
19732
19846
19962
20078
20193
20306
20420
20534
20650
20765
20879
20993
21106
21221
21336
21453
21568
21683
21796
21911
22027
22143
22260
22375
22489
22603
22718
22834
22951
23067
23181
23296
23411
23527
23643
23758
23871
23985
24098
24327
24443
24556
24670
24783
24898
25014
25132
25248
25363
25478
25594
25714
25833
25948
26063
26177
26291
26407
26525
26639
26754
26868
26985
27103
27221
27338
27453
27568
27684
27801
27918
28034
28148
28263
28377
28492
28608
28723
28836
28949
29062
29176
29291
29405
29518
29630
29743
29972
30085
30197
30309
30422
30535
30650
30762
30875
30986
31099
31212
31326
31439
31551
31663
31776
31890
32004
32116
32229
32342
32455
32569
32682
32794
32907
33020
33134
33249
33362
33475
33587
33700
33813
33927
34042
34155
34268
34380
34493
34607
34721
34834
34946
35058
35169
35281
35394
35506
35618
35729
35840
35953
36068
36181
36294
36406
36519
36632
36747
36860
36972
37083
37195
37306
37419
37532
37645
37757
37868
37980
38093
38205
38318
38429
38541
38652
38763
38876
38988
39100
39211
39322
39433
39545
39658
39770
39881
39991
40102
40213
40326
40438
40550
40661
40772
40884
40998
41111
41222
41334
41446
41558
41672
41784
41895
42006
42117
42228
42340
42451
42561
42670
42780
42891
43002
43113
43223
43333
43443
43554
43666
43778
43889
44000
44110
44221
44333
44445
44557
44667
44777
44887
44999
45111
45223
45333
45443
45554
45665
45776
45887
45997
46107
46217
46327
46438
46548
46658
46767
46876
46986
47097
47208
47318
47427
47536
47645
47755
47866
47976
48085
48194
48304
48414
48526
48636
48745
48854
48964
49073
49182
49291
49400
49507
49614
49722
49829
49936
50042
50149
50255
50361
50467
50573
50678
50784
50889
50994
51100
51205
51310
51414
51519
51623
51727
51831
51934
52037
52141
52244
52348
52451
52554
52657
52759
52862
52964
53066
53169
53271
53373
53475
53577
53679
53781
53883
53985
54087
54189
54291
54392
54494
54596
54697
54799
54900
55002
55104
55206
55308
55511
55614
55716
55819
55921
56023
56125
56227
56329
56432
56535
56638
56740
56843
56946
57048
57151
57254
57356
57459
57561
57664
57767
57869
57971
58075
58176
58279
58383
58486
58589
58692
58794
58897
59000
59102
59205
59307
59410
59513
59615
59718
59820
59923
60026
60128
60231
60335
60439
60541
60645
60747
60850
60952
61054
61157
61258
61361
61463
61565
61667
61769
61871
61974
62076
62179
62282
62384
62486
62589
62691
62792
62894
62996
63098
63200
63301
63403
63504
63605
63707
63808
63909
64010
64111
64211
64312
64414
64515
64616
64718
64819
64921
65023
65125
65227
65329
65432
65533
65636
65738
65840
65942
66045
66149
66252
66356
66458
66562
66665
66768
66872
66976
67080
67183
67287
67389
67492
67595
67698
67801
67903
68005
68107
68208
68310
68411
68513
68614
68716
68817
68918
69019
69120
69221
69322
69423
69524
69625
69726
69826
69926
70026
70127
70227
70327
70427
70528
70627
70727
70826
70926
71025
71124
71223
71321
71420
71519
71618
71716
71814
71913
72012
72110
72208
72306
72403
72501
72600
72697
72794
72891
72989
73086
73184
73281
73378
73475
73571
73668
73765
73861
73957
74053
74149
74245
74341
74437
74533
74629
74725
74821
74917
75013
75108
75204
75300
75396
75491
75682
75777
75873
75968
76064
76159
76255
76351
76446
76542
76733
76828
76924
77019
77115
77210
77305
77401
77495
77591
77686
77782
77876
77971
78066
78161
78256
78352
78446
78541
78636
78730
78826
78921
79016
79110
79205
79394
79488
79583
79677
79865
79960
80055
80150
80338
80433
80527
80622
80717
80811
80905
80999
81093
81187
81282
81375
81469
81562
81656
81750
81844
81938
82031
82125
82219
82313
82407
82501
82595
82689
82782
82876
82970
83064
83251
83344
83438
83532
83625
83718
83811
83904
83998
84091
84184
84277
84370
84463
84555
84649
84742
84927
85019
85298
85391
85484
85576
85854
85947
86039
86131
86224
86409
86501
86685
86960
87052
87143
87509
87601
87783
88057
88240
88331
88605
88696
88787
89061
89244
89519
89701
89793
90067
90249
90613
90794
91066
91155
91516
91695
92141
92759
92934
93022
93198
93374
93461
93723
93898
94245
94419
94765
94938
95284
95456
95802
95975
96320
96493
96925
97356
97528
97872
98044
98302
98474
98732
98903
99331
99502
99758
99928
100268
100353
100777
100946
101285
101454
101793
101962
102215
102384
102721
102889
103225
103561
103983
104151
104405
104575
104913
105082
105419
105587
105925
106092
106344
106512
106846
107012
107345
107511
107759
107925
108254
108666
109077
109241
109488
109652
109978
110142
110632
111127
111713
112219
112387
112813
112984
113417
113591
114031
114207
114562
114740
114921
115099
115456
115545
115725
115905
116083
116443
116621
116980
117432
117614
117798
117891
117983
118167
118350
118996
119088
119644
119737
120201
120296
120674
120866
121254
121451
121647
121844
121943
122143
122242
122441
122643
122746
122848
122950
123052
123155
123259
123363
123467
123571
123675
123780
123886
123990
124094
124301
124406
124510
124613
124715
124818
124920
125023
125125
125227
125330
125433
125537
125640
125744
125846
125950
126054
126158
126263
126368
126473
126577
126682
126788
126895
127002
127109
127216
127323
127431
127538
127645
127750
127853
127957
128061
128277
128386
128494
128602
128710
128819
128929
129039
129148
129257
129367
129478
129592
129704
129816
129928
130040
130154
130269
130383
130496
130608
130720
130833
130947
131060
131171
131283
131510
131626
131741
131855
131968
132084
132201
132318
132434
132548
132662
132776
132891
133004
133116
133229
133342
133456
133570
133683
133796
133910
134025
134140
134253
134366
134479
134594
134824
134937
135051
135164
135279
135395
135510
135625
135738
135853
135968
136084
136200
136315
136430
136546
136663
136779
136894
137009
137125
137240
137357
137475
137591
137708
137826
137946
138065
138182
138299
138415
138531
138645
138874
138989
139104
139220
139336
139453
139571
139691
139808
139925
140041
140157
140272
140386
140500
140612
140725
140952
141068
141187
141306
141425
141542
141660
141779
141897
142015
142132
142250
142367
142484
142601
142718
142836
142955
143074
143191
143310
143430
143550
143668
143786
143905
144025
144142
144259
144376
144494
144612
144730
144848
144968
145088
145207
145327
145447
145568
145689
145809
145928
146050
146171
146291
146411
146532
146654
146775
146896
147016
147136
147257
147379
147501
147621
147742
147864
147986
148107
148229
148350
148470
148591
148712
148832
148952
149072
149193
149313
149433
149553
149675
149796
149919
150041
150164
150287
150411
150534
150656
150778
150900
151022
151142
151263
151385
151508
151630
151752
151875
151999
152123
152247
152370
152491
152612
152733
152855
152977
153098
153220
153342
153464
153585
153706
153827
153948
154190
154310
154429
154548
154668
154790
154912
155036
155159
155282
155407
155532
155659
155786
155914
156041
156170
156300
156431
156562
156693
156823
156955
157088
157222
157356
157489
157621
157752
157883
158015
158147
158277
158405
158534
158663
158793
158922
159052
159181
159312
159444
159577
159709
159841
159972
160104
160236
160367
160498
160628
160760
160892
161025
161156
161288
161420
161553
161684
161814
161943
162073
162203
162332
162461
162591
162722
162854
162986
163117
163250
163382
163514
163645
163776
163907
164039
164171
164303
164435
164568
164839
164972
165106
165239
165371
165503
165635
165767
165897
166028
166157
166286
166413
166541
166668
166796
166923
167051
167180
167310
167441
167573
167704
167836
167968
168101
168234
168367
168500
168634
168770
168906
169041
169177
169314
169588
169724
169858
169993
170264
170399
170532
170666
170801
170935
171069
171201
171334
171468
171603
171738
171872
172139
172407
172680
172815
172951
173086
173222
173359
173631
173766
173902
174039
174176
174311
174446
174582
174718
174854
174989
175124
175259
175395
175530
175664
175800
175936
176072
176208
176342
176478
176752
176887
177023
177159
177295
177431
177567
177703
178253
178390
178527
178941
179078
179351
179488
179902
180039
180177
180453
180728
180864
181000
181137
181275
181412
181548
181683
181819
181954
182090
182223
182357
182491
182627
182763
182897
183032
183168
183304
183440
183575
183709
183844
183980
184116
184251
184386
184521
184657
184792
184926
185058
185189
185321
185453
185586
185718
185850
185981
186112
186243
186376
186509
186641
186773
186904
187036
187168
187300
187432
187566
187701
187836
187971
188106
188243
188380
188517
188653
188789
188927
189065
189204
189341
189478
189615
189752
189888
190025
190161
190298
190434
190707
190981
191255
191392
191529
191666
191805
191944
192081
192217
192765
192901
193038
193175
193313
193453
193592
193872
194011
194291
194432
194574
194716
194858
194998
195134
195270
195406
195539
195673
195806
195938
196070
196201
196332
196460
196588
196716
196843
196971
197100
197229
197359
197490
197622
197752
197882
198013
198144
198276
198408
198540
198672
198804
198938
199072
199208
199343
199479
199614
199751
199889
200027
200301
200437
200574
200712
200851
200989
201126
201263
201401
201541
201681
201960
202101
202242
202384
202526
202666
202805
202943
203082
203223
203363
203503
203641
203778
203914
204051
204190
204328
204468
204606
204743
204879
205015
205151
205289
205428
205568
205705
205840
205972
206104
206237
206370
206504
206638
206771
206905
207039
207175
207311
207447
207583
207718
207855
207991
208128
208264
208398
208533
208667
208802
208936
209070
209203
209337
209471
209607
209744
209878
210013
210148
210283
210419
210555
210689
210824
210959
211094
211230
211366
211501
211637
211773
211910
212047
212183
212319
212456
212593
212731
213007
213143
213280
213418
213558
213698
213837
213974
214108
214241
214375
214510
214646
214782
214916
215048
215181
215313
215446
215581
215718
215855
215991
216127
216263
216400
216536
216675
216813
216952
217091
217229
217368
217508
217650
217792
217934
218076
218217
218360
218503
218647
218789
219071
219213
219356
219501
219644
219928
220069
220211
220356
220501
220645
220786
220926
221065
221205
221345
221485
221624
221761
221899
222037
222178
222319
222460
222600
222739
222880
223022
223164
223443
223718
223856
223995
224135
224274
224411
224548
224685
224823
224963
