ekg
0
-0.00166667
-0.004
0.000714287
0.00555556
0.00136364
0.00153846
0.003
0.00382353
-7.45058e-09
0.000238083
0.00565216
0.000600003
-0.00425926
-0.00948276
-0.00451613
-0.005
-0.0108571
-0.0122973
-0.00871795
-0.00573169
-0.0124419
-0.0141111
-0.0106383
-0.0122449
-0.0188235
-0.0156604
-0.0124545
-0.0197368
-0.0219491
-0.0245901
-0.0222222
-0.0200769
-0.0176119
-0.0201449
-0.0125352
-0.0099315
-0.0120667
-0.0141558
-0.00607596
0.00209877
-0.00451807
-0.0111765
-0.00775862
-0.00938202
-0.0108242
-0.0123118
-0.00868422
-0.0101546
-0.00646465
-0.0129208
-0.00441748
-0.00104761
-0.00266355
-0.00449541
0.00873874
0.0119469
0.0102174
0.00824787
0.0213445
0.0243802
0.0226829
0.02632
0.0355512
0.0350775
0.0298092
0.0295113
0.0342963
0.0340146
0.033813
0.0335816
0.0384266
0.0382414
0.0330952
0.0327852
0.0323841
0.0367647
0.0309355
0.0296497
0.0278616
0.0251242
0.0163497
0.0119394
0.0134731
0.011213
0.0106725
0.011474
0.0177714
0.019096
0.0151955
0.0160773
0.0219126
0.0226757
0.0184492
0.0241799
0.0298953
0.030544
0.0262308
0.0269036
0.0326131
0.0432836
0.0439902
0.0446341
0.0552415
0.0558134
0.0563981
0.0619249
0.0725116
0.0781106
0.0737443
0.0793439
0.079276
0.0841855
0.079095
0.0840498
0.0990271
0.0989593
0.0988914
0.0988235
0.108778
0.103688
0.0985973
0.0885294
0.0834389
0.0683031
0.0481222
0.0329638
0.022828
0.022647
0.0124434
0.00728505
0.0121493
0.0119457
0.00671945
0.00651583
0.0113348
0.0111086
0.00588235
0.00567873
0.00545249
0.0102262
0.00497738
-0.000226241
0.00461539
0.00445702
0.00427602
-0.000859726
0.00904977
0.0189367
0.0188009
0.0237104
0.0336652
0.0435747
0.0484389
0.0633258
0.0831901
0.103032
0.117851
0.152715
0.192557
0.237398
0.277195
0.332014
0.366878
0.361719
0.321538
0.266448
0.22638
0.17129
0.0961991
0.0161991
-0.0387783
-0.0787783
-0.0987783
-0.10871
-0.108643
-0.108597
-0.0985747
-0.0835068
-0.0734389
-0.0733937
-0.0733484
-0.0682579
-0.0631448
-0.0680769
-0.0680317
-0.0679412
-0.0628281
-0.0677602
-0.0676923
-0.0626018
-0.0625113
-0.0574661
-0.0674434
-0.0623756
-0.0623077
-0.0672851
-0.0672624
-0.0722172
-0.0671719
-0.0671946
-0.0722398
-0.0722398
-0.0672398
-0.0673077
-0.0673529
-0.0623756
-0.0624434
-0.0625566
-0.0676697
-0.0627376
-0.0577602
-0.0628281
-0.0679185
-0.0679638
-0.068009
-0.0730995
-0.0781674
-0.0731674
-0.0731222
-0.0730543
-0.0779185
-0.0776923
-0.0773982
-0.0820814
-0.0816968
-0.0761991
-0.0757014
-0.0752036
-0.0797059
-0.0741629
-0.0736425
-0.0731448
-0.0726697
-0.0671946
-0.0618099
-0.0615158
-0.0662896
-0.061086
-0.055905
-0.0607692
-0.0606561
-0.0504977
-0.045362
-0.0452715
-0.050181
-0.0451131
-0.0401131
-0.040181
-0.0402489
-0.040362
-0.0355204
-0.0407919
-0.0461312
-0.0415385
-0.0370814
-0.0377828
-0.0436425
-0.039638
-0.0358371
-0.0372398
-0.0387557
-0.0351357
-0.0313122
-0.0322851
-0.0279412
-0.0232127
-0.0179864
-0.0223756
-0.0163575
-0.0100452
-0.00346153
0.00337105
0.000475122
0.00769231
0.0147964
0.0116742
0.0133484
0.0198642
0.0211086
0.0170136
0.0175566
0.0228507
0.0279638
0.0229864
0.0229638
0.0229412
0.0279185
0.0229638
0.0230769
0.0282353
0.0283937
0.023552
0.0187557
0.0239819
0.0291855
0.0194118
0.0196833
0.0249774
0.0252262
0.0204977
0.0207919
0.026086
0.0314027
0.0266742
0.026991
0.0373077
0.0375792
0.0378507
0.0381222
0.0484163
0.0536878
0.0489367
0.0492308
0.0595249
0.0597964
0.0601131
0.0704525
0.0757692
0.0760633
0.0713801
0.0717195
0.0820815
0.0873982
0.0877149
0.0880543
0.0983484
0.0986199
0.0938688
0.0891629
0.0794344
0.0696833
0.0499321
0.040181
0.0304072
0.0205656
0.0107466
0.0109502
0.0111086
0.0112444
0.0113575
0.0114706
0.0115611
0.00662897
0.00169685
0.00678734
0.00687784
0.00692309
0.00194572
0.00701359
0.00710409
0.00714933
0.00221721
0.00733033
0.0124435
0.012534
0.0226018
0.0376923
0.0477828
0.0478507
0.0579186
0.0729864
0.0930543
0.103054
0.123009
0.152986
0.187941
0.217873
0.257805
0.31276
0.357692
0.387579
0.367511
0.332466
0.292421
0.237353
0.172308
0.0823077
0.0123077
-0.0427149
-0.0676923
-0.0826471
-0.0975792
-0.102511
-0.0924434
-0.0723529
-0.0622624
-0.0721946
-0.0771267
-0.0720136
-0.0719231
-0.0718552
-0.0717647
-0.0716516
-0.0715385
-0.071448
-0.0713348
-0.0712443
-0.0761312
-0.0760633
-0.0759955
-0.075905
-0.0758145
-0.0807466
-0.0806788
-0.0806335
-0.0856109
-0.0956335
-0.0956561
-0.0906787
-0.095724
-0.0957919
-0.0958598
-0.095905
-0.0959729
-0.101063
-0.101176
-0.0962444
-0.0963349
-0.101448
-0.101561
-0.0966516
-0.0967647
-0.106923
-0.102059
-0.0971493
-0.107285
-0.107398
-0.102421
-0.0973756
-0.107308
-0.107195
-0.107059
-0.101833
-0.106584
-0.11129
-0.100973
-0.100611
-0.100272
-0.104955
-0.099638
-0.0943665
-0.0991403
-0.0989819
-0.0938688
-0.0838009
-0.0888235
-0.0888688
-0.0788914
-0.0739367
-0.0740045
-0.0690724
-0.0641403
-0.0592534
-0.0594344
-0.059638
-0.054819
-0.0450679
-0.045362
-0.050724
-0.0511539
-0.0466968
-0.0523529
-0.0531448
-0.0490498
-0.0451584
-0.0464706
-0.0479186
-0.0445475
-0.0413349
-0.0431901
-0.0448417
-0.0412217
-0.0323303
-0.0281222
-0.0284842
-0.0182353
-0.0125113
-0.0164254
-0.0150226
-0.00330318
0.00859728
0.000633471
0.00253393
0.00920814
0.0156561
0.0168778
0.0127828
0.0182805
0.0184389
0.0133484
0.0131448
0.0128733
0.0175113
0.0121493
0.0118326
0.0166289
0.0164479
0.0162217
0.0109955
0.0157918
0.0155656
0.0103393
0.0101357
0.0149321
0.0147058
0.00950222
0.0143212
0.0141402
0.018914
0.0186877
0.0184841
0.0183031
0.0180769
0.012828
0.0226018
0.0323755
0.032104
0.0317873
0.0364932
0.0412443
0.0409276
0.0406334
0.0403393
0.0500678
0.0497737
0.054457
0.0541629
0.0588914
0.0636199
0.0633032
0.0680091
0.0777602
0.0824887
0.077172
0.0769005
0.0866516
0.0813349
0.0710181
0.060724
0.0554525
0.0401131
0.0347511
0.0244118
0.024095
0.013733
0.0083258
0.00796381
0.0126018
0.0122172
0.00680997
0.00642536
0.00606336
0.000656126
0.000226261
-0.000180982
0.00945703
0.00404979
-0.00135746
0.00328055
0.00794118
0.00757919
0.00723983
0.0169457
0.0266742
0.0263801
0.0260634
0.0407919
0.050543
0.0602715
0.0799774
0.104683
0.129389
0.154005
0.18362
0.233258
0.277919
0.317557
0.372172
0.416833
0.431493
0.396154
0.350792
0.310453
0.250158
0.174887
0.0696154
-0.00061086
-0.0508145
-0.0810407
-0.096267
-0.091448
-0.0915611
-0.0817421
-0.0669231
-0.0570588
-0.0621719
-0.0572851
-0.0574434
-0.0525566
-0.0526697
-0.052828
-0.0529864
-0.0481448
-0.0532805
-0.0534389
-0.0585973
-0.053733
-0.0538461
-0.0589819
-0.0591403
-0.0542534
-0.0543665
-0.0595249
-0.0597059
-0.0548642
-0.0600226
-0.0652489
-0.0654751
-0.0606561
-0.0608145
-0.0660181
-0.071267
-0.0615158
-0.0617647
-0.0671041
-0.0673982
-0.0626471
-0.0628959
-0.06819
-0.0734842
-0.0637556
-0.0690498
-0.0693439
-0.074638
-0.0698643
-0.0700452
-0.075181
-0.0752715
-0.0752715
-0.070181
-0.0750679
-0.0798869
-0.0746154
-0.0742986
-0.0790045
-0.0787104
-0.0733484
-0.0730317
-0.0727602
-0.0725339
-0.0673303
-0.0621719
-0.0670588
-0.0669909
-0.0619231
-0.0568778
-0.0568778
-0.0568778
-0.0518326
-0.0518099
-0.0518326
-0.0519004
-0.0469909
-0.0421267
-0.0422851
-0.0424661
-0.0376244
-0.0378733
-0.0382127
-0.0386425
-0.0341403
-0.0347511
-0.0405204
-0.0414253
-0.0374661
-0.0337104
-0.0402262
-0.0368552
-0.0334842
-0.0349095
-0.0360181
-0.0318326
-0.0172172
-0.0171719
-0.0165837
-0.0154525
-0.00889139
-0.0020362
-0.00488687
0.0024887
0.00495476
0.012172
0.014095
0.0158145
0.0173077
0.0184389
0.0190724
0.0194118
0.0195249
0.0195023
0.0193665
0.014276
0.0192082
0.0191855
0.0142308
0.0143213
0.0144118
0.0195249
0.014638
0.0147738
0.0199321
0.0200905
0.0202263
0.0203846
0.0205656
0.020724
0.0208597
0.0160407
0.0212444
0.0214027
0.0165611
0.0167647
0.0219683
0.0271493
0.0273303
0.0275566
0.0377602
0.0429185
0.0330769
0.0332579
0.0434842
0.0536878
0.0538462
0.0540724
0.0693213
0.0695249
0.0697059
0.0699774
0.0802489
0.0854978
0.0857466
0.0910407
0.0913122
0.0915611
0.08681
0.0771041
0.0723982
0.0626245
0.0478281
0.0330543
0.0282806
0.0184616
0.00859729
0.00377829
0.00393666
0.00400453
-0.000927594
0.0041629
0.0042534
0.00432127
0.00438914
-0.000520365
0.00457014
0.00461539
0.00463801
-0.000294115
0.00479639
0.00488688
5.58794e-09
0.00515838
0.0103167
0.0204751
0.0256335
0.0308145
0.0359955
0.0411765
0.0463575
0.0615611
0.0767421
0.1019
0.122036
0.147195
0.182353
0.222443
0.262534
0.307647
0.36776
0.407805
0.417851
0.382964
0.333054
0.293122
0.223213
0.153371
0.0635068
-0.00638009
-0.0562443
-0.081086
-0.090905
-0.0957692
-0.100588
-0.0803846
-0.060181
-0.0549774
-0.0647738
-0.0595475
-0.0543213
-0.0591176
-0.0588914
-0.0586652
-0.0484615
-0.0532805
-0.0580769
-0.0578507
-0.0576244
-0.0574208
-0.0622172
-0.0620136
-0.0618099
-0.0616289
-0.0664253
-0.0661991
-0.0609955
-0.0608371
-0.0706787
-0.065543
-0.0654299
-0.0703167
-0.0752262
-0.0701131
-0.0700452
-0.075
-0.0749547
-0.0749095
-0.0748642
-0.079819
-0.0797738
-0.0747059
-0.0746154
-0.0745928
-0.0845927
-0.0845475
-0.0794796
-0.0844118
-0.0892986
-0.084095
-0.0788914
-0.0936652
-0.093371
-0.0929864
-0.0975339
-0.0970588
-0.0965158
-0.0909276
-0.095362
-0.099819
-0.0992986
-0.0887783
-0.0833258
-0.0879412
-0.0826018
-0.0772851
-0.0720362
-0.0768552
-0.0716742
-0.0564706
-0.0562896
-0.0561312
-0.0559502
-0.0507919
-0.0506787
-0.0505882
-0.045543
-0.0404977
-0.035543
-0.0406335
-0.0407692
-0.0409729
-0.0463122
-0.05181
-0.0523982
-0.0531222
-0.0540045
-0.0550679
-0.051267
-0.0527149
-0.0544118
-0.0562444
-0.0529864
-0.0494796
-0.045724
-0.0466063
-0.046991
-0.0367195
-0.0358145
-0.0344344
-0.0276697
-0.0155204
-0.00814479
-0.0156787
-0.00839366
-0.00138008
0.000384636
0.00185522
0.00800906
0.0137557
0.00916291
0.00936653
0.00945704
0.0145023
0.00952491
0.00452491
0.00963803
0.00984165
0.0100453
0.00520365
0.00540727
0.0106561
0.00585976
0.00606338
0.0112896
0.0165611
0.00676474
0.00696835
0.00717197
0.00737559
0.00755659
0.00771496
0.012896
0.0130769
0.0082127
0.00834845
0.0134842
0.0236426
0.0237557
0.0288462
0.0339819
0.0340951
0.0341629
0.0342308
0.0443439
0.0444344
0.0444797
0.0495475
0.054638
0.0546833
0.0547285
0.0597738
0.0598643
0.0649548
0.0700227
0.0700453
0.0750679
0.0751132
0.0650905
0.0600679
0.0600679
0.0550679
0.0399774
0.0298869
0.0197964
0.0146381
0.00445707
-0.00572393
-0.000882301
-0.00108592
-0.00635742
-0.0116289
-0.00685516
-0.00708141
-0.0123303
-0.0125565
-0.00776014
-0.00296376
-0.00821263
-0.0134163
-0.00855201
-0.00868776
-0.00884613
-0.00400451
0.00588237
0.0107466
0.0155882
0.0204525
0.0403394
0.0502263
0.0550679
0.0749095
0.104751
0.134548
0.159276
0.194027
0.238756
0.283462
0.318145
0.377851
0.437557
0.472217
0.4669
0.426606
0.396335
0.336063
0.250792
0.140543
0.0403167
-0.0249095
-0.0651357
-0.0903167
-0.100475
-0.110611
-0.105769
-0.095905
-0.0810407
-0.0861991
-0.0863348
-0.086448
-0.0815385
-0.0866968
-0.0868326
-0.0869683
-0.0871041
-0.0872624
-0.0924208
-0.0925339
-0.087647
-0.0877828
-0.0929412
-0.0980995
-0.0932579
-0.0934615
-0.0986651
-0.0988461
-0.0890271
-0.094276
-0.0945022
-0.0947285
-0.09
-0.0902941
-0.0955882
-0.0958597
-0.0861538
-0.0914932
-0.0918552
-0.0921719
-0.082466
-0.0878054
-0.0931222
-0.0884163
-0.083733
-0.089095
-0.0944344
-0.0897059
-0.0849321
-0.0901357
-0.0952488
-0.0852715
-0.0902489
-0.090181
-0.0950679
-0.0949095
-0.0897285
-0.0895475
-0.0893439
-0.089095
-0.0788688
-0.0836878
-0.0835294
-0.0783258
-0.0731674
-0.0730769
-0.073009
-0.0629864
-0.058009
-0.0580769
-0.05819
-0.0532579
-0.043371
-0.0435068
-0.0436878
-0.0388914
-0.0391403
-0.039457
-0.0397737
-0.0351131
-0.0304977
-0.0359954
-0.0365611
-0.0371945
-0.0329864
-0.033914
-0.04
-0.0361991
-0.0326471
-0.034276
-0.0360407
-0.0326923
-0.0291177
-0.0303394
-0.0312217
-0.0267195
-0.0166968
-0.0212217
-0.0153393
-0.00904975
-0.00246605
-0.000656087
0.00144799
0.0138236
0.0113122
0.0137104
0.0159276
0.0230317
0.0248643
0.0213122
0.0272625
0.0277828
0.0279865
0.0229865
0.027896
0.0277828
0.0226245
0.0224887
0.0274435
0.0325113
0.027534
0.0275566
0.0276244
0.0377376
0.0328281
0.0328959
0.0379864
0.0380769
0.0331674
0.0282127
0.0282579
0.0333484
0.0334389
0.0334842
0.0385294
0.0435973
0.0436652
0.0436878
0.0487104
0.0538009
0.0488687
0.048914
0.0589819
0.0640724
0.0641855
0.0642534
0.0693212
0.074457
0.0795475
0.074638
0.0797059
0.0898642
0.09
0.0901131
0.0952488
0.105407
0.100543
0.0956335
0.0857466
0.0808823
0.0659728
0.0510181
0.041086
0.0311312
0.0261765
0.0161765
0.0161539
0.0211539
0.0161312
0.0110634
0.0159955
0.0159729
0.0159276
0.00583712
0.0107919
0.0107919
0.00576925
0.00572399
0.0107466
0.0108145
0.0108371
0.00583711
0.0158597
0.0159729
0.0210634
0.0311086
0.0411991
0.0513122
0.0514027
0.0614706
0.0765611
0.0966742
0.106742
0.126787
0.161833
0.1919
0.231946
0.266946
0.326946
0.371968
0.406991
0.401991
0.361991
0.322036
0.267059
0.212059
0.127081
0.0521493
-0.00282806
-0.0478054
-0.0677602
-0.0826697
-0.0876018
-0.0875566
-0.0774435
-0.0623303
-0.0622172
-0.0671267
-0.0670136
-0.0668778
-0.0667873
-0.0716742
-0.0665611
-0.0614253
-0.0663348
-0.071267
-0.0711538
-0.0710633
-0.0809955
-0.090905
-0.0857692
-0.0856561
-0.0955656
-0.100475
-0.100339
-0.0952262
-0.100136
-0.100068
-0.1
-0.0949548
-0.0949774
-0.100023
-0.100023
-0.0950453
-0.10009
-0.100136
-0.100158
-0.095181
-0.0952489
-0.100317
-0.100339
-0.0953846
-0.100475
-0.100543
-0.105588
-0.100633
-0.100724
-0.105792
-0.100792
-0.100724
-0.0956561
-0.10552
-0.105249
-0.10491
-0.104548
-0.104163
-0.103688
-0.0982353
-0.0978281
-0.0974887
-0.0921493
-0.0868552
-0.081629
-0.081448
-0.0812896
-0.0761538
-0.0710634
-0.0709955
-0.0658823
-0.0557918
-0.0557466
-0.0557013
-0.0556335
-0.0455882
-0.0506561
-0.0557466
-0.0508371
-0.0459955
-0.0511991
-0.0564253
-0.0467194
-0.042104
-0.0426697
-0.053371
-0.0492307
-0.0403393
-0.0466516
-0.0532126
-0.0499547
-0.0470588
-0.0493891
-0.0516516
-0.048733
-0.0455882
-0.0472172
-0.048371
-0.0438688
-0.0386199
-0.0326923
-0.0311991
-0.0292986
-0.022104
-0.0148868
-0.017828
-0.0109954
-0.00445697
-0.00319001
-0.00228503
0.00330321
0.00861995
0.00871045
0.00373307
0.00871045
0.0136426
0.00855207
0.00350683
0.00355208
0.00859733
0.00859732
0.00359732
0.00861994
0.00864256
0.00861993
0.00361994
0.00866518
0.0186652
0.00861993
0.00859731
0.0135747
0.0135068
0.00837106
0.00828056
0.0132127
0.0130996
0.0129412
0.0127828
0.0176697
0.0275113
0.0273077
0.0271267
0.0369683
0.0417873
0.0365385
0.0413122
0.0461312
0.050905
0.0506787
0.0504751
0.0602941
0.0650905
0.0598642
0.059638
0.069457
0.0742308
0.0739819
0.073733
0.0835068
0.0832579
0.0729638
0.0626923
0.0574208
0.0471267
0.0267647
0.0114027
0.00606332
0.00567871
-0.00472853
-0.00515839
-0.000565629
0.00400451
-0.00144797
-0.00687783
-0.00730769
-0.00773756
-0.01319
-0.0136199
-0.0140272
-0.00941177
-0.014819
-0.0152036
-0.0105204
-0.0058371
-0.0111765
-0.00649321
0.00823529
0.0179186
0.0175566
0.0272172
0.0369005
0.0465385
0.0611539
0.0808145
0.115498
0.155136
0.189706
0.249299
0.303914
0.368484
0.418032
0.497602
0.557195
0.556742
0.536312
0.495905
0.465498
0.395068
0.279638
0.154253
0.0388914
-0.0264706
-0.0718552
-0.102217
-0.112557
-0.117896
-0.108258
-0.0985973
-0.093914
-0.099276
-0.104615
-0.0998869
-0.0951358
-0.10043
-0.105724
-0.100995
-0.096267
-0.0965611
-0.101878
-0.102172
-0.0974661
-0.0977828
-0.103122
-0.103439
-0.0987783
-0.0991629
-0.10457
-0.0999321
-0.0952715
-0.100701
-0.101131
-0.101561
-0.0970362
-0.102557
-0.108077
-0.108575
-0.104095
-0.104638
-0.110204
-0.105747
-0.0962444
-0.101765
-0.102285
-0.0977376
-0.0881674
-0.0936199
-0.0989819
-0.0942534
-0.0944344
-0.0995701
-0.0996606
-0.0946606
-0.094638
-0.094638
-0.099638
-0.0945701
-0.0894796
-0.0943891
-0.094276
-0.0891177
-0.0839819
-0.0838914
-0.0838235
-0.0737783
-0.0687783
-0.0688914
-0.0740498
-0.0642308
-0.059457
-0.0547059
-0.0549774
-0.0502489
-0.045543
-0.045905
-0.0413122
-0.0367873
-0.0323077
-0.0379412
-0.0386425
-0.0394796
-0.0354525
-0.0366063
-0.0429412
-0.044457
-0.0412217
-0.0482127
-0.0504299
-0.0477149
-0.0449321
-0.0469457
-0.0486652
-0.0451131
-0.0461539
-0.0466742
-0.0466516
-0.0361539
-0.0303167
-0.0292308
-0.0228281
-0.0161539
-0.0142308
-0.0121493
-0.00975114
0.00291853
0.000542964
0.0030769
0.0104525
0.0176697
0.0195701
0.0159502
0.0168099
0.0221493
0.0271719
0.0219909
0.0216968
0.02638
0.0259954
0.0256787
0.0254298
0.035181
0.0299095
0.0196154
0.0193665
0.0291403
0.0238688
0.0235746
0.0283258
0.0280769
0.027828
0.0225792
0.0273529
0.0321493
0.0319231
0.0316742
0.0364479
0.0462217
0.0459955
0.0407692
0.0455882
0.0554299
0.0552489
0.0600905
0.0699547
0.074819
0.0746606
0.0744796
0.0793213
0.0841855
0.0890498
0.0888914
0.0887557
0.0936652
0.093552
0.0884389
0.0883484
0.0882806
0.07319
0.0580996
0.0430317
0.0329186
0.0227828
0.0126471
0.0125339
0.0123982
0.0122398
0.00705882
0.00687782
0.00669683
0.0014932
0.00128959
0.00608597
0.00588235
0.000678731
0.000452487
0.000294116
0.00513574
-2.26256e-05
-0.000180996
0.00972851
0.00463801
0.00957014
0.0145249
0.0245023
0.0344796
0.0394344
0.0544344
0.0644344
0.084457
0.099457
0.129457
0.164457
0.199457
0.239457
0.284434
0.344389
0.389321
0.444231
0.474163
0.469095
0.424005
0.368937
0.318891
0.238824
0.138733
0.0386425
-0.0314027
-0.0664027
-0.0864027
-0.0964027
-0.101357
-0.0912896
-0.0762217
-0.0661312
-0.0660407
-0.0559276
-0.0558598
-0.0607693
-0.0556335
-0.0555204
-0.0554073
-0.0652941
-0.0651584
-0.0600226
-0.0598869
-0.0647511
-0.0695928
-0.0594118
-0.0642534
-0.0690724
-0.0638688
-0.0636426
-0.0634616
-0.0683484
-0.0682353
-0.0630996
-0.0630091
-0.0678959
-0.0627602
-0.0626697
-0.0675792
-0.0725113
-0.0724434
-0.067353
-0.0672851
-0.0722172
-0.0671493
-0.0670588
-0.0720136
-0.0770136
-0.0769683
-0.0769005
-0.0818326
-0.0867421
-0.0815611
-0.0813575
-0.0811312
-0.0858145
-0.0854072
-0.0849321
-0.0843665
-0.0837557
-0.0830996
-0.0823982
-0.0816968
-0.0809955
-0.0752715
-0.0745928
-0.0790045
-0.0784616
-0.0679638
-0.0675339
-0.067172
-0.06681
-0.061448
-0.0561086
-0.0557692
-0.0504299
-0.0450905
-0.0447738
-0.0445023
-0.0392534
-0.0340272
-0.0338688
-0.0287783
-0.0337104
-0.0287104
-0.0287783
-0.0340272
-0.0393891
-0.0348869
-0.0356335
-0.0416063
-0.0427602
-0.0391403
-0.0357466
-0.0426244
-0.0395475
-0.0414027
-0.0430317
-0.044457
-0.045543
-0.0410633
-0.040905
-0.0400452
-0.0335973
-0.0216063
-0.019276
-0.0216289
-0.013733
-0.000859712
-0.00328053
-0.00597283
0.00615386
0.0129638
0.0142986
0.005181
0.00574661
0.0111765
0.0115159
0.00680997
0.00710409
0.00746608
0.00289595
0.00337106
0.0088688
0.0144344
0.00997739
0.00549776
0.0160634
0.016629
0.012172
0.00769233
0.0132127
0.0187783
0.0143213
0.00984165
0.010362
0.0159276
0.0114706
0.00699097
0.0125566
0.0181222
0.0236652
0.0241855
0.0297059
0.0352715
0.0308145
0.0313575
0.0419457
0.0425339
0.0430996
0.0486425
0.0491855
0.0547511
0.0553167
0.0608371
0.0664027
0.0769457
0.0824661
0.0779638
0.0834615
0.0839593
0.0843891
0.0747964
0.0752489
0.0706561
0.0510407
0.0363801
0.0267195
0.0120362
0.00230769
-0.00742082
-0.0121493
-0.0119005
-0.0166742
-0.0214706
-0.0112443
-0.00604073
-0.0108824
-0.0157466
-0.0105656
-0.00540724
-0.0152941
-0.0151584
-0.00997738
-0.00979639
-0.014638
-0.0144796
-0.00927603
-0.00409503
0.00108597
0.0112896
0.0265385
0.0367647
0.041991
0.0571946
0.0774208
0.112624
0.13776
0.177896
0.228032
0.283145
0.328213
0.388258
0.448326
0.513371
0.538371
0.533394
0.503416
0.473394
0.428348
0.338281
0.223213
0.108122
0.0230317
-0.0370362
-0.0670814
-0.0821267
-0.107217
-0.107262
-0.0872851
-0.0823303
-0.0924208
-0.102421
-0.0973982
-0.0973982
-0.0974434
-0.102466
-0.102466
-0.102466
-0.107489
-0.112489
-0.112489
-0.112534
-0.117624
-0.12267
-0.117715
-0.117828
-0.122986
-0.1231
-0.118213
-0.123394
-0.123597
-0.128778
-0.123937
-0.124163
-0.129412
-0.129661
-0.129887
-0.130181
-0.13552
-0.135837
-0.131154
-0.131471
-0.13181
-0.137127
-0.132421
-0.137783
-0.1431
-0.143326
-0.143484
-0.143597
-0.14362
-0.143597
-0.143552
-0.138484
-0.143371
-0.13819
-0.137986
-0.13776
-0.137557
-0.137308
-0.127059
-0.126833
-0.131629
-0.121403
-0.116199
-0.111109
-0.111063
-0.106063
-0.0961312
-0.0962443
-0.0964253
-0.0916289
-0.0868552
-0.0821493
-0.0824887
-0.0778054
-0.0731448
-0.0685294
-0.0690045
-0.0645249
-0.0551584
-0.0609955
-0.0669683
-0.0630995
-0.0594344
-0.0560181
-0.0628054
-0.0597964
-0.0619457
-0.0640498
-0.0709955
-0.0676244
-0.0640271
-0.0650679
-0.0655882
-0.060543
-0.0500452
-0.054276
-0.0482127
-0.0418778
-0.0352941
-0.0285294
-0.0265384
-0.0143212
-0.00685517
-0.00427598
-0.0016968
0.010724
0.0179865
0.0250453
0.0316968
0.0378281
0.0384163
0.0386199
0.0435973
0.0434389
0.0481901
0.0428507
0.0475113
0.0472625
0.0520136
0.0417421
0.0414254
0.0461086
0.0457693
0.0404073
0.0400679
0.0397059
0.0393439
0.0339593
0.0335747
0.0382127
0.0478281
0.0424435
0.0470589
0.0566969
0.0613349
0.0609503
0.0605883
0.0702263
0.0698417
0.0694571
0.0690724
0.0787105
0.0783258
0.0779186
0.077534
0.0871494
0.0917648
0.0913575
0.0959729
0.100611
0.105226
0.104842
0.104434
0.114027
0.103575
0.0931222
0.0776697
0.0671946
0.0516968
0.0411991
0.0407014
0.0351584
0.0296154
0.0190498
0.0234841
0.0228959
0.0222624
0.0166289
0.0159728
0.0203393
0.0146832
0.00902713
0.00841627
0.0128054
0.00719456
0.00660633
0.00606334
0.00552036
0.01
0.00950227
0.0140724
0.0236652
0.0282806
0.0328959
0.042534
0.047172
0.0618326
0.0764932
0.106176
0.14086
0.17052
0.210181
0.254842
0.304457
0.349095
0.39871
0.438348
0.432941
0.407534
0.352104
0.311674
0.236244
0.135814
0.0303846
-0.0350226
-0.0704072
-0.0958145
-0.106199
-0.106538
-0.101855
-0.0921493
-0.0824434
-0.0726923
-0.0729412
-0.0781674
-0.0733937
-0.068552
-0.0687104
-0.0688462
-0.0689367
-0.0640045
-0.064095
-0.0741855
-0.0742308
-0.069276
-0.0743213
-0.0743891
-0.0744344
-0.0694796
-0.0745475
-0.0746606
-0.0697511
-0.0648416
-0.0599548
-0.0700905
-0.0652262
-0.0653846
-0.0655882
-0.0708145
-0.0760181
-0.0712217
-0.0764027
-0.081629
-0.0818326
-0.081991
-0.082172
-0.0873529
-0.0825339
-0.0826923
-0.0828507
-0.0879412
-0.0879638
-0.0829186
-0.0828054
-0.0876697
-0.0874434
-0.0871493
-0.08681
-0.0914706
-0.091086
-0.0856561
-0.0852262
-0.0847964
-0.0793213
-0.0738009
-0.0783484
-0.0779412
-0.0725566
-0.0672398
-0.0669909
-0.0667873
-0.0565385
-0.0513122
-0.0511312
-0.0460181
-0.040905
-0.0308371
-0.0308145
-0.0258597
-0.0209276
-0.0160181
-0.0212217
-0.0215385
-0.0169683
-0.0125566
-0.0183484
-0.0243439
-0.015543
-0.0220136
-0.028733
-0.0407466
-0.0429864
-0.0453846
-0.0477602
-0.0499774
-0.0470588
-0.0488914
-0.0503394
-0.0511312
-0.0411765
-0.0406109
-0.0445701
-0.0381222
-0.0213348
-0.019276
-0.0170362
-0.0146154
-0.00201358
0.000542982
0.00298642
0.0102036
0.0172398
0.0189366
0.020181
0.0209728
0.0264932
0.0268326
0.0270362
0.0222172
0.0224208
0.0226244
0.0228733
0.02319
0.028552
0.0238914
0.0242081
0.0195701
0.0249548
0.0253394
0.0207014
0.021086
0.0264932
0.0269005
0.0222398
0.0225566
0.0279412
0.0282805
0.0285973
0.0289593
0.0393439
0.0396833
0.035
0.0403846
0.0457918
0.0461991
0.0465611
0.0519683
0.0623982
0.0627828
0.0581448
0.0635068
0.0689366
0.0743213
0.0746606
0.0750226
0.0853846
0.085724
0.0860181
0.0913575
0.0916742
0.0769457
0.062172
0.0573756
0.0426018
0.0377828
0.0179412
0.0130996
0.00825793
0.00837105
0.00343893
-0.0014932
0.00357467
0.00361991
-0.00635746
-0.00631222
-0.00124435
-0.00122172
-0.0112217
-0.00617647
-0.00610859
-0.00606334
-0.0160407
-0.0159502
-0.0108145
-0.00570134
-0.0005656
0.00957015
0.0197738
0.0299774
0.035181
0.0454073
0.0656561
0.0858597
0.111018
0.151222
0.191448
0.236606
0.281719
0.341878
0.402014
0.467081
0.522081
0.567082
0.567082
0.537036
0.516968
0.466923
0.396878
0.26681
0.131697
0.0316742
-0.0433484
-0.0933937
-0.123439
-0.133394
-0.128348
-0.118348
-0.118326
-0.113235
-0.113145
-0.118077
-0.117964
-0.117828
-0.11767
-0.122534
-0.127398
-0.122217
-0.117036
-0.121878
-0.126765
-0.121652
-0.121561
-0.126493
-0.126448
-0.12138
-0.121335
-0.126335
-0.126357
-0.126357
-0.12138
-0.126448
-0.126516
-0.126538
-0.121584
-0.116674
-0.126833
-0.121968
-0.117104
-0.127262
-0.127443
-0.122557
-0.117647
-0.127715
-0.127715
-0.122624
-0.122466
-0.12724
-0.131946
-0.121561
-0.121154
-0.125769
-0.135385
-0.129955
-0.12448
-0.129027
-0.128597
-0.1231
-0.117579
-0.122081
-0.116538
-0.105973
-0.100452
-0.0950226
-0.094638
-0.0842987
-0.0839819
-0.0837557
-0.0835973
-0.0734615
-0.0683711
-0.0683484
-0.0634163
-0.0584842
-0.0535973
-0.0538462
-0.0541855
-0.0496154
-0.045181
-0.0509955
-0.0519683
-0.0481674
-0.0445702
-0.0512896
-0.0583032
-0.0554751
-0.0576923
-0.0547512
-0.0616064
-0.0631674
-0.0593439
-0.0600679
-0.0602036
-0.0548643
-0.0441629
-0.0481901
-0.0469684
-0.0354978
-0.0288235
-0.0270362
-0.0250905
-0.0128733
-0.00533936
-0.00255655
0.000407249
0.0133937
0.0212896
0.0240724
0.0266063
0.0338462
0.0454978
0.0365385
0.0371267
0.0374435
0.042534
0.0374887
0.0373756
0.0473077
0.0423077
0.0372851
0.0372851
0.0423077
0.0373303
0.0373303
0.0323077
0.0373077
0.0373077
0.0322624
0.0322398
0.0372624
0.0422851
0.0422624
0.0472624
0.0522851
0.0572851
0.0572625
0.0572625
0.0672851
0.0673077
0.0673077
0.0722851
0.0772624
0.0772624
0.0722624
0.0772624
0.0822851
0.0973303
0.0973077
0.0973077
0.10233
0.107308
0.102262
0.0972172
0.0871946
0.0771493
0.0620588
0.0469909
0.0319004
0.0217873
0.0116063
0.00642534
0.00626698
0.0110634
0.00579187
0.000497743
0.00524888
0.00993213
0.00457015
-0.000769228
0.00391404
-0.00144796
-0.00680994
-0.0121493
-0.00744343
-0.00271492
-0.00800904
-0.00825791
-0.00848415
0.0012896
0.00104073
0.0108371
0.0206787
0.0355204
0.040362
0.0502489
0.070181
0.0900905
0.114977
0.144887
0.189842
0.229774
0.279661
0.324548
0.384434
0.449276
0.48905
0.503824
0.473597
0.438371
0.3831
0.307828
0.212579
0.0923077
0.00701357
-0.0532579
-0.0884842
-0.103756
-0.119027
-0.119253
-0.099457
-0.0746606
-0.0748643
-0.08
-0.0800905
-0.0752036
-0.0803394
-0.0904525
-0.0854977
-0.0805656
-0.0856335
-0.0856787
-0.0856787
-0.0857466
-0.10086
-0.100973
-0.101063
-0.0961991
-0.101357
-0.106448
-0.101561
-0.101719
-0.106923
-0.112104
-0.107285
-0.102511
-0.107805
-0.113077
-0.108326
-0.108643
-0.114005
-0.119367
-0.114706
-0.11509
-0.120475
-0.120814
-0.116131
-0.116425
-0.121697
-0.126855
-0.121923
-0.116946
-0.1119
-0.121787
-0.121652
-0.121538
-0.121403
-0.121222
-0.115973
-0.115747
-0.11552
-0.115271
-0.11
-0.104774
-0.10457
-0.109389
-0.0992534
-0.0992081
-0.0942308
-0.0943439
-0.0845022
-0.0747285
-0.08
-0.0752715
-0.070543
-0.060905
-0.0663348
-0.0567647
-0.0472398
-0.0478054
-0.0485068
-0.044276
-0.0402488
-0.0364253
-0.042828
-0.0444344
-0.0412217
-0.0433258
-0.0506787
-0.0532353
-0.0507692
-0.0532353
-0.0605203
-0.062466
-0.0589592
-0.0649095
-0.0702488
-0.0651131
-0.0596606
-0.0590271
-0.0631674
-0.0620362
-0.0507466
-0.0443212
-0.0377375
-0.0308597
-0.0186877
-0.0113801
-0.00900448
-0.00174204
0.00536203
0.0071946
0.00871044
0.014819
0.0203846
0.0205204
0.0204073
0.0251584
0.024819
0.0244118
0.0240046
0.0237104
0.0235068
0.0183032
0.0130996
0.0179412
0.0227829
0.0276019
0.0173756
0.0221946
0.0220136
0.0217874
0.0215838
0.0263801
0.0361765
0.0358824
0.0356109
0.0403394
0.0450905
0.0397964
0.0395023
0.0442534
0.0539819
0.0536878
0.0483937
0.0581448
0.0678733
0.0675792
0.0622625
0.0719683
0.0816516
0.0862896
0.0859276
0.0955882
0.100226
0.0948416
0.0944796
0.0891403
0.0837556
0.0683484
0.0479412
0.0375565
0.0271493
0.0167421
0.0112896
0.0108145
0.0102941
0.0047285
0.00418552
0.00864253
0.00807692
0.00748868
0.00690045
0.0113122
0.0107014
0.00511312
0.00452488
0.00898191
0.00843892
0.0129186
0.0124435
0.0170136
0.0216063
0.0211991
0.0258371
0.0404978
0.050181
0.0548643
0.0695928
0.0843213
0.109005
0.128688
0.168371
0.208054
0.252738
0.302421
0.347081
0.411719
0.466357
0.510973
0.515588
0.500204
0.469796
0.404344
0.318914
0.203484
0.0780091
-0.00748869
-0.0579638
-0.0734163
-0.0938914
-0.109367
-0.104842
-0.0852489
-0.0756561
-0.0810181
-0.0813348
-0.0716063
-0.0718778
-0.0771493
-0.0773529
-0.0725792
-0.0778507
-0.0831448
-0.0834163
-0.0737104
-0.0790498
-0.0843665
-0.0796833
-0.0800226
-0.0803846
-0.0857466
-0.0811086
-0.0814706
-0.0868778
-0.0972851
-0.0926697
-0.0930996
-0.0935068
-0.0989819
-0.0944344
-0.0899095
-0.0954299
-0.095905
-0.0963349
-0.0916742
-0.0969683
-0.0971946
-0.0973303
-0.0924208
-0.0974887
-0.102511
-0.0974887
-0.0974208
-0.102353
-0.107308
-0.0972172
-0.0970815
-0.0969457
-0.09681
-0.091629
-0.0864253
-0.0911991
-0.0909502
-0.0856561
-0.0853394
-0.0900679
-0.0897738
-0.0795023
-0.079276
-0.0841403
-0.0841177
-0.0741855
-0.0693439
-0.0695928
-0.0649095
-0.0553167
-0.0458371
-0.0515158
-0.0473077
-0.0432579
-0.0394118
-0.0407466
-0.0372851
-0.0290272
-0.0360634
-0.0433032
-0.0455882
-0.0476923
-0.0496606
-0.0613801
-0.0627602
-0.0585973
-0.063914
-0.0688914
-0.0685973
-0.0630995
-0.0675113
-0.0668552
-0.0561086
-0.045362
-0.0446154
-0.0387557
-0.0326697
-0.0264027
-0.0299548
-0.0232805
-0.0113801
-0.00918552
-0.00674208
-0.00407239
0.00364254
0.0112896
0.0187783
0.0159955
0.0228507
0.0291629
0.0298869
0.0302489
0.0303846
0.0354525
0.0304299
0.030362
0.0253394
0.0303846
0.0254977
0.0206109
0.0207692
0.0259729
0.0261539
0.0163349
0.0265158
0.0367195
0.0419005
0.0420815
0.0522625
0.0624661
0.0576471
0.0628281
0.0680543
0.0732579
0.0734615
0.0736652
0.0738914
0.079095
0.074276
0.0744344
0.0896154
0.0897964
0.0949548
0.0950905
0.100249
0.110385
0.100475
0.0955882
0.0857014
0.0757919
0.0608371
0.0458597
0.0408597
0.0308371
0.0207692
0.0156787
0.0156109
0.0154977
0.015362
0.0152036
0.0150679
0.0148869
0.00970587
0.00952488
0.0143439
0.0141629
0.00895927
0.00875565
0.00857466
0.0133484
0.00812217
0.00789593
0.0127376
0.0175792
0.0223982
0.0322398
0.0421041
0.0520136
0.0619231
0.0818778
0.106878
0.136878
0.161855
0.201855
0.246878
0.286878
0.331855
0.381833
0.446855
0.48681
0.496719
0.461629
0.431516
0.381403
0.306244
0.191109
0.0809729
0.00581448
-0.0493665
-0.0795475
-0.0897059
-0.0998869
-0.10509
-0.0902262
-0.0653167
-0.0704072
-0.0804977
-0.080543
-0.0755656
-0.0756109
-0.0806335
-0.0805882
-0.0805204
-0.0854525
-0.0904072
-0.0903167
-0.0852036
-0.0901131
-0.0950679
-0.09
-0.0849095
-0.0898642
-0.0898416
-0.089819
-0.0897738
-0.0947738
-0.099819
-0.0948869
-0.0999321
-0.105
-0.115113
-0.115226
-0.110317
-0.115452
-0.115679
-0.11586
-0.115995
-0.121154
-0.121312
-0.116425
-0.116448
-0.121471
-0.126403
-0.121267
-0.121041
-0.125769
-0.125475
-0.120158
-0.119796
-0.124434
-0.124118
-0.123756
-0.118326
-0.117896
-0.117466
-0.107014
-0.101493
-0.105995
-0.105543
-0.0951131
-0.0897285
-0.0844118
-0.0791855
-0.0689819
-0.0638009
-0.0636878
-0.0636652
-0.0536651
-0.0536878
-0.0537556
-0.0488688
-0.0390271
-0.0392534
-0.039638
-0.0351584
-0.0308145
-0.0316516
-0.0327375
-0.0340724
-0.0256561
-0.0325339
-0.0347285
-0.0421041
-0.0444118
-0.0465611
-0.0534842
-0.0500452
-0.0561086
-0.0564706
-0.0612896
-0.0607013
-0.049819
-0.0486878
-0.0474208
-0.0459502
-0.0342986
-0.0275113
-0.0205656
-0.0183936
-0.00592758
0.00171948
0.00438916
0.0119005
0.014276
0.016448
0.0132806
0.0195702
0.0203847
0.0208824
0.0211086
0.0212218
0.0213123
0.0263801
0.0214254
0.0215385
0.0217647
0.0269684
0.0221267
0.0222851
0.0224887
0.0226923
0.0178507
0.0130091
0.0131901
0.0183484
0.0134616
0.0135747
0.0237331
0.0288688
0.0289819
0.0291177
0.039276
0.0444344
0.0445475
0.0446833
0.0498417
0.0599548
0.0600227
0.0601131
0.0602036
0.0652489
0.0652489
0.0652263
0.0752715
0.0852941
0.0852715
0.0852263
0.0952037
0.0951358
0.0950227
0.0849548
0.0798869
0.0647738
0.0546154
0.039457
0.0292987
0.024095
0.0188462
0.0135973
0.00832581
0.0180091
0.0226471
0.00726246
0.0119231
0.0115611
0.0111765
0.00583711
0.000520371
0.005181
-0.000180988
-0.000497732
-0.000791848
0.00395928
0.0037104
-0.00147059
0.00339366
0.0182353
0.0230769
0.0279638
0.0378733
0.0477828
0.0576923
0.0726471
0.102624
0.132557
0.167443
0.207353
0.257262
0.312127
0.366946
0.43681
0.501652
0.541471
0.531222
0.500973
0.455747
0.385475
0.285204
0.139955
0.0297285
-0.040543
-0.0808597
-0.106086
-0.111312
-0.116561
-0.111833
-0.102014
-0.092172
-0.0923303
-0.0924887
-0.0926018
-0.0876697
-0.0877828
-0.0878959
-0.0930091
-0.0931222
-0.0883032
-0.0934842
-0.0986425
-0.0937783
-0.0989593
-0.104186
-0.109389
-0.109593
-0.109842
-0.110113
-0.110362
-0.110611
-0.110905
-0.116222
-0.116561
-0.1119
-0.112308
-0.11776
-0.11819
-0.113575
-0.113937
-0.119253
-0.119412
-0.11948
-0.11948
-0.119457
-0.124344
-0.114208
-0.119095
-0.123982
-0.118824
-0.11362
-0.113439
-0.118235
-0.113032
-0.112805
-0.107579
-0.117376
-0.117059
-0.106719
-0.10138
-0.106041
-0.100633
-0.0902262
-0.0948643
-0.0945475
-0.0892987
-0.0841629
-0.0791403
-0.0792082
-0.0743665
-0.064638
-0.0600452
-0.0556109
-0.0513348
-0.0422624
-0.0383937
-0.0448643
-0.0414932
-0.0384163
-0.0405882
-0.0429412
-0.045362
-0.0426018
-0.0446833
-0.0464706
-0.0528733
-0.0487104
-0.0539819
-0.0588914
-0.053552
-0.0530543
-0.0524887
-0.0568552
-0.0561765
-0.0504977
-0.0498416
-0.054095
-0.0431674
-0.0271267
-0.0259729
-0.0246154
-0.0130091
-0.00115385
0.000950223
0.00339366
0.0111312
0.0240498
0.0269005
0.024638
0.0321719
0.0393891
0.0311312
0.0272398
0.0328733
0.0431674
0.0332805
0.0333032
0.0383258
0.0433258
0.0333484
0.0334389
0.0385747
0.0387104
0.0388461
0.0340045
0.0441855
0.0493439
0.0495023
0.0496606
0.059819
0.0649774
0.0600905
0.0552262
0.0654072
0.0755656
0.0707014
0.0758371
0.0809729
0.086086
0.0812217
0.0863801
0.0915385
0.0966742
0.101765
0.1019
0.112014
0.117127
0.112195
0.107262
0.097353
0.0874208
0.0624435
0.0474661
0.0324887
0.0274661
0.0174434
0.0173982
0.0223303
0.0221946
0.0170136
0.0168778
0.0217195
0.0165385
0.0163122
0.0161086
0.015905
0.0206787
0.00540724
0.0101584
0.00997737
0.00979638
0.00459275
0.00443438
0.0143439
0.0142081
0.0240724
0.0339819
0.0489367
0.0538914
0.0638461
0.0838462
0.108869
0.138891
0.168937
0.224027
0.274163
0.334276
0.374367
0.439502
0.494615
0.529683
0.539751
0.504842
0.464932
0.399977
0.315023
0.195068
0.0701131
-0.0148643
-0.0648416
-0.0847964
-0.0947511
-0.104706
-0.104683
-0.094638
-0.0795702
-0.0845249
-0.0944797
-0.0893665
-0.0791855
-0.0840272
-0.0888462
-0.0885973
-0.0883258
-0.0930543
-0.0927602
-0.0924435
-0.0871267
-0.0918326
-0.0915837
-0.0913575
-0.0861086
-0.0909276
-0.0957466
-0.090543
-0.0903394
-0.0952036
-0.100068
-0.0999095
-0.0997511
-0.104638
-0.104502
-0.104367
-0.104276
-0.109231
-0.109208
-0.10414
-0.10405
-0.109005
-0.108914
-0.103756
-0.098552
-0.108326
-0.113032
-0.112602
-0.112104
-0.116584
-0.115995
-0.110362
-0.114729
-0.119118
-0.118462
-0.11276
-0.107059
-0.116335
-0.105611
-0.104819
-0.0990272
-0.0982579
-0.0975113
-0.09181
-0.0861765
-0.0856561
-0.085181
-0.0747964
-0.0745249
-0.0743439
-0.0591629
-0.0490045
-0.043914
-0.0488914
-0.038914
-0.0340498
-0.0293213
-0.0297511
-0.030362
-0.0212443
-0.0223529
-0.0287557
-0.0354299
-0.0323982
-0.0346154
-0.0418552
-0.0489819
-0.0458824
-0.0475339
-0.053733
-0.0592986
-0.0542082
-0.0537104
-0.0579186
-0.0519457
-0.0458145
-0.0445249
-0.0480995
-0.0464932
-0.0347059
-0.0326697
-0.0354751
-0.0229864
-0.0102715
-0.00739815
-0.00950223
-0.00171942
0.0108824
0.0131901
0.0101358
0.0165385
0.0173756
0.0128055
0.0130317
0.0131675
0.013258
0.0132806
0.00832585
0.00843897
0.0135973
0.00871047
0.00380097
0.00393672
0.00909509
0.00420821
-0.000678666
0.00445707
0.00457019
-0.000361927
-0.000271425
0.0098417
0.0149548
0.0200001
0.0300453
0.0301132
0.0351811
0.0302037
0.0302263
0.0402942
0.0453394
0.0453621
0.0453847
0.0504299
0.0504299
0.0453847
0.0503621
0.0603394
0.0702942
0.0702037
0.0701358
0.0700679
0.0799774
0.0698191
0.0646607
0.0595476
0.0494344
0.0292534
0.0090272
0.00382359
-0.00640266
-0.0166968
-0.0219909
-0.0172624
-0.0175791
-0.0229638
-0.028371
-0.0237783
-0.0241629
-0.0246154
-0.0300226
-0.0254072
-0.0257918
-0.0261991
-0.0266063
-0.0219457
-0.022285
-0.0276244
-0.0229638
-0.00323526
0.00649324
0.00619913
0.0159955
0.0308598
0.0407466
0.0505883
0.0804751
0.105385
0.140294
0.180158
0.24
0.294887
0.344751
0.409548
0.474299
0.529072
0.528824
0.503507
0.46319
0.407896
0.317602
0.187262
0.0569231
-0.0283936
-0.0837104
-0.104095
-0.114434
-0.119751
-0.120068
-0.10543
-0.0958145
-0.0911086
-0.0864253
-0.0867647
-0.0820588
-0.0823077
-0.0775792
-0.0878959
-0.08819
-0.0884615
-0.093733
-0.0940724
-0.0943665
-0.0896606
-0.095
-0.095362
-0.0957692
-0.0911538
-0.0965611
-0.102014
-0.0974661
-0.0928959
-0.098371
-0.103959
-0.0995249
-0.0950905
-0.100679
-0.106335
-0.101968
-0.0976018
-0.103213
-0.108801
-0.104276
-0.094638
-0.0949095
-0.10009
-0.0952488
-0.0903393
-0.0954525
-0.100588
-0.0956561
-0.0957013
-0.100747
-0.105814
-0.0958597
-0.0908823
-0.0959276
-0.0959502
-0.0909276
-0.0858371
-0.0907466
-0.0856787
-0.0806108
-0.0704977
-0.0704298
-0.0754072
-0.0704298
-0.0655203
-0.0607466
-0.0661085
-0.0615384
-0.0520362
-0.0526696
-0.0534389
-0.0493212
-0.0403393
-0.0365837
-0.0330543
-0.0347059
-0.0315384
-0.0336425
-0.0410407
-0.0385973
-0.0361765
-0.0386425
-0.0509728
-0.048009
-0.0497059
-0.0509276
-0.0566063
-0.0567873
-0.0516968
-0.0564932
-0.0611991
-0.0607918
-0.0552941
-0.0547964
-0.0542534
-0.0486199
-0.037828
-0.0318778
-0.0307013
-0.0242534
-0.0125565
-0.00558821
-0.00332575
0.00420819
0.0167648
0.014163
0.0164028
0.0184163
0.0250227
0.0210408
0.0214706
0.0215385
0.0313349
0.0260408
0.0256788
0.0253168
0.0299548
0.0346381
0.0243666
0.0291177
0.0289141
0.0286878
0.0284842
0.0333258
0.0382127
0.0380543
0.0428733
0.042715
0.0525566
0.0473982
0.0472172
0.0520815
0.0569457
0.0667873
0.0616064
0.0664706
0.0713349
0.0711539
0.0709955
0.0758824
0.0957466
0.0905882
0.0954299
0.0953168
0.105181
0.104977
0.104774
0.0945928
0.0893891
0.0741403
0.053914
0.038733
0.028552
0.0233032
0.0130543
0.012828
0.0175566
0.0121946
0.0118552
0.0115158
0.0161312
0.0156787
0.0102489
0.00986426
0.00943439
0.00900453
0.00359729
0.0032353
0.00785068
0.0074887
0.00714933
0.00687784
0.011629
0.0163122
0.0210407
0.0308145
0.0406109
0.0503846
0.055181
0.0750453
0.0999095
0.129751
0.159593
0.20448
0.249389
0.294299
0.334186
0.394095
0.454005
0.493846
0.498733
0.473643
0.443507
0.383303
0.308122
0.197964
0.0828054
-0.00737556
-0.0575566
-0.0827149
-0.0928959
-0.103122
-0.113348
-0.103507
-0.0836652
-0.0788462
-0.0790045
-0.074095
-0.0641403
-0.0692081
-0.0742534
-0.0692308
-0.0691855
-0.0741629
-0.0791177
-0.0690045
-0.0739593
-0.0789367
-0.0789367
-0.0788914
-0.0788914
-0.0839366
-0.0789593
-0.0789367
-0.0739367
-0.0789819
-0.0790272
-0.0740498
-0.0740498
-0.0741177
-0.0791629
-0.0742082
-0.0742987
-0.0844118
-0.0895249
-0.0896154
-0.0847285
-0.0898416
-0.0949548
-0.0950226
-0.0900679
-0.0950905
-0.1
-0.094819
-0.0895475
-0.0942534
-0.098914
-0.0935068
-0.0930996
-0.0976923
-0.0972398
-0.0966742
-0.0911539
-0.0956335
-0.0950905
-0.0845023
-0.0789366
-0.078371
-0.077828
-0.0722851
-0.0718326
-0.0714706
-0.0711765
-0.0609276
-0.0557466
-0.0556561
-0.0505882
-0.035543
-0.0355882
-0.0356561
-0.0307692
-0.0209502
-0.016267
-0.0217421
-0.0173529
-0.0181448
-0.0191855
-0.0254525
-0.0269457
-0.0287104
-0.0307466
-0.0379186
-0.0450679
-0.0370136
-0.0438009
-0.0502036
-0.0510407
-0.0512217
-0.0509276
-0.0553394
-0.0545023
-0.0485068
-0.0423529
-0.0410181
-0.0394796
-0.0328054
-0.0259728
-0.0239593
-0.0216516
-0.00909502
-0.0113801
-0.00864252
0.00402717
0.0115385
0.0137783
0.0107014
0.0121267
0.0130317
0.0135294
0.0138235
0.0140272
0.0191629
0.0192308
0.00927603
0.00938915
0.0145928
0.014819
0.0100453
0.00531678
0.0106109
0.0108824
0.00613126
0.00642537
0.0117195
0.0119683
0.00721721
0.0174887
0.0227376
0.0279412
0.0231448
0.0283484
0.0385521
0.033733
0.0339367
0.0341629
0.0444118
0.044638
0.0448643
0.0451358
0.0503846
0.0506335
0.0508598
0.0611086
0.0663349
0.0714932
0.0716516
0.07681
0.0819457
0.0820589
0.0821494
0.0722399
0.0673077
0.0473303
0.0323303
0.022353
0.0123756
0.00735296
-0.0026923
-0.00271492
-0.0027828
-0.0078733
-0.0129638
-0.0080543
-0.00316742
-0.0083258
-0.00846155
-0.00357467
-0.00368779
-0.00880092
-0.013914
-0.00898191
-0.00907241
-0.00916291
-0.00925341
0.000723973
0.010724
0.015724
0.0257692
0.040905
0.0460181
0.0561086
0.0762217
0.106357
0.136493
0.166584
0.206674
0.261742
0.306765
0.356742
0.421719
0.481697
0.511629
0.506516
0.46638
0.436312
0.356199
0.241018
0.10586
0.0107013
-0.049457
-0.0846606
-0.0948416
-0.0999774
-0.110113
-0.110271
-0.0954299
-0.085543
-0.0856561
-0.0907692
-0.0858597
-0.080905
-0.0809955
-0.091086
-0.086086
-0.086086
-0.0911312
-0.0912217
-0.0913122
-0.0914027
-0.0965158
-0.101629
-0.0967421
-0.0918326
-0.0969683
-0.102149
-0.102353
-0.102534
-0.102738
-0.107964
-0.103213
-0.103462
-0.103733
-0.10905
-0.109367
-0.104706
-0.110068
-0.105452
-0.105747
-0.100973
-0.101154
-0.10129
-0.101335
-0.101267
-0.101199
-0.106086
-0.105928
-0.105724
-0.105543
-0.110385
-0.105181
-0.104955
-0.104751
-0.104548
-0.099276
-0.0940045
-0.0987556
-0.0985068
-0.0882127
-0.0878959
-0.0876018
-0.0872851
-0.0770136
-0.0717873
-0.0716968
-0.0717195
-0.0667873
-0.0619457
-0.0621493
-0.0624661
-0.0528733
-0.0534389
-0.0542308
-0.0552036
-0.0463801
-0.0427602
-0.0494118
-0.046267
-0.0433937
-0.0457466
-0.0482353
-0.0556787
-0.0528959
-0.0549095
-0.0565611
-0.0626923
-0.0631448
-0.0630996
-0.0677828
-0.0722625
-0.066629
-0.0609955
-0.0602941
-0.0545249
-0.0486652
-0.0427376
-0.0366968
-0.0304751
-0.0190271
-0.0123982
-0.0105656
-0.00841629
0.00402715
0.0116063
0.0141629
0.0115611
0.0188235
0.030724
0.0270814
0.0278507
0.02819
0.0332579
0.0281674
0.0230317
0.0278733
0.032647
0.0324208
0.0272624
0.0321719
0.0320588
0.0269231
0.0268099
0.0316968
0.0315837
0.0214253
0.0263122
0.0361991
0.0410407
0.040905
0.0407918
0.0456561
0.0454751
0.0452941
0.0451584
0.0550452
0.0548869
0.0597059
0.0595249
0.0643439
0.0641403
0.063914
0.068733
0.0735294
0.0783032
0.0780543
0.0878054
0.0925566
0.0922398
0.0819683
0.0716968
0.0664027
0.0510634
0.0357014
0.0203394
0.0149321
0.00450226
-0.00595023
-0.00640272
-0.00187783
0.00260181
-0.00794119
-0.00848417
-0.00402715
-0.00461539
-0.0102036
-0.00574661
0.00373303
0.00319004
-0.00235294
-0.00282805
0.00171947
-0.00373302
-0.00418551
0.000429872
0.0100453
0.0196606
0.019276
0.0289367
0.0335973
0.0482579
0.0679186
0.102647
0.147353
0.182036
0.231719
0.281448
0.336199
0.380905
0.445634
0.495385
0.520113
0.504819
0.45948
0.414186
0.333891
0.218575
0.0782353
-0.0220814
-0.0773982
-0.11276
-0.123122
-0.118439
-0.123733
-0.11905
-0.109344
-0.0945928
-0.0898416
-0.0900679
-0.0852715
-0.0804299
-0.0755656
-0.080724
-0.0858823
-0.0859728
-0.0860633
-0.0911765
-0.0913122
-0.0914253
-0.0864932
-0.091629
-0.0917647
-0.0919005
-0.0920362
-0.0921946
-0.0924208
-0.0876244
-0.0878281
-0.0880543
-0.0933258
-0.088552
-0.0887783
-0.0890724
-0.0843665
-0.084638
-0.0849095
-0.0902715
-0.0906109
-0.0858824
-0.0910634
-0.0962217
-0.0913348
-0.0863348
-0.0912896
-0.0962217
-0.0961312
-0.0909502
-0.0907466
-0.090543
-0.0903167
-0.0850452
-0.0847737
-0.0895249
-0.0842534
-0.0789367
-0.0785973
-0.0782805
-0.0728959
-0.0624661
-0.0670588
-0.0666968
-0.0563575
-0.0460407
-0.0408371
-0.0407466
-0.0307692
-0.0258597
-0.0260181
-0.0262896
-0.0216063
-0.0119457
-0.0123529
-0.00791854
-0.00857465
0.000656115
-0.000316735
-0.00644796
-0.00776017
-0.00920814
-0.0109502
-0.0178959
-0.0248869
-0.0267421
-0.0284389
-0.0349547
-0.0311312
-0.0318099
-0.0319909
-0.0368326
-0.031448
-0.030905
-0.0302262
-0.0344344
-0.0284389
-0.0222851
-0.0210407
-0.0195928
-0.0178959
-0.010905
-0.00873301
-0.00626694
0.00144799
0.00929866
0.0171041
0.0146833
0.0170588
0.024095
0.0256109
0.0214932
0.0219457
0.027172
0.0222172
0.0171946
0.0172398
0.0222625
0.0223077
0.0173982
0.0225792
0.0227828
0.0229638
0.0231674
0.0234163
0.0286878
0.0289141
0.0241177
0.0293439
0.0345702
0.0347738
0.0349548
0.035181
0.0454299
0.0456335
0.0458371
0.0510634
0.0512896
0.0614933
0.0617195
0.0669684
0.0722399
0.0774887
0.072715
0.0729638
0.0832353
0.0834616
0.0836878
0.083914
0.0941177
0.0942534
0.0893665
0.0745023
0.0696154
0.0596833
0.0397511
0.0298416
0.0248869
0.0198869
0.00986426
0.00484164
0.00979639
0.00470589
-0.00038461
-0.000452485
0.00443439
0.00427602
-0.000882357
-0.000972856
0.00391402
-0.00122174
-0.00631223
-0.00135748
-0.00142536
-0.00651585
-0.00653847
0.00350678
0.0135747
0.0236199
0.033733
0.0388914
0.0540271
0.0641176
0.0742534
0.0944344
0.119593
0.139751
0.16991
0.215113
0.245294
0.29043
0.330566
0.395701
0.435792
0.445815
0.420815
0.380792
0.340747
0.270656
0.170611
0.0705656
-0.00450225
-0.0445927
-0.074638
-0.0896606
-0.0947059
-0.104774
-0.0947964
-0.0797964
-0.074819
-0.079819
-0.089819
-0.0847964
-0.0847737
-0.0897511
-0.0946832
-0.0995927
-0.0944796
-0.0944118
-0.0993439
-0.0992308
-0.0991629
-0.104118
-0.109095
-0.104072
-0.099095
-0.10914
-0.109186
-0.109231
-0.109299
-0.114412
-0.114502
-0.109615
-0.109774
-0.114977
-0.115226
-0.11052
-0.110928
-0.116425
-0.117036
-0.117783
-0.113778
-0.124977
-0.126335
-0.122851
-0.124525
-0.131267
-0.132851
-0.129253
-0.135385
-0.136312
-0.141923
-0.137127
-0.136946
-0.136448
-0.140611
-0.129457
-0.12319
-0.121923
-0.115679
-0.104457
-0.0982806
-0.097172
-0.0961765
-0.0902715
-0.0845249
-0.0839367
-0.0784389
-0.0730317
-0.0676697
-0.0623529
-0.0570814
-0.0467873
-0.0465158
-0.046267
-0.0359955
-0.030724
-0.0254751
-0.0352489
-0.0300226
-0.0247737
-0.0295701
-0.0293891
-0.0291629
-0.0239593
-0.0287783
-0.0335747
-0.0333258
-0.0280543
-0.0327602
-0.0373982
-0.0320136
-0.0215837
-0.0261312
-0.0256335
-0.0200226
-0.0143213
-0.013552
-0.0126244
-0.0064932
-0.000248868
0.00115385
0.00276018
0.0146606
0.0267194
0.0288009
0.0357918
0.0425792
0.0491855
0.0454751
0.0463122
0.0516968
0.0517195
0.0465611
0.0412444
0.0458371
0.0453846
0.0398642
0.0394118
0.0440045
0.0385973
0.0381674
0.0376923
0.0372398
0.0367421
0.0312217
0.0307014
0.0301357
0.0345701
0.0339819
0.0283937
0.0378054
0.0371946
0.0415611
0.0459276
0.0502941
0.0496607
0.0489819
0.0533258
0.0576471
0.0619683
0.061267
0.0655656
0.0748869
0.0841855
0.0934616
0.107715
0.131991
0.146244
0.175453
0.209683
0.263914
0.308145
0.34233
0.386561
0.420815
0.435045
0.404276
0.363529
0.312805
0.267036
0.20129
0.115543
0.034819
-0.040905
-0.116652
-0.177398
-0.203077
-0.203756
-0.199434
-0.185023
-0.175566
-0.166086
-0.156584
-0.142059
-0.117489
-0.102941
-0.0933484
-0.0787104
-0.0740272
-0.0743439
-0.0696154
-0.0698416
-0.0700226
-0.0702263
-0.0754299
-0.070543
-0.0656561
-0.0657466
-0.0658824
-0.0659728
-0.0610633
-0.0611991
-0.0663122
-0.0614027
-0.0614932
-0.066629
-0.0667873
-0.0619457
-0.0571041
-0.0622851
-0.0624887
-0.0576697
-0.0528054
-0.0529864
-0.0581674
-0.0533258
-0.0484842
-0.0536652
-0.0538461
-0.0489819
-0.0391176
-0.0442534
-0.0443665
-0.0394118
-0.0344344
-0.039457
-0.0344344
-0.0343891
-0.0343439
-0.0343439
-0.0343665
-0.0293439
-0.0293891
-0.0244796
-0.0195927
-0.0146606
-0.00975111
-0.0149095
-0.0100226
-0.00513573
-0.00529411
-0.0054751
-0.00565609
0.00416291
0.00395929
-0.00126696
0.00348417
0.0082353
0.0129638
0.00766969
0.00735295
0.0120815
0.01181
0.00656109
0.0114253
0.0163801
0.0163575
0.0113801
0.0164932
0.0166742
0.0168552
0.0170815
0.0173529
0.0226697
0.0230317
0.0284389
0.0289367
0.0345249
0.040181
0.0359729
0.0369457
0.0431448
0.0445249
0.0360634
0.0378054
0.0446833
0.0415837
0.0382806
0.0397738
0.0460181
0.0420136
0.0376697
0.0378733
0.0376471
0.041991
0.035905
0.0294344
0.0326697
0.0307014
0.0135294
0.0112217
0.00871042
0.00113123
-0.00638007
-0.0136425
-0.00561084
-0.0173077
-0.0236199
-0.0293665
-0.024638
-0.029638
-0.0344796
-0.0342307
-0.0289366
-0.0286425
-0.0383936
-0.0331448
-0.0329412
-0.0327828
-0.0376244
-0.0324434
-0.0272624
-0.0321267
-0.0369683
-0.0317647
-0.0265385
-0.0263348
-0.0261312
-0.0208823
-0.0206109
-0.020362
-0.0201131
-0.019819
-0.0145023
-0.0142081
-0.013914
-0.00859728
-0.00325792
-0.0029638
-0.00766968
-0.00233031
-0.0019457
-0.00658371
-0.0112443
-0.00585973
-0.00545249
-0.0100679
-0.00966064
-0.00425339
0.00117647
0.00658371
0.00199095
0.0174208
0.0228959
0.023371
0.0188462
0.0243665
0.0349321
0.0254751
0.0310181
0.0366063
0.0422398
0.0428733
0.0435068
0.0492081
0.0499321
0.0556109
0.0563122
0.0670362
0.0728054
0.0735294
0.0742308
0.0749548
0.0756787
0.0563348
0.0420136
0.0377149
0.0284163
0.014095
0.00477375
0.0104525
0.00110859
-0.0032353
-0.00260181
-0.00196832
-0.00131221
-0.0056561
-2.26162e-05
0.000633489
0.00133485
-0.00300904
0.00262444
0.00830318
0.00898191
0.00959277
0.015181
0.0257919
0.0413801
0.0469457
0.0524887
0.0630769
0.0736652
0.0892308
0.104774
0.125294
0.145882
0.171425
0.211923
0.257421
0.307919
0.353303
0.408643
0.433937
0.429208
0.389412
0.349548
0.304729
0.229842
0.119887
0.0198643
-0.0401584
-0.070181
-0.0902489
-0.100339
-0.100407
-0.0954525
-0.0905656
-0.0756787
-0.0657692
-0.0658371
-0.0709276
-0.0659955
-0.0560407
-0.066086
-0.0711765
-0.0762443
-0.0762896
-0.0762896
-0.0812896
-0.0813122
-0.0813122
-0.081267
-0.0862444
-0.0862217
-0.0811765
-0.0861312
-0.0861086
-0.0861086
-0.081086
-0.0810634
-0.086086
-0.0861086
-0.0861312
-0.0811991
-0.0863122
-0.0864254
-0.0865385
-0.0866516
-0.0867873
-0.0919005
-0.086991
-0.0870815
-0.0872398
-0.0973756
-0.0924661
-0.0875792
-0.0927376
-0.0978281
-0.0978054
-0.0927828
-0.0976923
-0.107489
-0.107195
-0.106833
-0.111448
-0.116041
-0.110611
-0.110136
-0.109683
-0.114208
-0.108665
-0.103122
-0.102602
-0.102081
-0.0915158
-0.0910407
-0.0906787
-0.0903168
-0.09
-0.0847285
-0.0845475
-0.0793439
-0.0791856
-0.0740724
-0.0690272
-0.0740272
-0.0690046
-0.0640498
-0.0641403
-0.0692987
-0.0645249
-0.0598869
-0.0653846
-0.0660181
-0.0618326
-0.0578733
-0.0591177
-0.0605656
-0.0621493
-0.0587783
-0.0653394
-0.071629
-0.0726923
-0.0684163
-0.0636878
-0.0733937
-0.0676245
-0.0615159
-0.0550905
-0.0533937
-0.041448
-0.0292987
-0.0169683
-0.0145702
-0.0022172
0.00995473
0.0119231
0.0186651
0.0300905
0.0410181
0.0464706
0.0416516
0.0467194
0.0516968
0.0516063
0.0465158
0.0514706
0.056448
0.0514253
0.0464706
0.0465384
0.0465837
0.046629
0.0416968
0.0467647
0.0468099
0.0468099
0.0368326
0.0368778
0.0468778
0.0418552
0.0318552
0.0368778
0.0368552
0.03681
0.03681
0.04181
0.0517873
0.0517421
0.0517421
0.0567421
0.0616742
0.0616063
0.0665611
0.0715385
0.0764706
0.0763801
0.0713122
0.0762217
0.0761312
0.0759955
0.080905
0.0908145
0.100701
0.095543
0.100385
0.105272
0.0951132
0.0799095
0.0697059
0.0595249
0.0392987
0.0240046
0.00868782
0.00337107
0.00303172
-0.00235289
-0.00773751
-0.00312212
0.00147064
-0.00898185
-0.00941173
-0.00479634
-0.00522621
-0.0156561
-0.0160181
-0.00638007
-0.0117421
-0.0121041
-0.017466
-0.00778279
-0.00809953
-0.00841628
-0.00373302
0.0109729
0.0206787
0.0153394
0.0250452
0.0397737
0.0544796
0.0691403
0.0938235
0.128507
0.163122
0.202738
0.252376
0.302036
0.356652
0.401244
0.415837
0.40543
0.354977
0.31448
0.254005
0.168552
0.0630995
-0.0224208
-0.0728959
-0.103348
-0.118801
-0.124253
-0.124661
-0.11
-0.100317
-0.0956335
-0.0958824
-0.091086
-0.0862896
-0.0914706
-0.0915837
-0.0866516
-0.0866968
-0.0917873
-0.0918326
-0.0868778
-0.0869457
-0.0920588
-0.0921493
-0.0772398
-0.0823755
-0.0875339
-0.0876923
-0.0828959
-0.0781222
-0.088371
-0.0885973
-0.0838461
-0.0891403
-0.0944796
-0.089819
-0.0851357
-0.090543
-0.0959955
-0.0914027
-0.0868326
-0.0923077
-0.0977602
-0.0931674
-0.0885068
-0.0938009
-0.0940271
-0.0841403
-0.0842081
-0.0892534
-0.0892308
-0.0841629
-0.079095
-0.0840498
-0.0790045
-0.078914
-0.0738461
-0.0787783
-0.0786651
-0.0734841
-0.0732805
-0.0681221
-0.0729185
-0.0676923
-0.0625565
-0.0624886
-0.0624434
-0.0574208
-0.0525113
-0.0477149
-0.048009
-0.0483484
-0.043733
-0.0391855
-0.0396606
-0.035181
-0.0307692
-0.0315158
-0.0373529
-0.0283484
-0.0295248
-0.0359502
-0.0375565
-0.0393439
-0.0414027
-0.0435294
-0.0506108
-0.052466
-0.0491176
-0.0505203
-0.0515158
-0.0469909
-0.0420362
-0.0468778
-0.046561
-0.0411086
-0.0355882
-0.035
-0.0293212
-0.0185746
-0.0177149
-0.0166968
-0.0154524
-0.00400448
0.0026471
0.00452492
0.0114706
0.0183485
0.0249774
0.0214254
0.0226245
0.0284389
0.0337783
0.0287331
0.0285068
0.0331222
0.0326471
0.0321946
0.0267421
0.0313575
0.0310181
0.0257014
0.0254073
0.0250905
0.0247964
0.0194797
0.0191856
0.0189141
0.0235973
0.0182806
0.0229638
0.0276697
0.032353
0.0320136
0.0366969
0.041448
0.0411765
0.040905
0.0506335
0.055362
0.0551357
0.0548642
0.0595928
0.0693213
0.0690271
0.0687104
0.0734163
0.0881448
0.087828
0.0825113
0.0871946
0.0968778
0.0915384
0.0861765
0.0808597
0.070543
0.055181
0.0348416
0.0295249
0.0241855
0.0138009
0.00841628
0.0130317
0.0176471
0.0122172
0.00680996
0.0114027
0.0109955
0.00554299
9.05059e-05
0.00466064
0.00923078
0.00382354
0.00339368
0.0129864
0.0126018
0.00721721
0.00183259
0.0064706
0.0161312
0.0208145
0.0255204
0.0352489
0.045
0.0447738
0.0595701
0.0793665
0.104163
0.123937
0.163688
0.203462
0.24819
0.287896
0.337602
0.392285
0.406946
0.391606
0.351244
0.30586
0.250498
0.165136
0.0647964
-0.020543
-0.0708823
-0.0962443
-0.111584
-0.1119
-0.112217
-0.107511
-0.0877602
-0.0779638
-0.0731674
-0.073371
-0.068552
-0.0587104
-0.0638462
-0.0639819
-0.059095
-0.0541855
-0.0542534
-0.0593665
-0.0595023
-0.0596154
-0.0597285
-0.0698643
-0.065
-0.0601358
-0.0702941
-0.0704525
-0.0706335
-0.0708145
-0.0710181
-0.0762444
-0.0664706
-0.0667195
-0.0669683
-0.0722625
-0.0725566
-0.0628733
-0.0682127
-0.0685747
-0.0688914
-0.0642081
-0.0645249
-0.069819
-0.0700453
-0.0702036
-0.0753168
-0.075362
-0.0702941
-0.075181
-0.0750453
-0.0748869
-0.0696606
-0.0693891
-0.0691403
-0.0688914
-0.0685747
-0.0631901
-0.0678281
-0.0624661
-0.0570815
-0.0566516
-0.0562443
-0.0608371
-0.0554525
-0.0501357
-0.0548869
-0.0497285
-0.0446154
-0.0395701
-0.0396154
-0.0347059
-0.029819
-0.0249321
-0.0251131
-0.025362
-0.0206561
-0.0160181
-0.0165158
-0.0171719
-0.0179638
-0.0189367
-0.0201131
-0.0215158
-0.0230317
-0.0247059
-0.0263122
-0.0277828
-0.0290272
-0.0300226
-0.035724
-0.0409955
-0.0408371
-0.0403846
-0.0447964
-0.0390498
-0.0331448
-0.0271267
-0.0260407
-0.019819
-0.00848415
-0.00699094
-0.00531673
0.00160635
0.00877829
0.0110181
0.0131901
0.0202036
0.0220136
0.0235747
0.0197285
0.0254525
0.0308145
0.0309276
0.0259276
0.0258824
0.0308371
0.0258145
0.0208145
0.020905
0.0210634
0.0212217
0.0163801
0.0215611
0.02181
0.0220136
0.0222172
0.0224661
0.0227376
0.0279864
0.0332127
0.0334389
0.0386878
0.038914
0.0390724
0.0442534
0.0494796
0.049638
0.0497738
0.0549321
0.0601131
0.0602941
0.0604299
0.0656109
0.0658145
0.0710181
0.0711765
0.0763122
0.0865385
0.0867421
0.0819231
0.0871041
0.0923303
0.0875339
0.0776697
0.067828
0.0579864
0.0430995
0.0281674
0.0232579
0.0183258
0.013371
0.00341627
0.00346152
0.00850678
0.00850677
-0.00151585
-0.00153847
0.00346153
-0.00158372
-0.00165159
-0.00167422
-0.00167421
-0.00669684
-0.00676471
-0.00178734
-0.00176471
-0.00178733
0.00321267
0.0132353
0.0233032
0.028371
0.0384389
0.0435294
0.0536425
0.0637557
0.0788461
0.0939367
0.11905
0.14914
0.184186
0.229231
0.269276
0.319321
0.354321
0.389344
0.369367
0.334367
0.289344
0.244321
0.184321
0.094276
0.00918552
-0.0458824
-0.0759502
-0.0960407
-0.111154
-0.111199
-0.106199
-0.0961991
-0.0811991
-0.0711312
-0.0710407
-0.0759729
-0.0758824
-0.0757692
-0.0756335
-0.0804977
-0.080362
-0.0802036
-0.0750453
-0.0799095
-0.0847964
-0.079638
-0.0794796
-0.0843665
-0.0842986
-0.0891855
-0.089095
-0.0890724
-0.0940498
-0.0890271
-0.0890271
-0.0890724
-0.094095
-0.0891176
-0.0891629
-0.0942308
-0.0942986
-0.0893665
-0.0894344
-0.0895023
-0.0946154
-0.0896833
-0.0847737
-0.0848869
-0.09
-0.0850452
-0.0800452
-0.0850226
-0.0899095
-0.0897059
-0.0844344
-0.0841176
-0.088733
-0.0883258
-0.0828733
-0.0774434
-0.0869909
-0.0864706
-0.0809502
-0.0804751
-0.0849547
-0.0794118
-0.0688914
-0.0734389
-0.073009
-0.0676018
-0.0572624
-0.0570362
-0.0568326
-0.0516289
-0.0514706
-0.0464027
-0.0463801
-0.0363348
-0.0313348
-0.0314253
-0.0315384
-0.0266742
-0.0169457
-0.0223529
-0.027828
-0.0234615
-0.019276
-0.0253167
-0.0315158
-0.0279412
-0.0295928
-0.0312896
-0.0378281
-0.039095
-0.0351584
-0.0359502
-0.0363575
-0.036267
-0.0307919
-0.0250452
-0.0241176
-0.0179864
-0.00674206
-0.00536197
-0.00382351
-0.0021493
0.00968327
0.00665158
0.00877829
0.0157919
0.0226244
0.0242534
0.0206787
0.0268326
0.0325792
0.0279186
0.0280317
0.0280091
0.0378959
0.0276923
0.0224887
0.0223303
0.0272172
0.0221493
0.0171267
0.0221041
0.0220589
0.021991
0.0169231
0.0168552
0.0217647
0.0166516
0.0165385
0.0164706
0.0263349
0.0211539
0.0210181
0.025905
0.0357467
0.0305656
0.030362
0.040181
0.0399548
0.0397059
0.0444796
0.0492534
0.0490271
0.0487556
0.0535294
0.0583258
0.0580769
0.0578054
0.0625565
0.0673303
0.0770814
0.0717873
0.0765158
0.081267
0.0859728
0.0756335
0.0653167
0.0600453
0.0447285
0.0293665
0.0140272
0.00368781
-0.00667419
-0.0120814
-0.0174661
-0.012828
-0.01319
-0.0186425
-0.019095
-0.0145023
-0.0199321
-0.0204072
-0.0208371
-0.0162217
-0.0216516
-0.0270814
-0.0274661
-0.0177828
-0.0181222
-0.0234615
-0.0187557
-0.00902715
0.000701357
0.000407238
0.010181
0.02
0.0247964
0.0345701
0.0593665
0.0892081
0.104005
0.138756
0.173529
0.223326
0.2631
0.312828
0.362579
0.37733
0.352059
0.301765
0.261471
0.211199
0.130928
0.0306561
-0.0446154
-0.0898643
-0.11509
-0.135317
-0.13052
-0.125679
-0.115837
-0.105995
-0.0911538
-0.086267
-0.0864027
-0.0815385
-0.076629
-0.0766968
-0.0767647
-0.0768552
-0.0769004
-0.0719004
-0.0769457
-0.0769909
-0.0770362
-0.0720362
-0.0721267
-0.0772398
-0.0773756
-0.0725113
-0.0726923
-0.0728959
-0.0730769
-0.0682805
-0.0685294
-0.0688009
-0.069095
-0.0643665
-0.0647059
-0.0700226
-0.0603394
-0.0556335
-0.0609955
-0.0663801
-0.0617421
-0.0570814
-0.0574661
-0.062828
-0.0530995
-0.0533484
-0.0535746
-0.0537104
-0.0537556
-0.0487556
-0.053733
-0.0586651
-0.0535294
-0.0483937
-0.0482805
-0.0531222
-0.0479412
-0.0427375
-0.0425565
-0.0423303
-0.0320814
-0.0268326
-0.0266516
-0.0314932
-0.0263574
-0.0213122
-0.0263348
-0.0214253
-0.0165611
-0.0117647
-0.0170362
-0.0173529
-0.0126697
-0.00303166
-0.0034389
-0.00889138
-0.00438912
-2.26051e-05
-0.00574659
-0.00656107
-0.00248867
-0.00361989
-0.00995473
-0.0164932
-0.0132579
-0.0152036
-0.0222172
-0.0290498
-0.0256108
-0.0219004
-0.0279185
-0.0335068
-0.0286199
-0.0234163
-0.0229864
-0.0223303
-0.0165158
-0.0106561
-0.00966062
-0.00855202
-0.00728505
-0.000882335
0.000746625
0.00260183
0.00950228
0.011267
0.0128054
0.0141629
0.0153168
0.016086
0.0163801
0.0163575
0.0161539
0.0158145
0.015362
0.0149774
0.014638
0.0143213
0.0140272
0.0138235
0.0136426
0.0134389
0.00825794
0.00809957
0.00796382
0.00778283
0.00262445
-0.00253391
0.00233034
0.00214935
0.00196835
0.00180998
0.0116742
0.0115159
0.0163575
0.0212217
0.0261086
0.0259502
0.0258145
0.0306787
0.0405656
0.0404525
0.0453394
0.0452489
0.0552036
0.0501358
0.0500453
0.0550226
0.065
0.0699548
0.0698643
0.074819
0.0797738
0.0747059
0.0646154
0.0595928
0.0545475
0.0394796
0.0243891
0.0142986
0.00925339
0.00414027
-0.00599547
-0.0061086
-0.00122172
-0.00635747
-0.00656109
-0.00171946
-0.00185521
-0.00701358
-0.00719457
-0.0023077
0.00257918
-0.00255656
-0.00271493
0.00214932
0.0020362
0.00187783
0.0017647
0.00667421
0.0165837
0.021448
0.0263122
0.0362217
0.0411765
0.0511312
0.0660634
0.0910181
0.110973
0.130882
0.160792
0.200724
0.240634
0.285475
0.345317
0.385181
0.395023
0.359819
0.309593
0.259412
0.199253
0.11405
0.0188235
-0.0463575
-0.0865385
-0.111719
-0.116878
-0.112014
-0.107127
-0.0972398
-0.0823529
-0.0724661
-0.0725792
-0.0726923
-0.0678054
-0.0629186
-0.0630769
-0.0632806
-0.0685747
-0.0639367
-0.0594118
-0.065
-0.0707466
-0.0666516
-0.0627376
-0.0739819
-0.080362
-0.0768552
-0.0732806
-0.0795475
-0.0805656
-0.0763575
-0.0769457
-0.0773303
-0.0824208
-0.0721946
-0.0767195
-0.076086
-0.0753846
-0.0696833
-0.0690498
-0.0735294
-0.0730317
-0.0675792
-0.0722172
-0.0769231
-0.0766742
-0.0664706
-0.0713575
-0.0712896
-0.0711765
-0.0709729
-0.0707014
-0.0753846
-0.0800226
-0.0745928
-0.0742081
-0.0788235
-0.0734163
-0.0729638
-0.0675113
-0.0720588
-0.0665837
-0.0611086
-0.060724
-0.0654299
-0.0601357
-0.054819
-0.0495475
-0.0493439
-0.0541629
-0.0440045
-0.0438688
-0.0437783
-0.0386652
-0.0335294
-0.0234389
-0.0283484
-0.0282127
-0.0230995
-0.0180317
-0.0229638
-0.0178507
-0.0127149
-0.0126244
-0.0125339
-0.0124208
-0.00728507
-0.0121719
-0.0120814
-0.00696833
-0.00180996
-0.00165158
-0.00649321
-0.00626697
-0.0060181
-0.00574661
-0.00542987
-2.32831e-09
0.00552036
0.0061086
0.00680996
0.0126923
0.0237783
0.0200453
0.0215611
0.0282805
0.0350453
0.036629
0.0329412
0.0340272
0.0398417
0.0402715
0.0352489
0.0399322
0.0394344
0.0338009
0.0331448
0.0325113
0.0319231
0.0313575
0.0308597
0.0354073
0.0349321
0.0344797
0.0390272
0.0486199
0.0582353
0.0778507
0.0924208
0.117036
0.141674
0.17629
0.210882
0.25052
0.285204
0.314842
0.33948
0.32414
0.288846
0.233529
0.183213
0.137941
0.0876697
0.0223982
-0.0478959
-0.103145
-0.143394
-0.163643
-0.158891
-0.144118
-0.119321
-0.114548
-0.0947738
-0.0749548
-0.0551357
-0.0403394
-0.0255656
-0.00574661
0.0040724
-0.00113122
-0.0113348
-0.0265611
-0.0317647
-0.041991
-0.0472624
-0.0424887
-0.0427149
-0.0429864
-0.0432353
-0.0384615
-0.0386652
-0.0388914
-0.034095
-0.019276
-0.00943439
-0.0146154
-0.0247738
-0.0298869
-0.0299548
-0.0350226
-0.0351131
-0.0351584
-0.035181
-0.0402263
-0.0402489
-0.0352489
-0.0352036
-0.040181
-0.0351584
-0.0301131
-0.0300453
-0.035
-0.0349548
-0.0298643
-0.0297738
-0.0296833
-0.0346154
-0.0295475
-0.0244796
-0.0244118
-0.0243439
-0.0192534
-0.0141629
-0.0191177
-0.019095
-0.0140724
-0.00904978
-0.00902715
-0.00900453
-0.00395928
0.00110859
0.00115384
-0.00380091
0.00128959
0.00638009
0.00144796
0.00153846
0.00665158
0.0167873
0.0168778
0.0169683
0.0170814
0.0222172
0.0223077
0.0224208
0.0275339
0.0276018
0.0276697
0.0227376
0.0278054
0.0278733
0.0278959
0.0329186
0.0279185
0.0329186
0.0278959
0.0228959
0.0229412
0.0280543
0.0232127
0.0234389
0.0237783
0.0242534
0.0198643
0.0156335
0.0165611
0.0126018
0.0137104
0.00972852
0.0105656
0.0111765
0.00653848
0.00669685
0.00667422
0.00638011
0.00576925
-9.04826e-05
-0.00110858
-0.00221719
-0.00330316
-0.00936651
-0.0103167
-0.0113122
-0.0172624
-0.0232127
-0.0242308
-0.0203167
-0.0215385
-0.0278733
-0.0243891
-0.0260407
-0.0227828
-0.0295023
-0.0309955
-0.0273077
-0.0333258
-0.033914
-0.029095
-0.0289366
-0.0336652
-0.0332805
-0.0328959
-0.0325113
-0.0321267
-0.0366968
-0.036267
-0.0359276
-0.0407014
-0.0455204
-0.0453394
-0.0452036
-0.0450905
-0.0499774
-0.0448416
-0.0447285
-0.0446154
-0.0444796
-0.0443213
-0.0441855
-0.0440271
-0.0438462
-0.0436652
-0.0385068
-0.0433484
-0.0431674
-0.0429638
-0.0377828
-0.0326244
-0.0374434
-0.0372398
-0.0320362
-0.0318552
-0.0316516
-0.0264253
-0.0212443
-0.021086
-0.0208824
-0.0206561
-0.0154525
-0.0152489
-0.0200226
-0.0147511
-0.00947964
-0.00923077
-0.0139593
-0.00864254
-0.00834842
-0.00807693
-0.0127828
-0.00744344
-0.00710408
-0.00680996
-0.0114706
-0.00608598
-0.00572398
-0.00536199
2.26231e-05
0.000407239
0.000791855
0.00113122
0.00149321
0.0118778
0.0172398
0.0226018
0.0229638
0.0333484
0.0386878
0.0389819
0.0442986
0.049638
0.0599548
0.0602489
0.0655656
0.0708824
0.0761312
0.0763801
0.081629
0.0918778
0.0971041
0.102308
0.0975339
0.102783
0.102986
0.09319
0.0884163
0.0886425
0.0888462
0.0840272
0.0842081
0.0843891
0.0945475
0.0946606
0.109796
0.11991
0.139977
0.175
0.205
0.25
0.294977
0.344887
0.369796
0.379706
0.35957
0.304367
0.254163
0.183959
0.0936878
0.00339366
-0.0718778
-0.0971493
-0.117489
-0.117828
-0.118167
-0.113507
-0.108869
-0.099276
-0.0846833
-0.0700679
-0.0654977
-0.0659502
-0.0613575
-0.0567647
-0.057172
-0.0626018
-0.0629864
-0.0633484
-0.0637557
-0.0691177
-0.0694344
-0.0697511
-0.0700905
-0.0704299
-0.0707466
-0.0710634
-0.0714027
-0.0767421
-0.0720588
-0.0723756
-0.0726697
-0.0730091
-0.0733258
-0.0686199
-0.0689367
-0.0692308
-0.0644796
-0.0597059
-0.0649548
-0.0652036
-0.0604299
-0.0606335
-0.0608371
-0.0660634
-0.0662444
-0.0664027
-0.0665837
-0.0717873
-0.0719683
-0.067172
-0.0674208
-0.0676923
-0.0679412
-0.0581901
-0.0684842
-0.0738009
-0.0690724
-0.0693665
-0.0697059
-0.0700453
-0.0703846
-0.065724
-0.066086
-0.0714706
-0.06681
-0.062172
-0.0675339
-0.0679186
-0.0632353
-0.0585294
-0.0638462
-0.0641177
-0.0642987
-0.0593665
-0.0643891
-0.0642987
-0.054095
-0.0588462
-0.058552
-0.0632127
-0.0578281
-0.0574208
-0.061991
-0.0665837
-0.0611539
-0.060724
-0.065362
-0.065
-0.0596154
-0.0592308
-0.0588688
-0.0585294
-0.0531674
-0.0477828
-0.0524208
-0.0470136
-0.0415611
-0.036086
-0.0304751
-0.0247511
-0.0188688
-0.00782806
-0.00162897
-0.000361995
0.0158824
0.0269683
0.0276471
0.0329412
0.0427376
0.0469231
0.0454525
0.0434389
0.0513575
0.0492987
0.0474661
0.0458145
0.0494344
0.0534163
0.0527828
0.0475339
0.0525792
0.0527376
0.0429186
0.0431448
0.043371
0.0435068
0.0385294
0.033552
0.0435973
0.0336199
0.0235973
0.0235747
0.028552
0.0285294
0.0234842
0.0284389
0.0284163
0.028371
0.0232805
0.0282579
0.0282579
0.0332353
0.02819
0.0281674
0.03319
0.02819
0.0231674
0.02319
0.0282353
0.0282353
0.0232127
0.0232353
0.0232579
0.0232579
0.0182127
0.01819
0.02319
0.0231674
0.0231222
0.0280769
0.0380769
0.0380543
0.0380317
0.0380317
0.0480769
0.0480769
0.0430543
0.0480769
0.0580995
0.0631222
0.0631448
0.0632127
0.0683032
0.0733937
0.0734615
0.083552
0.0886878
0.0938009
0.088914
0.0890724
0.0942534
0.0893891
0.0745249
0.0596833
0.0498643
0.0300226
0.010181
0.00538462
-0.00443438
-0.00929864
-0.00918552
-0.00904977
-0.00893665
-0.0088914
-0.00886877
-0.00882353
-0.0038009
-0.00882352
-0.0138461
-0.0138235
-0.0138235
-0.00884615
-0.0138688
-0.00884615
-0.00382353
0.00115385
0.00115385
0.0161538
0.0211765
0.0261765
0.0362217
0.0462896
0.0614027
0.0714932
0.0865837
0.101719
0.136878
0.172014
0.212172
0.257376
0.312579
0.35776
0.347919
0.323145
0.273348
0.233529
0.17871
0.103914
0.0291403
-0.0406561
-0.0904525
-0.110226
-0.115
-0.119842
-0.114706
-0.0945475
-0.0744118
-0.0742986
-0.0792081
-0.0740498
-0.0689367
-0.0688688
-0.0688009
-0.0686878
-0.0635747
-0.0634842
-0.068371
-0.0632579
-0.0581448
-0.0680543
-0.0729638
-0.0678507
-0.0627376
-0.0676471
-0.0725792
-0.0674887
-0.0624434
-0.0674661
-0.0674661
-0.0624661
-0.0574887
-0.0625566
-0.0626244
-0.0577149
-0.0528281
-0.0579864
-0.0631674
-0.0583258
-0.0585068
-0.0586878
-0.0638688
-0.0590045
-0.0591855
-0.0643665
-0.0645475
-0.0646606
-0.0647964
-0.0699548
-0.0700452
-0.0700679
-0.0700226
-0.0799321
-0.0797738
-0.0795249
-0.0792082
-0.0788688
-0.0834615
-0.0830091
-0.0825339
-0.0870815
-0.086629
-0.0811312
-0.0806561
-0.0852489
-0.0848869
-0.0845701
-0.0843439
-0.0842082
-0.084095
-0.0740045
-0.0739593
-0.0739367
-0.0689367
-0.058914
-0.058914
-0.0589593
-0.0540272
-0.0490724
-0.0491855
-0.0544118
-0.0496606
-0.0449548
-0.0452941
-0.0507692
-0.0463348
-0.0420362
-0.0428733
-0.0389367
-0.040181
-0.0315611
-0.0380317
-0.0393213
-0.040362
-0.0311086
-0.0316063
-0.0267647
-0.0214706
-0.015724
-0.0145928
-0.0131674
-0.00647059
0.000542992
0.00769232
0.00475114
0.011629
0.0182579
0.0196833
0.0208597
0.0216968
0.0271946
0.0223756
0.0223077
0.0221493
0.0269683
0.0317647
0.0265611
0.031448
0.031448
0.0314253
0.0263801
0.0263575
0.0263801
0.0263801
0.0213575
0.0213349
0.0213575
0.0213801
0.0213575
0.0213801
0.0214254
0.0264027
0.0213349
0.0262896
0.0262896
0.0312443
0.0311765
0.0361312
0.0461086
0.0410407
0.0459729
0.0509276
0.0559276
0.0558823
0.0608371
0.0658371
0.0708597
0.0758371
0.0757692
0.0807466
0.0807466
0.0857466
0.085724
0.095724
0.095724
0.0956561
0.0905882
0.0954977
0.0954299
0.0853394
0.0802489
0.070181
0.0600905
0.0449774
0.0298416
0.0197059
0.0145701
0.00941176
0.00423077
0.00404977
0.00384615
0.00359729
-0.00165158
-0.00190045
-0.00214932
-0.00744344
-0.00776019
-0.0080543
-0.00837104
-0.00868779
-0.0140045
-0.00925339
-0.00450226
0.00024887
-0.00497738
-0.000158371
0.00966063
0.014457
0.014276
0.024095
0.043914
0.0486652
0.0584389
0.0732353
0.0980317
0.122783
0.157557
0.19233
0.242104
0.296878
0.331629
0.356425
0.326199
0.28095
0.230701
0.185498
0.125294
0.0400679
-0.0251131
-0.0752489
-0.100385
-0.11552
-0.130611
-0.115679
-0.105747
-0.0908145
-0.0858597
-0.0808597
-0.0808824
-0.0809276
-0.0809729
-0.0809955
-0.0760407
-0.0761086
-0.0761312
-0.0761312
-0.0711086
-0.0711086
-0.0760634
-0.0710181
-0.0710181
-0.0710181
-0.0760181
-0.0710181
-0.0660634
-0.0661539
-0.0712444
-0.0713801
-0.0665158
-0.0716742
-0.0718326
-0.0670136
-0.0621946
-0.0624208
-0.0676244
-0.0628507
-0.0630769
-0.0633032
-0.0635068
-0.0586652
-0.0588914
-0.0591176
-0.0643213
-0.0595023
-0.0597059
-0.0648643
-0.0649548
-0.06
-0.0549548
-0.0598643
-0.0646833
-0.064457
-0.0641855
-0.0638914
-0.0635294
-0.0531674
-0.0528054
-0.0474661
-0.0521041
-0.0517195
-0.0514027
-0.0561086
-0.0508371
-0.0556109
-0.0504751
-0.0504072
-0.050362
-0.0453394
-0.0453394
-0.045362
-0.0403846
-0.0354525
-0.0355882
-0.0307466
-0.0309276
-0.0261312
-0.0214253
-0.0267647
-0.0221493
-0.0226244
-0.02319
-0.0288914
-0.0297059
-0.0306787
-0.03181
-0.0331674
-0.0347059
-0.0312896
-0.0328054
-0.029095
-0.0301357
-0.0208597
-0.0212896
-0.0213575
-0.0210181
-0.015362
-0.0144344
-0.00828054
-0.00692308
-0.000361997
0.00640271
0.00828053
0.0102036
0.0169909
0.018552
0.0198869
0.0210181
0.0318552
0.0272851
0.0224208
0.0223756
0.0221946
0.0169457
0.0166516
0.0214253
0.0162443
0.0161312
0.0110407
0.0159728
0.020905
0.0208371
0.0207692
0.0207013
0.0256561
0.0155882
0.0155204
0.0154751
0.0154525
0.0104072
0.010362
0.020362
0.0153394
0.0153167
0.0152715
0.0252489
0.0302489
0.0302262
0.0402036
0.0402036
0.0452262
0.0452262
0.0502489
0.0553167
0.0604072
0.0604977
0.0655882
0.0707014
0.0707919
0.0708824
0.0709729
0.081086
0.0861991
0.0863122
0.0864027
0.0914932
0.0865837
0.0766516
0.0717195
0.05681
0.0469005
0.0319683
0.0220136
0.0170588
0.0120814
0.00710407
0.00710407
0.00714932
0.00719457
0.00726244
0.00230769
0.00735294
0.00737556
0.00237556
0.00242081
0.00744343
0.00746605
0.00248868
0.00248868
0.00253393
0.00255655
0.00257917
0.012647
0.0277375
0.027828
0.0329185
0.0380317
0.0531674
0.0633032
0.0733937
0.0935068
0.11362
0.13871
0.168778
0.208846
0.248914
0.293959
0.338982
0.359027
0.349072
0.299118
0.254186
0.204276
0.144389
0.0744796
-0.000429883
-0.0453168
-0.080181
-0.0950453
-0.104887
-0.0997059
-0.0895023
-0.079276
-0.0640498
-0.0638009
-0.0585294
-0.0582579
-0.0579864
-0.0526923
-0.047353
-0.0470588
-0.0567647
-0.0514706
-0.0511765
-0.0559276
-0.0556561
-0.055362
-0.0550905
-0.0548416
-0.0546154
-0.0543665
-0.0541177
-0.0538914
-0.0536652
-0.0534616
-0.0482579
-0.0480996
-0.0529638
-0.0528054
-0.0476923
-0.0526244
-0.0575566
-0.0524434
-0.0523756
-0.0523077
-0.0522398
-0.0521493
-0.0470588
-0.051991
-0.0568778
-0.0567647
-0.0566516
-0.0615611
-0.0664253
-0.0661991
-0.0659276
-0.0706109
-0.0702036
-0.0647059
-0.0641855
-0.0636425
-0.0630543
-0.0623982
-0.0617195
-0.0610407
-0.0553394
-0.0546154
-0.0539367
-0.0532805
-0.0526471
-0.0470588
-0.0465385
-0.046086
-0.0456561
-0.0402715
-0.0399095
-0.0345928
-0.0342534
-0.0339367
-0.0336652
-0.0334163
-0.03319
-0.0279864
-0.0278281
-0.0327376
-0.0326697
-0.0276244
-0.0276697
-0.0228054
-0.0280543
-0.0234163
-0.0239593
-0.0296833
-0.0305656
-0.0316063
-0.0278054
-0.0339819
-0.035
-0.0307692
-0.0263122
-0.0265611
-0.0263801
-0.0207919
-0.0197964
-0.0184842
-0.0168778
-0.01
-0.00291855
-0.00567873
0.00162897
0.00384616
0.00581449
0.00255656
0.00911765
0.0154072
0.0163575
0.0119909
0.0124208
0.0127149
0.0128959
0.0080543
0.00825792
0.00848416
0.00875566
0.00409503
0.00445703
0.00481902
0.00518101
0.000543002
0.000950247
0.00635749
0.00171947
0.00203622
0.00239821
0.0077602
0.00305432
0.00337106
0.0036878
0.00900454
0.00932129
0.00963803
0.0149774
0.0202941
0.0206109
0.0259276
0.031267
0.0316064
0.0369231
0.0322172
0.0425113
0.0478507
0.0481448
0.0484389
0.0537557
0.0540724
0.0543891
0.0597059
0.0650226
0.070362
0.0706787
0.0709729
0.0762896
0.0815837
0.0768552
0.0620815
0.0573303
0.0475792
0.0327828
0.0179865
0.0132127
0.00843893
-0.00138008
-0.00619908
-0.00601808
-0.00585971
-0.010724
-0.0105656
-0.00540723
-0.0102715
-0.0101584
-0.0150679
-0.00993212
-0.009819
-0.0147285
-0.009638
-0.00952487
-0.00441175
-0.00932126
-0.00420814
0.00590499
0.0109955
0.011086
0.0211539
0.0312444
0.0412896
0.0463122
0.0563122
0.0763349
0.0913575
0.116357
0.141312
0.18129
0.221244
0.266131
0.316018
0.350905
0.350792
0.320634
0.280475
0.240317
0.185158
0.11
0.039819
-0.0253394
-0.0654977
-0.0906561
-0.110814
-0.110928
-0.101018
-0.0961538
-0.0862669
-0.0813348
-0.0764027
-0.0865158
-0.0865837
-0.0816289
-0.0866742
-0.0867647
-0.0918552
-0.0819231
-0.0869909
-0.092104
-0.0872398
-0.0873755
-0.0875113
-0.0926923
-0.0879185
-0.08819
-0.088552
-0.0940498
-0.0896606
-0.0804072
-0.0813801
-0.0875792
-0.0889819
-0.0804977
-0.0871719
-0.0888688
-0.0904751
-0.0918099
-0.0929185
-0.0988235
-0.0945023
-0.0949095
-0.0950226
-0.0998416
-0.0943891
-0.0887104
-0.0879412
-0.0871945
-0.0914706
-0.0857692
-0.0901584
-0.0895927
-0.0890724
-0.0885973
-0.0881674
-0.0877828
-0.0873982
-0.0870362
-0.0866289
-0.0912217
-0.0858145
-0.085362
-0.0799095
-0.0845475
-0.0842081
-0.078914
-0.0786878
-0.0785294
-0.0784163
-0.0683258
-0.0682579
-0.0682353
-0.0632127
-0.0581901
-0.0581674
-0.0581674
-0.0531674
-0.0481901
-0.0431901
-0.0482579
-0.0433032
-0.0383484
-0.0384163
-0.0384615
-0.0385294
-0.0285747
-0.0336425
-0.0336878
-0.0287104
-0.0287104
-0.0237104
-0.0236878
-0.0136199
-0.0135068
-0.00837104
-0.00821267
-0.00796381
0.00237556
0.00782805
0.00839366
0.0141176
0.025
0.026086
0.0273756
0.0338009
0.0402263
0.0414932
0.0475566
0.0534163
0.0540045
0.059276
0.0592082
0.0588462
0.0583032
0.0576471
0.0518778
0.051086
0.0553394
0.0545928
0.0438914
0.0432127
0.0475792
0.0418778
0.0411538
0.0404525
0.0447059
0.0439819
0.03819
0.0374661
0.0417195
0.0459502
0.045181
0.0443891
0.0486425
0.0578733
0.0671041
0.0863575
0.110634
0.134887
0.169163
0.213484
0.262828
0.307149
0.336471
0.365837
0.370204
0.349615
0.294005
0.243394
0.197805
0.152217
0.096629
0.0310634
-0.0294796
-0.0850452
-0.135588
-0.151086
-0.151561
-0.137036
-0.127534
-0.108009
-0.0984842
-0.0839366
-0.0743891
-0.0648416
-0.0502715
-0.0457013
-0.0361538
-0.0466063
-0.0470362
-0.0424887
-0.0479185
-0.0533484
-0.048733
-0.0491403
-0.0495701
-0.0499547
-0.0503394
-0.0457014
-0.046086
-0.0514027
-0.0466968
-0.0469909
-0.0472851
-0.0525566
-0.0477828
-0.0430317
-0.0432805
-0.0484842
-0.0386425
-0.0388235
-0.0390272
-0.0391855
-0.0393439
-0.0345023
-0.0346833
-0.034819
-0.0349548
-0.0300905
-0.0302262
-0.030362
-0.0254525
-0.0255656
-0.0256335
-0.0257014
-0.020724
-0.0207692
-0.0258371
-0.0258371
-0.0257919
-0.0207692
-0.0157466
-0.0156561
-0.010543
-0.00545249
-0.00536199
-0.000226243
0.0049095
0.0100679
0.0152262
0.0103846
0.0155882
0.0157692
0.0159276
0.016086
0.021267
0.0264253
0.0265611
0.0317421
0.0319231
0.0320588
0.0271719
0.0323303
0.0374661
0.0376018
0.0427149
0.0378281
0.0479412
0.0430091
0.0430317
0.0430769
0.0481674
0.0532353
0.0432579
0.0433258
0.0484389
0.0435747
0.0387783
0.039095
0.0395249
0.0400905
0.0358597
0.0368326
0.038009
0.039276
0.0356561
0.0270588
0.0333484
0.0343665
0.030181
0.0258597
0.0313801
0.0266742
0.0217421
0.0216063
0.021267
0.0157014
0.0101131
0.00957014
0.00909503
0.00864254
0.00325793
-0.00212669
-0.00248868
-0.0028733
-0.00828054
-0.00861991
-0.00398191
-0.00438914
-0.00990951
-0.0104751
-0.0111086
-0.0119231
-0.0179186
-0.0190724
-0.0154072
-0.021991
-0.0237104
-0.0304751
-0.0270815
-0.0334615
-0.0396154
-0.0404299
-0.0358597
-0.0358824
-0.0456109
-0.0401131
-0.0345023
-0.0388688
-0.0432127
-0.0425113
-0.0318552
-0.0362896
-0.0357919
-0.0352941
-0.0297964
-0.0293213
-0.0338235
-0.0333258
-0.0278054
-0.0273077
-0.0317873
-0.0262217
-0.0256561
-0.0251131
-0.0295475
-0.0239593
-0.018371
-0.0228281
-0.0272398
-0.0216516
-0.0160407
-0.0204072
-0.0247511
-0.0190498
-0.0133484
-0.0176471
-0.0169005
-0.0161086
-0.0103167
-0.00950227
-0.0136878
-0.00785068
-0.0020362
-0.00122172
-0.00540724
-0.00457014
0.00126696
-0.00289593
-0.0020362
-0.00117648
0.00463801
0.000452485
0.00128959
0.00214932
0.00800905
0.0138688
0.0147511
0.0206561
0.0315611
0.0324661
0.0283937
0.0343439
0.0452941
0.0412217
0.0421493
0.0480996
0.0540045
0.0548869
0.0557692
0.0616516
0.0625113
0.0683484
0.0692082
0.0800453
0.0858598
0.0866516
0.0923982
0.0981674
0.0939141
0.079638
0.0703394
0.0660634
0.0517421
0.0373982
0.0280769
0.028733
0.0193439
0.00993214
0.0105656
0.0161765
0.0217647
0.0323303
0.0428959
0.0584615
0.0739819
0.0744796
0.0849774
0.105498
0.120973
0.131403
0.151833
0.187217
0.222557
0.262873
0.303167
0.358462
0.388688
0.398891
0.369072
0.319208
0.264299
0.194344
0.109389
0.0194344
-0.050543
-0.0955883
-0.115633
-0.120656
-0.130724
-0.130792
-0.12086
-0.100882
-0.0859276
-0.0859502
-0.0809728
-0.0759728
-0.0809728
-0.0809729
-0.0809729
-0.0759276
-0.0808823
-0.0858597
-0.0858145
-0.0807692
-0.0857466
-0.085724
-0.0856787
-0.0806108
-0.0905882
-0.0905882
-0.090543
-0.0904751
-0.0954525
-0.10043
-0.095362
-0.0952715
-0.100226
-0.105204
-0.100158
-0.100113
-0.105068
-0.105068
-0.100023
-0.0999774
-0.0999548
-0.0999548
-0.0949321
-0.0949095
-0.0949548
-0.095
-0.0850452
-0.0901131
-0.0902036
-0.0903167
-0.0904298
-0.085543
-0.0956561
-0.0907692
-0.0958597
-0.0959276
-0.100995
-0.101086
-0.0961765
-0.101244
-0.10138
-0.101516
-0.096629
-0.0967421
-0.0968552
-0.0969231
-0.0919231
-0.0919004
-0.09681
-0.0916516
-0.0864027
-0.086086
-0.0857466
-0.085362
-0.0799321
-0.0795475
-0.0792534
-0.0790045
-0.0737557
-0.0735747
-0.0784842
-0.0734389
-0.0683711
-0.0683711
-0.0784163
-0.0734389
-0.0684389
-0.0684163
-0.073371
-0.0733032
-0.0631901
-0.0630769
-0.0630091
-0.0629412
-0.0528054
-0.0476471
-0.0474887
-0.0372851
-0.026991
-0.0266064
-0.0211539
-0.0156335
-0.00502263
0.000520356
0.00092759
0.0160407
0.0208371
0.0254751
0.0249548
0.0292534
0.0333484
0.0373756
0.0415159
0.0408371
0.0453846
0.0400226
0.0397511
0.0395701
0.039457
0.0343439
0.0341629
0.0339819
0.0337783
0.0285294
0.0282805
0.0230317
0.0228054
0.0225339
0.0222398
0.0219683
0.0267421
0.0214706
0.0211991
0.0209502
0.0257014
0.0254073
0.0201131
0.019819
0.0245249
0.0192082
0.0138688
0.013552
0.0182127
0.0228507
0.0174661
0.0221041
0.0217647
0.0263801
0.0209955
0.0256561
0.0303168
0.0299548
0.0245702
0.0292308
0.0388914
0.0385294
0.0381901
0.047896
0.0475792
0.0522399
0.0519231
0.056629
0.0613575
0.0610408
0.0607466
0.0654525
0.0651584
0.0648417
0.0695249
0.0742534
0.0839593
0.0836652
0.0833711
0.0881222
0.0878733
0.0776018
0.0673529
0.0621267
0.0519005
0.0366516
0.0264027
0.0161765
0.0109502
0.00570133
0.00045247
0.00522622
0.00999998
0.00975111
0.00450225
0.004276
0.00902713
0.00873302
0.00346152
0.00821265
0.00794117
0.0026018
0.00226242
0.00194568
0.00662894
0.0112669
0.0159049
0.0305882
0.0402488
0.0498642
0.054457
0.0641176
0.0737783
0.0834163
0.0980769
0.11276
0.137443
0.162104
0.196787
0.241516
0.281267
0.315973
0.335747
0.315543
0.280362
0.235158
0.189955
0.134796
0.0646606
0.0045475
-0.0505656
-0.0806561
-0.100769
-0.110905
-0.106041
-0.0911538
-0.0762896
-0.071448
-0.0615837
-0.0567195
-0.0568778
-0.0570588
-0.0572624
-0.0524434
-0.0526244
-0.0578054
-0.063009
-0.0581674
-0.0583484
-0.063552
-0.0587556
-0.0589366
-0.0591176
-0.0593212
-0.0595475
-0.0597511
-0.0599773
-0.0602262
-0.0554751
-0.0557013
-0.0559049
-0.0561538
-0.0614253
-0.0566742
-0.056923
-0.0622172
-0.0624887
-0.0577375
-0.053009
-0.0583258
-0.0586425
-0.053914
-0.0591855
-0.0594796
-0.0597285
-0.0549547
-0.060181
-0.0654525
-0.0657239
-0.0659502
-0.0661991
-0.0714479
-0.0716289
-0.0717647
-0.0718552
-0.0769004
-0.0768552
-0.0766968
-0.0764932
-0.0812896
-0.0810407
-0.0757692
-0.080543
-0.080362
-0.0802036
-0.0800679
-0.075
-0.075
-0.0750452
-0.0700905
-0.0701584
-0.0702715
-0.0703394
-0.065362
-0.0653846
-0.0654525
-0.0605203
-0.0555656
-0.0556787
-0.0558597
-0.0510407
-0.0462443
-0.0414932
-0.0418099
-0.0421946
-0.0376018
-0.0380543
-0.0385747
-0.0341177
-0.0247512
-0.0204978
-0.026448
-0.022534
-0.0187783
-0.0150679
-0.0112217
-0.0121041
-0.00262442
-0.00282803
-0.00257917
-0.00180994
0.00943441
0.011086
0.0129638
0.0148417
0.0216064
0.0281674
0.024457
0.0254073
0.0260407
0.0263801
0.0264706
0.0264254
0.0312896
0.031086
0.025905
0.0258145
0.0308145
0.0258371
0.025905
0.0260181
0.0311312
0.0312444
0.0263349
0.0264706
0.0266064
0.0317195
0.0267874
0.0269005
0.0320136
0.0320814
0.0321946
0.0323303
0.0324887
0.0376471
0.0377828
0.0379185
0.0380543
0.0382127
0.038371
0.038552
0.043733
0.053914
0.0490724
0.054276
0.0595023
0.0596833
0.0598643
0.0650905
0.0703394
0.0755656
0.0757919
0.0760633
0.0813122
0.0815611
0.07681
0.0821041
0.0923982
0.0976471
0.0929185
0.0981674
0.0984389
0.0886878
0.0789367
0.0692081
0.064457
0.0496833
0.0349095
0.0251358
0.025362
0.0205656
0.0157692
0.0159955
0.0161539
0.016267
0.0113801
0.0114706
0.0165837
0.0166742
0.0117647
0.0118779
0.016991
0.0120589
0.00712673
0.00723984
0.012353
0.0124208
0.0125113
0.0276244
0.0376923
0.0427602
0.0478281
0.0529186
0.0680091
0.0830543
0.0930769
0.108145
0.12819
0.14819
0.17819
0.213235
0.263303
0.303326
0.348348
0.368394
0.353439
0.308507
0.253552
0.208665
0.143756
0.0738462
0.00893667
-0.0459502
-0.0757919
-0.0956335
-0.105475
-0.105294
-0.0900905
-0.0699321
-0.0697737
-0.0645927
-0.0644344
-0.064276
-0.0641176
-0.058914
-0.058733
-0.0635746
-0.0684163
-0.0682353
-0.0680543
-0.0728959
-0.0727149
-0.0724887
-0.067285
-0.072104
-0.0719457
-0.0717647
-0.066561
-0.0714027
-0.0712443
-0.0660633
-0.0709276
-0.0758144
-0.0807013
-0.0805882
-0.0754524
-0.075362
-0.0752715
-0.080181
-0.0751357
-0.0801131
-0.0800904
-0.0800452
-0.0799547
-0.0848868
-0.0897963
-0.0847058
-0.084638
-0.0895927
-0.0895248
-0.0894343
-0.0893212
-0.0942081
-0.0940724
-0.0938914
-0.0936425
-0.098371
-0.102986
-0.0974886
-0.101946
-0.0964027
-0.100837
-0.100249
-0.0997058
-0.104231
-0.0987782
-0.0983258
-0.0979411
-0.0976244
-0.0973529
-0.0970814
-0.0968325
-0.0966063
-0.08638
-0.0761538
-0.0759276
-0.0707466
-0.0705882
-0.0653846
-0.0652262
-0.0651357
-0.0650678
-0.055
-0.0550226
-0.060181
-0.0603846
-0.0506561
-0.0510407
-0.0515837
-0.0422172
-0.043009
-0.0389819
-0.0402036
-0.0366515
-0.0282126
-0.0247737
-0.0311538
-0.0273077
-0.0181674
-0.0136425
-0.0135746
-0.0128733
-0.00662892
2.26609e-05
0.00203623
0.00925341
0.0114706
0.0184389
0.0151131
0.0215611
0.022715
0.0235521
0.0290724
0.0193665
0.0195023
0.0195701
0.0195701
0.0196154
0.0247285
0.0249095
0.0200905
0.0252942
0.0254978
0.0257014
0.020905
0.0261313
0.0263801
0.0266064
0.0267874
0.0219684
0.0271494
0.0223077
0.0174435
0.0226019
0.0227602
0.027896
0.0230091
0.0231448
0.0283032
0.0284163
0.0285294
0.0386652
0.0437783
0.0438688
0.0439367
0.0440046
0.0540951
0.0541403
0.0541856
0.0642082
0.0692534
0.0692534
0.0692308
0.0692308
0.0692308
0.0691856
0.074095
0.0790498
0.0839819
0.0838462
0.083733
0.0836199
0.0834615
0.0782805
0.0730769
0.0578959
0.0476697
0.0274208
0.0121493
0.00690046
0.00160635
0.00131223
-0.00400453
-0.00432128
0.000339359
-0.00504526
-0.0104073
-0.0107919
-0.0111991
-0.0116289
-0.0120588
-0.0124887
-0.0129412
-0.0134163
-0.0138235
-0.0141855
-0.00957015
-0.00495476
-0.0103394
-0.000701353
0.00891402
0.0135068
0.0180995
0.0327376
0.0573529
0.0669005
0.086448
0.111018
0.145588
0.180113
0.224706
0.269276
0.328846
0.383394
0.422964
0.437579
0.407195
0.371787
0.326403
0.261063
0.170747
0.0654072
-0.0049095
-0.0552036
-0.0904751
-0.115747
-0.130973
-0.121199
-0.111425
-0.106674
-0.106878
-0.107059
-0.10224
-0.107421
-0.102624
-0.107805
-0.102986
-0.11319
-0.113394
-0.108552
-0.108733
-0.108937
-0.109095
-0.109253
-0.109434
-0.109638
-0.114819
-0.114977
-0.110158
-0.110362
-0.110611
-0.110837
-0.106109
-0.111425
-0.106719
-0.107036
-0.10233
-0.10767
-0.108032
-0.103394
-0.103778
-0.104186
-0.104547
-0.104887
-0.105271
-0.105679
-0.106109
-0.0964932
-0.0969004
-0.0973077
-0.0976697
-0.0929864
-0.0882805
-0.093552
-0.0937556
-0.0889366
-0.0841176
-0.0892308
-0.084276
-0.0742534
-0.0792081
-0.0791629
-0.069095
-0.0690045
-0.0639593
-0.068914
-0.0589366
-0.0589819
-0.0591402
-0.0593891
-0.0546606
-0.0499547
-0.0502488
-0.0505882
-0.0459049
-0.0411991
-0.0415384
-0.0369004
-0.032285
-0.0276923
-0.0281448
-0.0286425
-0.0241855
-0.0197963
-0.0254751
-0.0262669
-0.0221267
-0.0180769
-0.0191402
-0.0204298
-0.0168325
-0.0133936
-0.015181
-0.0171267
-0.014095
-0.00581444
-0.00733028
-0.00352937
-0.0043891
0.00520366
0.000384655
0.00610864
0.0122851
0.0188915
0.0207919
0.022896
0.0300453
0.0320362
0.0337783
0.0352715
0.0364706
0.0422851
0.0376018
0.0375566
0.0373077
0.0369005
0.0313801
0.0307919
0.0352715
0.0347964
0.0293439
0.0238688
0.0233937
0.0279412
0.0224661
0.016991
0.0164933
0.0210408
0.0205204
0.0149774
0.0194797
0.0190046
0.0135068
0.0130091
0.017534
0.0170588
0.0165611
0.0110407
0.0155204
0.0200226
0.0245249
0.0240045
0.0284842
0.0330091
0.0324887
0.0369683
0.0364706
0.0410181
0.045543
0.0500453
0.0545928
0.0591403
0.0586878
0.0582353
0.0677828
0.072353
0.0769005
0.076448
0.0810181
0.0806335
0.0802263
0.074819
0.0694344
0.064095
0.048733
0.0433258
0.0429412
0.0326018
0.0222172
0.0118326
0.00649322
0.00613123
0.000769241
-0.00457013
6.78822e-05
-0.00527149
-0.00563348
-0.0109728
-0.00633484
-0.00167421
-0.0020362
-0.0023982
-0.00271494
0.00199094
-0.00330318
-0.00359729
0.00113121
0.000882348
0.00563348
0.0104072
0.020181
0.0299774
0.0397737
0.0545475
0.0693439
0.0941176
0.108869
0.13362
0.163371
0.208122
0.242873
0.287624
0.342353
0.382081
0.40181
0.371516
0.336267
0.286041
0.235814
0.170566
0.0753394
0.000113118
-0.0551131
-0.0903168
-0.10052
-0.105701
-0.100882
-0.0960634
-0.0762217
-0.0663575
-0.0664932
-0.071629
-0.0667195
-0.05681
-0.0619005
-0.0620136
-0.0621267
-0.0622624
-0.0674208
-0.0676018
-0.0678281
-0.0631222
-0.063552
-0.0641177
-0.0647738
-0.0606335
-0.0616968
-0.0679864
-0.0644344
-0.061086
-0.0678733
-0.074638
-0.0712444
-0.0726018
-0.078733
-0.0795928
-0.0752036
-0.0754977
-0.075543
-0.0752941
-0.0747511
-0.0690272
-0.0683032
-0.0725792
-0.0668552
-0.0611539
-0.0654977
-0.0699095
-0.0693665
-0.0638914
-0.0685294
-0.0682353
-0.0679638
-0.0677149
-0.0674887
-0.0722172
-0.0668778
-0.066448
-0.0609502
-0.0704072
-0.0648416
-0.0642308
-0.0636425
-0.0680769
-0.0675113
-0.0570136
-0.0565611
-0.0611312
-0.0557466
-0.0503846
-0.0500905
-0.049819
-0.0495475
-0.044276
-0.0390498
-0.0388235
-0.0385973
-0.033371
-0.0281901
-0.0329864
-0.0277602
-0.0225339
-0.0273303
-0.0321267
-0.0319005
-0.0266968
-0.0265158
-0.0313348
-0.0261312
-0.025905
-0.0206561
-0.0253846
-0.0250453
-0.0146606
-0.0142308
-0.013733
-0.00812218
-0.00244345
0.00330316
0.00418552
0.00527149
0.0114932
0.0228959
0.0245475
0.0263575
0.0382353
0.0399548
0.0364932
0.0428281
0.048914
0.0546833
0.05
0.055
0.0547285
0.059276
0.0537783
0.0532579
0.0577602
0.0522624
0.0468326
0.046448
0.0460634
0.0406561
0.0352715
0.0349321
0.0395701
0.0391855
0.0388009
0.0434389
0.0530543
0.0626697
0.0722851
0.0969457
0.126629
0.15129
0.19095
0.230679
0.28043
0.320158
0.36491
0.389706
0.389502
0.354276
0.294072
0.243891
0.188688
0.133484
0.0633032
0.00316742
-0.0569683
-0.117149
-0.152308
-0.152421
-0.147534
-0.14267
-0.137783
-0.122851
-0.107964
-0.0930995
-0.0732353
-0.0433258
-0.0234389
-0.013552
-0.00866516
-0.00375566
-0.00382353
-0.013914
-0.0289819
-0.0440271
-0.0490498
-0.0541403
-0.0642081
-0.0642534
-0.0643213
-0.0694118
-0.0694796
-0.0644796
-0.0594796
-0.0595023
-0.0644796
-0.0594344
-0.0593665
-0.0592986
-0.0642081
-0.0590724
-0.053914
-0.0587783
-0.0586425
-0.0534615
-0.0532579
-0.0530769
-0.0528733
-0.0476471
-0.0474208
-0.0472398
-0.0470588
-0.0418552
-0.0366516
-0.0414932
-0.0413122
-0.0411086
-0.035905
-0.040724
-0.040543
-0.0352941
-0.0350452
-0.034819
-0.0345475
-0.0242534
-0.0239593
-0.0236425
-0.0183258
-0.0129864
-0.0126244
-0.00728507
-0.0019457
0.00343892
0.00882353
0.00418552
0.00959276
0.0150226
0.0204751
0.015905
0.0213575
0.02681
0.0272624
0.0276923
0.0281448
0.0336199
0.0390498
0.039457
0.0398643
0.0402489
0.0406109
0.0409276
0.041267
0.046629
0.0469683
0.0422851
0.0426018
0.0429864
0.0433937
0.0388462
0.0344118
0.0400905
0.0408371
0.0317421
0.0278054
0.029095
0.030543
0.027172
0.023914
0.0256335
0.0271494
0.0233711
0.0243439
0.0250679
0.0255204
0.0156562
0.0154978
0.0250453
0.0192761
0.0133258
0.0123756
0.0114254
0.0104751
0.00454753
0.00873305
0.00800907
0.00737558
0.00185522
0.00149323
0.00122173
0.000972865
-0.004276
-0.00950225
-0.00979637
-0.0102262
-0.0158145
-0.0165611
-0.012466
-0.0135746
-0.0199547
-0.0164932
-0.0183032
-0.025362
-0.0326018
-0.034819
-0.0369457
-0.0438688
-0.0455882
-0.0518778
-0.0526244
-0.0578733
-0.0627602
-0.0624208
-0.056991
-0.0565837
-0.0611765
-0.0607466
-0.0603394
-0.0599774
-0.0596833
-0.0644118
-0.0591629
-0.0589593
-0.0587557
-0.0585294
-0.0532806
-0.0530543
-0.0578281
-0.0525792
-0.0523077
-0.0520815
-0.0568552
-0.0565611
-0.051267
-0.0559955
-0.055724
-0.0503846
-0.0550453
-0.0547285
-0.0543665
-0.0489593
-0.0435294
-0.0430996
-0.0426471
-0.0421493
-0.041629
-0.0461312
-0.0456109
-0.0450453
-0.0444796
-0.0439593
-0.0434163
-0.0378281
-0.0372398
-0.0416968
-0.0411539
-0.0355656
-0.0349774
-0.0344118
-0.0288462
-0.0282806
-0.0227149
-0.0271493
-0.0265837
-0.0209502
-0.0153394
-0.00975114
-0.0141403
-0.00852943
-0.00789595
-0.00730771
-0.0017421
0.00884614
0.0144344
0.0199547
0.0204751
0.0259728
0.0314706
0.0319231
0.0373755
0.0478054
0.0532127
0.0585746
0.058914
0.064276
0.0646154
0.0698869
0.0751584
0.0854977
0.0907919
0.0910407
0.0962896
0.101538
0.101787
0.0919909
0.0872172
0.0824661
0.0776923
0.0728733
0.0730543
0.0782579
0.0834389
0.0835746
0.0987104
0.118846
0.138959
0.159005
0.189072
0.22914
0.279186
0.314163
0.374163
0.424163
0.464072
0.463937
0.448778
0.403597
0.353348
0.263077
0.142738
0.0323982
-0.0530091
-0.0984842
-0.113959
-0.114434
-0.114932
-0.115498
-0.111063
-0.101629
-0.0872172
-0.0778054
-0.0734163
-0.0639819
-0.0645701
-0.0651584
-0.065724
-0.0662443
-0.0667647
-0.0723077
-0.0728281
-0.0683258
-0.0688462
-0.0793891
-0.0798869
-0.075362
-0.0758597
-0.0813575
-0.08181
-0.0772624
-0.0827602
-0.0882579
-0.093733
-0.0891855
-0.0897285
-0.0953167
-0.0959955
-0.0967647
-0.0977149
-0.103846
-0.100136
-0.0966516
-0.0983484
-0.105226
-0.107127
-0.0990045
-0.100747
-0.107172
-0.103281
-0.0991177
-0.0997059
-0.0999774
-0.0999321
-0.0995928
-0.0990498
-0.108348
-0.102579
-0.10181
-0.106063
-0.105385
-0.109729
-0.10414
-0.103688
-0.103326
-0.103009
-0.0977602
-0.102579
-0.0974661
-0.0973756
-0.0923303
-0.0973303
-0.0923077
-0.0872398
-0.0821719
-0.0771041
-0.0820136
-0.0768552
-0.0716516
-0.0714027
-0.076086
-0.0706787
-0.0652262
-0.0647964
-0.0643439
-0.0638688
-0.058371
-0.0579412
-0.0625339
-0.0571267
-0.0517421
-0.0514027
-0.056086
-0.050724
-0.0453394
-0.0499774
-0.0495475
-0.0440045
-0.033371
-0.0376697
-0.0318326
-0.0258145
-0.0145701
-0.0131674
-0.0114932
0.00540724
0.0124887
0.0195475
0.0265158
0.0382805
0.0447963
0.0558823
0.0564253
0.0664932
0.0761538
0.0755882
0.0799547
0.0843212
0.0936878
0.0930317
0.0923755
0.0967421
0.0961538
0.0956108
0.0900678
0.0945701
0.0940498
0.0885068
0.0829412
0.0823756
0.08181
0.0811765
0.075543
0.0799095
0.079276
0.0685747
0.0678733
0.0671719
0.0664706
0.0607692
0.0550679
0.0644118
0.063733
0.0630317
0.0622851
0.0815837
0.090905
0.110204
0.129502
0.163824
0.203167
0.237489
0.286855
0.326244
0.365656
0.375068
0.369502
0.334005
0.263529
0.198032
0.137579
0.0821946
0.0168326
-0.0535294
-0.113869
-0.164186
-0.19948
-0.209842
-0.205181
-0.195498
-0.185814
-0.176131
-0.161448
-0.131719
-0.107014
-0.0873077
-0.0675792
-0.0478054
-0.0330317
-0.0232353
-0.00843891
0.00140272
0.00124435
0.0011086
0.00599548
0.0109502
0.0059276
-0.00411764
-0.0141403
-0.0191403
-0.0291629
-0.0391855
-0.0442081
-0.0391855
-0.0391629
-0.0391403
-0.0441176
-0.0390724
-0.0390045
-0.0439819
-0.0439367
-0.0388688
-0.0338009
-0.0387557
-0.038733
-0.0336425
-0.0335973
-0.038552
-0.0384842
-0.0333484
-0.0332353
-0.0331222
-0.0329638
-0.0327602
-0.0325566
-0.0323756
-0.0321267
-0.0268326
-0.0215385
-0.0212217
-0.0158597
-0.0104525
-0.0100226
-0.014638
-0.00918552
-0.00366516
-0.0031448
-0.00262443
-0.00205882
0.00355203
0.00916289
0.0147511
0.020362
0.0209955
0.0266063
0.0271719
0.0327828
0.0383937
0.0439593
0.0444796
0.0450226
0.0555656
0.056086
0.0615611
0.0620814
0.0676018
0.0680543
0.0734842
0.0739366
0.0693665
0.0697737
0.0651357
0.065543
0.0659728
0.0713801
0.0667873
0.0622851
0.0628507
0.0634842
0.0591855
0.0550679
0.0561312
0.0523303
0.0537557
0.050362
0.0471267
0.043914
0.0406335
0.0371946
0.0384389
0.0343665
0.025
0.020362
0.0204525
0.015181
0.0096154
0.00382353
0.00785069
0.00678734
0.000701364
-0.00531675
-0.00631222
-0.0123077
-0.0182579
-0.014095
-0.0148416
-0.0205204
-0.0261312
-0.0316742
-0.0321719
-0.0326471
-0.0380543
-0.043371
-0.0436652
-0.0440271
-0.0544118
-0.0548643
-0.0554525
-0.0562896
-0.0573756
-0.0537104
-0.0603394
-0.0572624
-0.0644344
-0.066629
-0.0688235
-0.0708824
-0.0727376
-0.0791855
-0.0750226
-0.0752941
-0.0751131
-0.0746606
-0.074095
-0.063552
-0.0729864
-0.0673756
-0.0667647
-0.0662443
-0.0707692
-0.0702941
-0.0648416
-0.0694118
-0.0690045
-0.0685747
-0.0631222
-0.0626697
-0.0672172
-0.0617195
-0.0611991
-0.0606787
-0.0651357
-0.0595249
-0.0489366
-0.053371
-0.0577602
-0.0571041
-0.0514706
-0.0558597
-0.0552262
-0.0545475
-0.0488461
-0.0481448
-0.0523982
-0.0466516
-0.0408823
-0.0451357
-0.0443665
-0.0385747
-0.0327828
-0.0370136
-0.0362217
-0.0303846
-0.0245701
-0.0287783
-0.0279638
-0.0221267
-0.0163122
-0.0204751
-0.014638
-0.0138235
-0.00803166
-0.00726243
-0.0114706
-0.00565609
-0.00481898
-0.00402713
-0.00821265
-0.00242079
0.00337107
-0.000882324
-0.000113089
0.00563352
0.0063575
0.00708148
0.0127828
0.0184616
0.0290951
0.0296833
0.0302715
0.0358372
0.0413575
0.0468326
0.0422851
0.052715
0.0581222
0.0585068
0.0638688
0.0742308
0.0845702
0.0798869
0.0852037
0.0954978
0.100747
0.105973
0.111222
0.116471
0.121674
0.126833
0.131991
0.137127
0.13724
0.12733
0.122398
0.137443
0.147466
0.167421
0.192398
0.23733
0.28224
0.332127
0.387036
0.441878
0.491674
0.501448
0.501222
0.47095
0.420656
0.335362
0.200045
0.0697285
-0.0306335
-0.0859955
-0.106357
-0.106719
-0.112059
-0.117443
-0.117783
-0.103122
-0.0934615
-0.0888009
-0.084095
-0.0793665
-0.0746606
-0.0799095
-0.0851357
-0.0853394
-0.085543
-0.0907466
-0.0908823
-0.0910181
-0.0911538
-0.10129
-0.0963801
-0.096448
-0.101538
-0.106652
-0.101765
-0.0968552
-0.101991
-0.107081
-0.107172
-0.10224
-0.107308
-0.107398
-0.107466
-0.102511
-0.102579
-0.102647
-0.0976923
-0.0927375
-0.0978054
-0.0978733
-0.0929185
-0.0829637
-0.0880542
-0.0881221
-0.0831447
-0.0831674
-0.0832352
-0.0832579
-0.0783031
-0.0783484
-0.0834162
-0.0885067
-0.0885972
-0.0837104
-0.0938461
-0.0890045
-0.0891402
-0.084276
-0.0944796
-0.0896606
-0.0898416
-0.0900452
-0.0902714
-0.0904751
-0.085656
-0.0808371
-0.0860407
-0.0812443
-0.0764479
-0.0766515
-0.0768325
-0.0720135
-0.0721493
-0.0722624
-0.0723303
-0.0673076
-0.0621719
-0.061923
-0.0666289
-0.0612669
-0.055837
-0.0553846
-0.0548868
-0.0543438
-0.0487782
-0.0432126
-0.0476244
-0.0419909
-0.0363574
-0.0357239
-0.0351357
-0.0295475
-0.023914
-0.0182579
-0.0224886
-0.0116063
-0.00552032
0.000724025
0.00217198
0.0138462
0.030724
0.0327828
0.0348417
0.0468326
0.05362
0.0550906
0.0560861
0.0614028
0.0709729
0.0699322
0.0684164
0.0666517
0.0696381
0.0673983
0.0600906
0.057896
0.0559503
0.0492082
0.0377602
0.0366743
0.0359955
0.0256335
0.0204752
0.0204752
0.0205657
0.0156788
0.0057919
0.00583715
0.00583715
0.000791896
-0.00427597
0.000701405
0.000656161
0.000543039
0.000429925
0.000362054
0.00529418
-0.00479632
-0.00490944
-0.00497732
-0.00504519
-0.00511306
-0.00518092
-0.00522618
-0.0052488
-0.00529406
-0.00533931
-0.000361934
-0.000339311
-0.000339322
-0.000316698
0.00475117
0.00984166
0.0048869
-4.52362e-05
0.00506789
0.0101584
0.00527149
0.0103846
0.0155204
0.0206787
0.0207918
0.0258823
0.0309955
0.0361312
0.0361991
0.0363122
0.0414706
0.051629
0.0467421
0.0518778
0.0570588
0.0622398
0.0624208
0.0626018
0.0728281
0.0780769
0.0783032
0.0835747
0.0888914
0.0892308
0.0845475
0.0848869
0.0852263
0.075543
0.0608371
0.0461539
0.0315159
0.0168552
0.00714934
0.00244346
0.00273757
-0.00201356
-0.00678732
-0.0065837
-0.00138009
-0.00117645
-0.00601809
-0.000837095
-0.000656098
-0.000475109
-0.00531673
-0.000135735
0.00506788
0.000248879
0.000384621
0.000565618
0.0107466
0.0159276
0.0211086
0.0313349
0.041629
0.0519005
0.0671493
0.0824435
0.102738
0.123009
0.138235
0.173484
0.208756
0.259027
0.294276
0.349502
0.394774
0.405023
0.380226
0.34043
0.305634
0.245792
0.170905
0.0860181
0.0211312
-0.0288009
-0.0687783
-0.088733
-0.0936878
-0.0986878
-0.0837556
-0.0738235
-0.0638688
-0.0689366
-0.0740498
-0.0691176
-0.0591629
-0.0642308
-0.0693213
-0.0643891
-0.0644118
-0.0644796
-0.0745701
-0.069638
-0.0747059
-0.0747738
-0.0798642
-0.0799548
-0.0750226
-0.0750905
-0.0752036
-0.0802715
-0.0803394
-0.0854072
-0.0905204
-0.0856109
-0.0806787
-0.0857919
-0.0909502
-0.086086
-0.0911991
-0.0913348
-0.0914932
-0.0966516
-0.0917873
-0.0919231
-0.0970588
-0.0972172
-0.0923303
-0.0974661
-0.107624
-0.10276
-0.102851
-0.102986
-0.113122
-0.113235
-0.113281
-0.113281
-0.118258
-0.118145
-0.117941
-0.12267
-0.127353
-0.131991
-0.126584
-0.126176
-0.125792
-0.120407
-0.115045
-0.114751
-0.119548
-0.114412
-0.109344
-0.104321
-0.0993212
-0.0893213
-0.0843212
-0.0793439
-0.0743665
-0.0693665
-0.0643439
-0.0643439
-0.0593665
-0.0594344
-0.0545249
-0.0546832
-0.0549095
-0.045181
-0.0405203
-0.0409502
-0.0365384
-0.0322624
-0.0331222
-0.0341403
-0.035362
-0.0317647
-0.0283484
-0.0300905
-0.0269909
-0.023914
-0.0156561
-0.0172172
-0.0134389
-0.0142534
-0.0093665
-0.00380089
-0.00753393
-0.000814479
0.00613122
0.00809953
0.0099321
0.0166064
0.0179638
0.0189593
0.0195702
0.0198869
0.025
0.0199321
0.0197511
0.0245475
0.0293212
0.0291855
0.0240724
0.0240045
0.0289367
0.0238688
0.0188235
0.0238235
0.0288236
0.0238009
0.0187783
0.0187557
0.0237557
0.0187104
0.0186652
0.0185973
0.0235294
0.0234389
0.0183258
0.0182579
0.0281901
0.0231222
0.0230317
0.0229186
0.0328055
0.0326697
0.0325566
0.0374435
0.0423303
0.0422172
0.0421041
0.0419457
0.0517874
0.0566516
0.0564706
0.0563122
0.0611765
0.0710181
0.0658598
0.0707014
0.0755204
0.0752941
0.0750905
0.0798643
0.0846607
0.0843892
0.074095
0.0638009
0.0585068
0.0481901
0.0328507
0.0175113
0.0121493
0.00676472
-0.0037104
-0.00914026
-0.00457011
-0.00502261
-0.0104977
-0.0109728
-0.00644796
-0.00696832
-0.00748868
-0.00798642
-0.00846154
-0.00891402
-0.0143439
-0.0147511
-0.0151357
-0.0155204
-0.020905
-0.0212896
-0.0116742
-0.0020362
0.00255657
0.012172
0.0317873
0.0463575
0.0559729
0.0755882
0.110204
0.149819
0.184434
0.224027
0.27862
0.328213
0.377783
0.427398
0.477014
0.501629
0.481267
0.45595
0.415633
0.360339
0.255023
0.139706
0.0394344
-0.0158824
-0.0561991
-0.0864932
-0.0967647
-0.0970588
-0.0873303
-0.0826018
-0.0828733
-0.0831674
-0.0884842
-0.0887557
-0.0840272
-0.0843213
-0.0846154
-0.0898642
-0.0851131
-0.0854072
-0.0907013
-0.0959729
-0.0962443
-0.0965837
-0.1019
-0.102195
-0.0975339
-0.0979186
-0.103348
-0.103733
-0.0991629
-0.0995928
-0.100045
-0.100452
-0.0958597
-0.101335
-0.101833
-0.102285
-0.102738
-0.0982353
-0.103733
-0.104208
-0.104729
-0.100249
-0.105792
-0.111312
-0.106855
-0.102398
-0.102896
-0.108281
-0.103597
-0.103869
-0.109072
-0.109163
-0.109186
-0.104231
-0.104208
-0.10414
-0.104095
-0.0990498
-0.103982
-0.0988688
-0.0937557
-0.0936878
-0.0936652
-0.0936652
-0.0887104
-0.0888235
-0.0890045
-0.0891855
-0.0744118
-0.0796833
-0.0799774
-0.0752489
-0.065543
-0.060905
-0.0613122
-0.0567195
-0.0521719
-0.0526923
-0.0532579
-0.0538688
-0.0495928
-0.0504525
-0.051448
-0.0476018
-0.0439593
-0.0405882
-0.0424208
-0.044457
-0.0365611
-0.0386199
-0.0404299
-0.0319005
-0.0330996
-0.0289367
-0.0292987
-0.024095
-0.0184616
-0.0125113
-0.0112444
-0.00968326
0.00210407
-0.000950225
0.00115385
0.00843892
0.0108371
0.0131448
0.0153393
0.0173756
0.0241403
0.0304299
0.0262217
0.0315611
0.0366516
0.0365385
0.0313122
0.0360181
0.035724
0.0354751
0.0352715
0.0400905
0.0448869
0.0396606
0.0344344
0.0392534
0.0440498
0.0388461
0.0386425
0.0434615
0.0432579
0.0430543
0.0378281
0.0476018
0.0473529
0.0471041
0.0518552
0.0566516
0.0664253
0.0611991
0.0659729
0.0657919
0.0705882
0.0653846
0.0652262
0.0750905
0.0799321
0.0797511
0.0745928
0.0844344
0.0842986
0.0891403
0.0990045
0.0988688
0.10871
0.108529
0.113348
0.11319
0.103032
0.0878507
0.0776697
0.0674887
0.0522851
0.0320588
0.0268326
0.0266063
0.0163801
0.0111312
0.0158823
0.0155882
0.0152941
0.00993213
0.00961538
0.00929864
0.00895927
0.00861991
0.00828054
0.0079638
0.00762444
0.00230769
0.00701357
0.00676471
0.00649321
0.00622172
0.0109955
0.0207919
0.0306109
0.0354299
0.0452941
0.0601584
0.07
0.0798416
0.104683
0.129525
0.159344
0.194163
0.239005
0.293869
0.338733
0.393575
0.418439
0.413326
0.368213
0.3131
0.268054
0.197986
0.112941
0.0228959
-0.0321267
-0.0671493
-0.097172
-0.107195
-0.107217
-0.0921946
-0.0772172
-0.0672172
-0.0671946
-0.067172
-0.067172
-0.0721493
-0.0671041
-0.0670362
-0.0719683
-0.0719005
-0.07181
-0.0666968
-0.0715837
-0.0664706
-0.0663349
-0.0661991
-0.0710634
-0.0759276
-0.0707692
-0.0706335
-0.070543
-0.0754751
-0.0703846
-0.0702941
-0.0752263
-0.0751584
-0.0700679
-0.075
-0.0749548
-0.0749321
-0.0698869
-0.0748643
-0.0748416
-0.0797964
-0.0747285
-0.079638
-0.0795928
-0.0845249
-0.079457
-0.0794118
-0.0893891
-0.0893213
-0.0891855
-0.0840045
-0.0887783
-0.0885068
-0.0881448
-0.0877376
-0.0922624
-0.0917195
-0.0811765
-0.0805656
-0.0849548
-0.0843213
-0.0786652
-0.0730543
-0.0775113
-0.0720136
-0.0665611
-0.0661991
-0.0659502
-0.0656787
-0.0604072
-0.055181
-0.0549774
-0.0447511
-0.0395249
-0.0293439
-0.0342081
-0.0291176
-0.024095
-0.0241176
-0.0241855
-0.0243439
-0.0196154
-0.0250452
-0.0306561
-0.0264253
-0.0274208
-0.0286652
-0.0351357
-0.0318326
-0.0337783
-0.0358145
-0.0428507
-0.0397059
-0.0363801
-0.0378507
-0.038914
-0.0344118
-0.0292308
-0.0285294
-0.0273756
-0.0258371
-0.0189593
-0.0118099
-0.0144118
-0.00692307
-0.00450226
-0.00226243
-0.00524886
0.00156109
0.0030543
0.00414028
0.00484164
0.0102941
0.0155882
0.0157466
0.0158597
0.0159955
0.0211765
0.0164254
0.0167195
0.0170362
0.022353
0.0176697
0.0129864
0.0133258
0.0186652
0.0139593
0.014276
0.0145928
0.0149321
0.0102489
0.0105882
0.0109276
0.011267
0.0115611
0.0118552
0.0221719
0.0274887
0.0277828
0.0280769
0.0333937
0.0336878
0.0339367
0.0342081
0.0395023
0.0447511
0.045
0.0502489
0.055543
0.0557692
0.0560181
0.0562444
0.0615159
0.0667195
0.0669005
0.0670815
0.0772625
0.0774435
0.0675566
0.0626923
0.0578281
0.0479638
0.0330769
0.0231901
0.0133032
0.00337105
-0.0015837
-0.00153845
-0.00647058
-0.00642533
-0.00642534
-0.011448
-0.011448
-0.0114706
-0.0115385
-0.0115837
-0.00660634
-0.00165158
-0.0117195
-0.0117647
-0.0117647
-0.0117647
-0.0117647
-0.0117195
-0.00165158
0.00343891
0.0135068
0.0285973
0.038733
0.0488462
0.0689367
0.0940272
0.12914
0.164208
0.204231
0.254276
0.309321
0.359344
0.414321
0.479321
0.509321
0.514276
0.484208
0.459163
0.42414
0.344095
0.244027
0.118982
0.0339819
-0.0310407
-0.071086
-0.0911086
-0.106109
-0.106086
-0.101086
-0.0910633
-0.0960407
-0.101018
-0.101041
-0.101041
-0.0960181
-0.100995
-0.100995
-0.100973
-0.100928
-0.10086
-0.105814
-0.100747
-0.100656
-0.100611
-0.105611
-0.105611
-0.105588
-0.110611
-0.110656
-0.110724
-0.105769
-0.11086
-0.110973
-0.111086
-0.111199
-0.111335
-0.111493
-0.111652
-0.10681
-0.112014
-0.112262
-0.112466
-0.107647
-0.112851
-0.113077
-0.108258
-0.103394
-0.108529
-0.108597
-0.103575
-0.103462
-0.103303
-0.1081
-0.0978507
-0.102579
-0.102308
-0.107059
-0.0967647
-0.091448
-0.0961312
-0.0908145
-0.0904299
-0.0850452
-0.0897285
-0.0894118
-0.0841176
-0.0838462
-0.0836652
-0.0835294
-0.0734389
-0.0734163
-0.0734389
-0.0685068
-0.0636199
-0.0587557
-0.0539366
-0.0541855
-0.0444796
-0.039819
-0.0402715
-0.0408371
-0.0364932
-0.0322851
-0.038371
-0.0446154
-0.0410633
-0.0427602
-0.0447059
-0.0467873
-0.043733
-0.0455204
-0.0470136
-0.0532579
-0.049095
-0.044457
-0.0443665
-0.0438914
-0.0380769
-0.0319909
-0.0306787
-0.029095
-0.0222624
-0.0152715
-0.0130769
-0.0106108
0.0020136
0.00463802
0.00710408
0.00945703
0.0166742
0.023552
0.0249548
0.0207919
0.026267
0.031448
0.026448
0.0263801
0.026267
0.0261312
0.0260181
0.0259728
0.025905
0.0307919
0.0307014
0.0256109
0.0255656
0.0304977
0.0304299
0.030362
0.0253167
0.0302715
0.025181
0.0251358
0.0301131
0.0400679
0.04
0.0399548
0.0449095
0.044819
0.0497059
0.049638
0.0546154
0.0595701
0.0595249
0.0595023
0.059457
0.0644118
0.0643665
0.0643213
0.0743439
0.0843213
0.084276
0.0842308
0.0892308
0.0941855
0.089095
0.0790272
0.0789819
0.0638688
0.048733
0.0336199
0.0235068
0.018371
0.01319
0.00803167
0.00782805
0.0125792
0.00728506
0.00701357
0.00676469
0.00644796
0.00113123
0.000814486
0.00552038
0.000181012
-0.000158355
-0.00547509
-0.000791837
-0.00110858
-0.00142531
0.00330319
0.00803169
0.0177602
0.022534
0.027353
0.0372172
0.0470588
0.0569005
0.06681
0.0917421
0.116652
0.141561
0.176493
0.231448
0.266335
0.311199
0.366086
0.420928
0.450769
0.430588
0.40043
0.345249
0.305045
0.224819
0.129615
0.049457
-0.010724
-0.050905
-0.076086
-0.0862443
-0.0964253
-0.0966063
-0.0817421
-0.0718552
-0.0669683
-0.0720814
-0.0671493
-0.0622172
-0.0623077
-0.0673982
-0.0724434
-0.0674434
-0.0674661
-0.0725113
-0.0725339
-0.0725339
-0.0775792
-0.0826471
-0.0776697
-0.0777376
-0.0828281
-0.0829186
-0.0780091
-0.0830769
-0.0831674
-0.0882805
-0.0883937
-0.0885068
-0.0886425
-0.0937783
-0.0939367
-0.089095
-0.0942986
-0.0995023
-0.0946833
-0.0948642
-0.100068
-0.100294
-0.0954977
-0.090724
-0.100928
-0.106109
-0.106222
-0.10629
-0.111312
-0.106267
-0.106176
-0.106018
-0.105837
-0.115633
-0.110362
-0.105045
-0.104729
-0.109434
-0.104095
-0.0937556
-0.0934389
-0.0931674
-0.0828733
-0.0776697
-0.0775339
-0.0774661
-0.0724434
-0.0674434
-0.0624887
-0.0575566
-0.0476244
-0.0426923
-0.037828
-0.038009
-0.0282127
-0.0234842
-0.0238688
-0.0242986
-0.0197964
-0.0204525
-0.021267
-0.0222398
-0.023371
-0.0247059
-0.0262896
-0.0280769
-0.0301131
-0.0372851
-0.0445475
-0.0517195
-0.0436878
-0.0454299
-0.0517421
-0.0525113
-0.0476244
-0.0472398
-0.0465158
-0.0454525
-0.0340498
-0.0324661
-0.0306787
-0.0186878
-0.0164479
-0.00911762
-0.00685517
0.000271529
0.007172
0.00889145
0.0102263
0.0061539
0.0117421
0.0120589
0.017172
0.0171946
0.022172
0.0221041
0.0170136
0.0170136
0.0170815
0.017172
0.0172399
0.0173304
0.0224435
0.0225566
0.0176245
0.0126697
0.0177828
0.0178733
0.0179412
0.0180317
0.0231222
0.0281901
0.0182353
0.0283258
0.0334163
0.0334842
0.033552
0.0336425
0.0387104
0.0387783
0.0388235
0.0438914
0.0489367
0.0489819
0.0490045
0.0540271
0.0590724
0.0590724
0.0590498
0.0690724
0.0740724
0.0790272
0.0790045
0.0840045
0.0840045
0.078914
0.0688235
0.063733
0.0535973
0.0383937
0.0282127
0.0180317
0.0128281
0.00760181
0.00233032
0.00208145
0.00180997
0.00651585
0.0011991
0.00588236
0.00558825
0.0052715
-4.52437e-05
0.00468327
0.00441177
0.00414028
0.00386879
0.00361992
0.00839368
0.00819005
0.00803168
0.0129412
0.0228733
0.0328281
0.0377828
0.0527828
0.0727828
0.0827602
0.10276
0.13276
0.16776
0.197738
0.237715
0.28267
0.337624
0.387557
0.447489
0.487421
0.512308
0.497149
0.461946
0.42181
0.336652
0.226448
0.106244
0.0210633
-0.0291403
-0.0693891
-0.0896154
-0.0947964
-0.0949774
-0.0851584
-0.0852941
-0.0754072
-0.0805204
-0.0806335
-0.085724
-0.0857692
-0.0808371
-0.085905
-0.0909728
-0.0910181
-0.086086
-0.0911538
-0.0912217
-0.091267
-0.0863122
-0.0914253
-0.0965385
-0.0966516
-0.09681
-0.0969683
-0.0971267
-0.0972624
-0.0924208
-0.0926018
-0.102828
-0.0980543
-0.0983032
-0.103575
-0.103824
-0.104095
-0.104344
-0.109661
-0.10991
-0.110158
-0.110407
-0.110633
-0.110792
-0.11086
-0.110905
-0.115882
-0.110792
-0.110656
-0.110498
-0.110317
-0.110091
-0.104819
-0.104548
-0.109276
-0.103937
-0.0985747
-0.10319
-0.102805
-0.0973756
-0.0869457
-0.0915611
-0.0912217
-0.0808824
-0.0705656
-0.0703167
-0.0701131
-0.0649774
-0.0599095
-0.0599321
-0.0600226
-0.0501357
-0.0452941
-0.0454977
-0.0407692
-0.0361086
-0.0315385
-0.0321493
-0.0329186
-0.0288462
-0.0299321
-0.031267
-0.0328281
-0.0346606
-0.0366968
-0.0437783
-0.0507919
-0.0525792
-0.0541176
-0.0552941
-0.0559955
-0.0511538
-0.0458597
-0.0502715
-0.0444118
-0.0433032
-0.0369683
-0.0354977
-0.028914
-0.0271719
-0.020181
-0.0179638
-0.0154977
-0.00782804
-2.26051e-05
0.00769232
0.00527151
0.0126697
0.0197059
0.0212217
0.0222172
0.0278507
0.0382579
0.0334842
0.0336199
0.0337783
0.0339141
0.034095
0.029276
0.0345249
0.0347511
0.0349774
0.030181
0.0353846
0.0356335
0.0308371
0.0310181
0.0362217
0.0414254
0.0416063
0.0417873
0.0420136
0.0522625
0.0524661
0.0526697
0.0628733
0.0630543
0.0632353
0.0634389
0.0686652
0.068914
0.0741403
0.0793213
0.0845475
0.0897512
0.0849095
0.0950679
0.0952489
0.100407
0.0955204
0.100634
0.100747
0.0958145
0.0808597
0.065905
0.0609502
0.0459729
0.0359502
0.0309276
0.0258824
0.0208371
0.0157466
0.0106561
0.0105656
0.0104299
0.00524888
0.00506788
0.00488689
0.00466064
-0.000588227
-0.000837103
0.00395927
0.00373302
-0.00151585
-0.00671946
-0.00687783
-0.00701358
-0.00217195
0.00769231
0.0226244
0.0325566
0.0374661
0.0474208
0.0624434
0.0724434
0.0924434
0.112466
0.152534
0.182579
0.222602
0.257647
0.312692
0.362715
0.422715
0.472692
0.48267
0.467579
0.422443
0.377308
0.307172
0.207014
0.101833
0.0216742
-0.0334615
-0.0736652
-0.0988462
-0.114027
-0.114163
-0.0993213
-0.0894796
-0.089638
-0.0897964
-0.0849321
-0.0900905
-0.0952262
-0.0903394
-0.0954298
-0.095543
-0.100633
-0.0957013
-0.100769
-0.105837
-0.105882
-0.10586
-0.105882
-0.115928
-0.110973
-0.111041
-0.111131
-0.116267
-0.116403
-0.116538
-0.116697
-0.116923
-0.122149
-0.117376
-0.117647
-0.122919
-0.11819
-0.118439
-0.11871
-0.129027
-0.129344
-0.124638
-0.129932
-0.130249
-0.12552
-0.125792
-0.131018
-0.136244
-0.136403
-0.131471
-0.131471
-0.136403
-0.13129
-0.126109
-0.12595
-0.130747
-0.125543
-0.120294
-0.120068
-0.119819
-0.10957
-0.104344
-0.104186
-0.104095
-0.0990272
-0.0940272
-0.0890724
-0.0841403
-0.0842308
-0.0743439
-0.0744796
-0.0696606
-0.0598643
-0.0550905
-0.0503846
-0.0457466
-0.0411312
-0.0365837
-0.0321267
-0.0327828
-0.0335068
-0.0293891
-0.0304751
-0.0317647
-0.0382579
-0.0349547
-0.0369004
-0.0489819
-0.051086
-0.0480769
-0.0499321
-0.0615837
-0.0578959
-0.053733
-0.0539819
-0.058733
-0.0530543
-0.0470814
-0.0458597
-0.0444344
-0.0377602
-0.0308824
-0.0238235
-0.0215611
-0.00923079
-0.00196834
6.78692e-05
0.00185519
0.00834841
0.0144118
0.0149774
0.015181
0.0251584
0.0249548
0.0246154
0.0192081
0.0238235
0.0285068
0.0282127
0.0329186
0.0276471
0.0323982
0.0321041
0.0317873
0.0315158
0.0312217
0.030905
0.0305882
0.0303167
0.03
0.0296606
0.0243439
0.0290271
0.0336878
0.0333032
0.0379412
0.0425792
0.0472172
0.0518326
0.051448
0.0560634
0.0656788
0.0702715
0.0698416
0.074457
0.0740724
0.0786425
0.0782579
0.0828733
0.0924887
0.0920588
0.096629
0.0962217
0.100769
0.100294
0.0998416
0.0894118
0.0889367
0.0783937
0.0578507
0.0473303
0.0367873
0.0311991
0.0206335
0.0200679
0.0194796
0.0188235
0.0132127
0.0126244
0.0120136
0.0114027
0.0108371
0.0102941
0.00972851
0.0091629
0.00861992
0.00809955
0.00760181
0.0071267
0.00667421
0.0062896
0.0108824
0.0154525
0.0201131
0.0297964
0.0445023
0.0492534
0.0640272
0.0788235
0.103597
0.123394
0.158213
0.198032
0.237805
0.282579
0.327308
0.387059
0.426787
0.446471
0.431154
0.40586
0.370543
0.310158
0.214819
0.104502
0.0141629
-0.0411991
-0.0765385
-0.0918552
-0.102195
-0.102511
-0.0978054
-0.0780769
-0.0733258
-0.078552
-0.0787104
-0.0738462
-0.0640045
-0.0691629
-0.074276
-0.0693891
-0.0695249
-0.074638
-0.0747059
-0.0697964
-0.0699095
-0.0750453
-0.0751584
-0.0702715
-0.0704072
-0.0754977
-0.0756335
-0.0707466
-0.070905
-0.0760633
-0.0762217
-0.0714027
-0.0765837
-0.0817647
-0.0769231
-0.0771267
-0.0823529
-0.0825792
-0.0778054
-0.0780317
-0.0782579
-0.0784163
-0.0785068
-0.078552
-0.0784842
-0.078371
-0.0781674
-0.0728959
-0.0725792
-0.0772398
-0.0768552
-0.0714932
-0.0761086
-0.0757014
-0.0752715
-0.0747964
-0.0743213
-0.0738009
-0.0682805
-0.0627602
-0.0622172
-0.0666516
-0.0611539
-0.0506561
-0.0502036
-0.0498416
-0.0445701
-0.0393891
-0.0392534
-0.0342081
-0.0291855
-0.0192081
-0.0242986
-0.0244796
-0.0197964
-0.0202489
-0.0208597
-0.021629
-0.0176018
-0.0187783
-0.0202036
-0.0219457
-0.023914
-0.0259955
-0.0329864
-0.0398643
-0.0365837
-0.0280091
-0.0390272
-0.039457
-0.0394118
-0.0439819
-0.0433258
-0.0424661
-0.0314706
-0.035362
-0.0391629
-0.0328733
-0.021448
-0.0198416
-0.0130317
-0.0109955
-0.00371041
-0.00124434
0.00131222
0.00382353
0.0112217
0.0184615
0.0154299
0.0170136
0.0230769
0.023733
0.0241629
0.024457
0.0296832
0.0248642
0.0250679
0.0252941
0.0255882
0.0209276
0.016267
0.0166063
0.0219683
0.0223756
0.0177602
0.0231222
0.0285068
0.0238914
0.0242986
0.0297059
0.0351357
0.0355656
0.0359955
0.041448
0.0469231
0.0423982
0.0478733
0.0483258
0.0588009
0.059276
0.0597511
0.0652036
0.0656787
0.0661086
0.0615385
0.071991
0.0773982
0.0728054
0.0781901
0.0835973
0.0839819
0.0743439
0.0647059
0.0600679
0.0404072
0.030724
0.0160181
0.0112896
0.00656109
0.00178733
-0.00300905
0.00217194
0.00233031
-0.00257919
-0.00246606
-0.00237557
-0.00233032
-0.00730769
-0.00726245
-0.0022172
-0.00719457
-0.012172
-0.00714933
-0.00710408
-0.00701358
-0.00692308
0.00319004
0.0133258
0.0184842
0.0286425
0.0338688
0.0441176
0.0593891
0.074638
0.104909
0.135181
0.17043
0.205679
0.250928
0.296176
0.35138
0.421584
0.471765
0.4969
0.477036
0.452149
0.41724
0.35733
0.272443
0.147489
0.0525566
-0.0173982
-0.0623756
-0.0923756
-0.107353
-0.107308
-0.107285
-0.0922851
-0.0822625
-0.0822172
-0.0821493
-0.0870588
-0.0819457
-0.08181
-0.0816742
-0.0865385
-0.0864027
-0.0862217
-0.0860408
-0.0958824
-0.090724
-0.0905657
-0.0954299
-0.100317
-0.100204
-0.100091
-0.105
-0.10491
-0.099819
-0.104751
-0.109729
-0.109729
-0.109729
-0.109706
-0.109706
-0.109729
-0.109751
-0.109774
-0.119864
-0.119955
-0.120045
-0.120136
-0.125226
-0.130272
-0.130249
-0.130181
-0.135091
-0.12991
-0.129661
-0.129344
-0.134005
-0.128665
-0.128281
-0.122896
-0.127511
-0.127127
-0.116697
-0.121244
-0.115815
-0.115339
-0.109864
-0.104389
-0.103959
-0.103552
-0.0981674
-0.0928959
-0.0876923
-0.0825566
-0.0774887
-0.0674661
-0.0675113
-0.0626018
-0.0526923
-0.0428281
-0.0480543
-0.043371
-0.0338009
-0.0293665
-0.0351131
-0.0310407
-0.0221267
-0.0234616
-0.03
-0.0317647
-0.0337557
-0.0358597
-0.0429186
-0.0447511
-0.0463801
-0.0476697
-0.0585294
-0.0588688
-0.0537557
-0.0533484
-0.0577149
-0.0518552
-0.0458597
-0.0447059
-0.0434163
-0.0369457
-0.0252941
-0.0234163
-0.0162217
-0.00380092
-0.00128961
0.00110859
0.00341628
0.0105656
0.0174434
0.0238914
0.0197964
0.0252941
0.0254525
0.0303846
0.0252036
0.0299774
0.0297285
0.0294796
0.0293213
0.0342081
0.029095
0.0289819
0.0238462
0.0237557
0.0236425
0.0235294
0.0233937
0.0182353
0.0230996
0.0229412
0.0227376
0.027534
0.0323303
0.0371041
0.0368552
0.0416064
0.0413575
0.0410634
0.0407919
0.045543
0.0502715
0.0499548
0.0496606
0.0493665
0.0540724
0.0537557
0.0584389
0.0631448
0.0728281
0.0724435
0.0770362
0.0816516
0.081267
0.0708145
0.0603394
0.0548869
0.0444118
0.0288914
0.013371
0.00785068
0.00233032
0.0017647
-0.0038009
-0.00436651
-0.00493212
-0.0105656
-0.0111991
-0.0117873
-0.0123982
-0.018009
-0.0136425
-0.0142308
-0.0147964
-0.0203846
-0.0209728
-0.0165158
-0.0120362
-0.0125339
-0.00298641
0.00158373
0.0111991
0.0158145
0.0204751
0.0302263
0.045
0.0647511
0.0895249
0.119344
0.154163
0.193937
0.23371
0.283529
0.323326
0.378054
0.427783
0.452511
0.44224
0.401901
0.366561
0.296222
0.210882
0.100498
0.0100905
-0.0402715
-0.0756561
-0.0960633
-0.096448
-0.0967873
-0.0921267
-0.0874887
-0.082828
-0.0780995
-0.078371
-0.0786425
-0.0738462
-0.0690498
-0.0742534
-0.074457
-0.074638
-0.0647964
-0.0699321
-0.0751131
-0.0702715
-0.0654299
-0.0705882
-0.0757919
-0.0709728
-0.0711538
-0.0763575
-0.0765611
-0.0767421
-0.0769683
-0.0772172
-0.0825113
-0.0778054
-0.0780996
-0.0784163
-0.0737783
-0.0791629
-0.0745475
-0.0749548
-0.070362
-0.0707466
-0.0711086
-0.071448
-0.0717421
-0.0719457
-0.0670815
-0.0721493
-0.0721946
-0.0721493
-0.0670362
-0.0719231
-0.07181
-0.0716968
-0.0665385
-0.0664027
-0.0712443
-0.0660407
-0.0607919
-0.0555656
-0.0603394
-0.0600452
-0.0497738
-0.0495701
-0.0543891
-0.0492081
-0.0440724
-0.0390045
-0.0390271
-0.039095
-0.0342308
-0.0294118
-0.0296606
-0.0249548
-0.0153167
-0.0158145
-0.0164253
-0.0171267
-0.0130317
-0.00914027
-0.0154525
-0.0169683
-0.0137783
-0.015905
-0.0232579
-0.025724
-0.0280995
-0.0353846
-0.0374208
-0.0391403
-0.0403846
-0.0460634
-0.0562444
-0.0510407
-0.0505882
-0.0499321
-0.0490724
-0.0430543
-0.0369231
-0.0306787
-0.0292081
-0.0225113
-0.0106335
-0.00850677
-0.00615382
-0.00366514
0.00875568
0.0110181
0.0131448
0.0149774
0.0164254
0.0223756
0.0179412
0.0232806
0.0234389
0.0235068
0.0185973
0.0186878
0.0238009
0.0239367
0.0191177
0.0193213
0.0245249
0.0197285
0.0199774
0.0202263
0.0204525
0.0206788
0.020905
0.0211765
0.0264254
0.0266516
0.0269005
0.032172
0.0374208
0.0376471
0.0379186
0.0431901
0.0434163
0.0436426
0.0488688
0.0540724
0.0592534
0.0594118
0.0595928
0.0647511
0.0749095
0.0750679
0.0802262
0.085362
0.0854751
0.0856109
0.0857466
0.0858597
0.0759502
0.0610407
0.0461312
0.0311991
0.0261991
0.0111991
0.00119909
0.00119908
0.00115383
0.00108596
-0.00400454
0.000904964
0.000769224
-0.00438914
-0.00452489
0.000316737
0.00515837
-0.00502263
-0.000180999
0.00468325
-0.000475118
-0.00561087
-0.00572399
-0.00583711
-0.000927608
0.00400452
0.0139593
0.023914
0.033914
0.0439593
0.0590271
0.0841177
0.109186
0.129253
0.174321
0.214389
0.264457
0.309502
0.374525
0.439548
0.489548
0.519548
0.504502
0.484457
0.439367
0.374276
0.279163
0.159027
0.0538688
-0.0213348
-0.0615158
-0.0866968
-0.106878
-0.112059
-0.102217
-0.0873529
-0.0974661
-0.0975566
-0.0976471
-0.0976923
-0.0977376
-0.10276
-0.0977828
-0.102783
-0.10776
-0.112738
-0.112738
-0.112738
-0.117715
-0.117715
-0.112715
-0.112738
-0.117783
-0.117828
-0.117919
-0.118009
-0.1231
-0.12319
-0.123303
-0.123439
-0.128575
-0.12371
-0.123869
-0.124072
-0.124276
-0.12448
-0.124729
-0.124977
-0.125204
-0.125385
-0.12552
-0.125588
-0.130566
-0.130475
-0.125339
-0.125181
-0.124955
-0.119683
-0.114389
-0.11405
-0.113688
-0.108326
-0.107941
-0.102511
-0.107059
-0.0965837
-0.091086
-0.0905882
-0.0900905
-0.0845928
-0.0791176
-0.0786652
-0.0782805
-0.0679638
-0.0577602
-0.0576018
-0.0575339
-0.0525566
-0.0476244
-0.0427376
-0.0378733
-0.0331448
-0.0235068
-0.0240045
-0.0246833
-0.015543
-0.0116063
-0.0128507
-0.0193439
-0.016086
-0.0130317
-0.0251131
-0.0271041
-0.0239593
-0.0255882
-0.0319231
-0.0377828
-0.0330769
-0.0379412
-0.0474887
-0.0468326
-0.0410407
-0.0351357
-0.034095
-0.0329638
-0.0266968
-0.0202715
-0.0186425
-0.0117873
-0.004638
0.00278281
0.000452496
0.0132579
0.0159955
0.0236199
0.0260634
0.0332127
0.0399095
0.041086
0.0417873
0.042172
0.0423303
0.0423982
0.0423756
0.042353
0.042353
0.0424208
0.0374435
0.0424661
0.0424887
0.0424887
0.0375113
0.0375113
0.0425113
0.0374887
0.0374434
0.0423982
0.042353
0.0423077
0.0422624
0.0472172
0.0521946
0.0571267
0.0520588
0.061991
0.0669231
0.0668552
0.0617647
0.0666968
0.0766063
0.0714932
0.0713801
0.0762896
0.0861991
0.086086
0.0859955
0.0958824
0.100769
0.0956335
0.0854977
0.080362
0.0702036
0.0500226
0.034819
0.0296154
0.0244118
0.0091629
0.00393665
0.0037104
-0.00151584
-0.00676471
-0.00701358
-0.00726245
-0.00755656
-0.0128281
-0.0130996
-0.0133484
-0.0135973
-0.0138462
-0.014095
-0.00932128
-0.0145475
-0.0147738
-0.0149548
-0.00509051
-0.000181004
0.0047285
0.0146832
0.0246606
0.034638
0.0396606
0.0647285
0.0897964
0.119887
0.154977
0.195068
0.245181
0.290294
0.335385
0.395452
0.445543
0.470611
0.445611
0.415611
0.365633
0.305633
0.205611
0.0905656
0.00552035
-0.0545475
-0.0896154
-0.104683
-0.104751
-0.109819
-0.10991
-0.0949774
-0.0900226
-0.0850679
-0.0901131
-0.0901131
-0.0850905
-0.0900679
-0.0900452
-0.0899774
-0.0849095
-0.0898416
-0.0897511
-0.084638
-0.0895249
-0.089457
-0.0943891
-0.0843213
-0.0892534
-0.0892081
-0.0941629
-0.0891176
-0.089095
-0.089095
-0.0891403
-0.0891629
-0.0842081
-0.0893213
-0.0894344
-0.0845475
-0.084638
-0.0847964
-0.0899547
-0.0900905
-0.0902715
-0.0954525
-0.0956109
-0.0957014
-0.085724
-0.0906787
-0.0906109
-0.0904299
-0.090181
-0.0899095
-0.094638
-0.0893213
-0.0839366
-0.0885973
-0.0882579
-0.0878733
-0.0824434
-0.0870136
-0.0816063
-0.0811312
-0.0756335
-0.0751584
-0.0747285
-0.0693213
-0.0639593
-0.0636878
-0.0634842
-0.0583032
-0.0482127
-0.0532579
-0.0483484
-0.0434389
-0.0385973
-0.0388462
-0.0341629
-0.0245701
-0.0251131
-0.0308145
-0.0266742
-0.0227149
-0.0239819
-0.0254751
-0.0271719
-0.0241176
-0.0263122
-0.0386199
-0.0408371
-0.0428959
-0.0447285
-0.0562669
-0.057285
-0.0527375
-0.0577375
-0.0624434
-0.0568552
-0.0510407
-0.0500226
-0.0488235
-0.0424434
-0.035905
-0.0291629
-0.0271946
-0.0249548
-0.0124661
