ekg
0
0.00166667
0.00100001
0
0.00055556
0.00409091
0.0146154
0.015
0.015
0.0110526
0.00690476
0.00369565
0.00119999
0.00425925
0.0131035
0.0179032
0.0228788
0.0178571
0.0224324
0.0317949
0.0259756
0.0254651
0.0248889
0.0244681
0.0189796
0.0183333
0.0174528
0.0114545
0.00535088
-0.00618644
-0.00819672
-0.0109524
-0.0188462
-0.0163433
-0.0236957
-0.015493
-0.0163014
-0.0112
-0.0108442
-0.00531645
-0.0045679
-0.00891566
-0.00829411
-0.00775862
-0.00219101
-0.00708791
-0.0077957
-0.0103684
-0.0108247
-0.0139899
-0.0267327
-0.0263592
-0.0183333
-0.0195794
-0.0202294
-0.0203604
-0.00991151
-0.00413044
0.00666667
0.012479
0.0283884
0.0442683
0.05508
0.0608661
0.0617442
0.0575573
0.0533835
0.0541852
0.0599635
0.0507554
0.0365957
0.0223077
0.003
-0.0112245
-0.025604
-0.0250993
-0.0294118
-0.0335806
-0.0326115
-0.0414465
-0.0401553
-0.0336196
-0.0369697
-0.0352395
-0.0284911
-0.0215497
-0.0295954
-0.0276571
-0.0207627
-0.00891062
0.00773481
0.0242077
0.0554595
0.101497
0.162328
0.232984
0.323523
0.398872
0.449112
0.444196
0.394204
0.319236
0.229293
0.164275
0.124258
0.114194
0.104202
0.0841628
0.0741475
0.0541324
0.0491403
0.0287331
0.00839369
-0.00192305
-0.00221717
-0.00246603
-0.00766965
-0.00778278
-0.00787327
-0.0129411
-0.018009
-0.0180543
-0.0131221
-0.0132126
-0.0133031
-0.013371
-0.0133936
-0.0184163
-0.0234615
-0.0184841
-0.0184615
-0.0185294
-0.0236651
-0.0238009
-0.0189592
-0.0191629
-0.0243891
-0.024638
-0.0248642
-0.0300905
-0.030362
-0.0256787
-0.0209728
-0.0212669
-0.0265158
-0.0317194
-0.0317873
-0.0267873
-0.0167194
-0.0116063
-0.0164479
-0.0262896
-0.0311764
-0.0360633
-0.0459728
-0.0508597
-0.0557692
-0.0657013
-0.0756108
-0.0804977
-0.0853846
-0.100339
-0.110294
-0.115249
-0.120294
-0.125452
-0.130769
-0.131244
-0.137014
-0.153122
-0.159615
-0.166312
-0.163054
-0.169615
-0.170769
-0.171516
-0.171946
-0.172285
-0.172579
-0.16276
-0.152896
-0.148032
-0.14319
-0.133348
-0.123507
-0.11371
-0.108869
-0.0990271
-0.0891855
-0.0843439
-0.0745475
-0.0747285
-0.0648869
-0.0550679
-0.0502489
-0.0453846
-0.0404751
-0.0306109
-0.0257692
-0.020905
-0.0210181
-0.0210407
-0.0260181
-0.0258597
-0.0254751
-0.019819
-0.0138461
-0.0174887
-0.0107692
-0.00386877
-0.00701356
-0.0104072
-0.00911764
-0.00323528
-0.0026923
-0.0023303
-0.00701357
-0.00174207
-0.0065837
-0.00644796
-0.00638008
-0.00633483
-0.00638007
-0.00153844
0.00325794
0.00305432
0.0028507
-0.00235292
-0.00253391
-0.00269228
-0.00287328
-0.00803166
-0.00314477
0.00180998
0.00680998
0.0118326
0.00687785
0.011991
0.0121493
0.0122851
0.0124661
0.0276697
0.0428959
0.0430996
0.0483258
0.0536199
0.0589367
0.0642308
0.0545475
0.0498643
0.050181
0.0604751
0.0557693
0.0510634
0.0463349
0.0315159
0.0116064
-0.00334839
-0.0133258
-0.0233258
-0.0283258
-0.028371
-0.0234841
-0.0236425
-0.0188461
-0.019095
-0.0193665
-0.0147059
-0.0201357
-0.0206335
-0.0161765
-0.00676469
-0.00244343
0.0068326
0.026086
0.0502941
0.0844797
0.128643
0.197828
0.281991
0.371086
0.430158
0.454208
0.423303
0.337376
0.246425
0.170475
0.144525
0.133575
0.112579
0.0916516
0.0757692
0.0648643
0.0439367
0.0280317
0.0221719
0.0113348
0.00549774
-0.000294121
-0.000995481
-0.00167422
-0.0073077
-0.00796381
-0.00855205
-0.00909503
-0.0146606
-0.0202489
-0.0208371
-0.0163575
-0.0168778
-0.0123756
-0.0179186
-0.0135294
-0.0142308
-0.0199548
-0.0206561
-0.0213348
-0.016991
-0.0227376
-0.0134842
-0.00923077
-0.005
-0.0107919
-0.0115837
-0.00235294
-0.00309955
-0.00380091
-0.00443439
6.78739e-05
-0.00536199
-0.010724
-0.0110181
-0.0113122
-0.00662896
-0.00692308
-0.00717195
-0.00744344
-0.0127149
-0.0180091
-0.0232805
-0.0235294
-0.0338009
-0.044095
-0.0543891
-0.0646606
-0.0699095
-0.075181
-0.090543
-0.105973
-0.106538
-0.112353
-0.118462
-0.12491
-0.126742
-0.134027
-0.146516
-0.153914
-0.15595
-0.162443
-0.163552
-0.169434
-0.165204
-0.160814
-0.156357
-0.151878
-0.13733
-0.122783
-0.113235
-0.103688
-0.0891403
-0.0846606
-0.0802262
-0.0757692
-0.0712896
-0.06681
-0.0673077
-0.0678054
-0.0583258
-0.0488235
-0.0443439
-0.0398416
-0.0352715
-0.0306335
-0.0309728
-0.0312443
-0.0264027
-0.026448
-0.0263575
-0.0310633
-0.0304525
-0.029457
-0.0280543
-0.0263575
-0.0295475
-0.0278733
-0.0216063
-0.0207466
-0.0202262
-0.0197964
-0.00941176
-0.0141176
-0.013914
-0.00375566
0.00635746
0.0114027
0.0113801
0.0163575
0.0212896
0.0212217
0.0111086
0.0110181
0.0109276
0.0158145
0.0107014
0.0106335
0.0205882
0.0305204
0.0354751
0.0304751
0.035543
0.0356561
0.0457919
0.0609729
0.0762217
0.0815158
0.0768778
0.0772851
0.0777376
0.0932353
0.0987104
0.104231
0.104751
0.105249
0.105724
0.106222
0.101742
0.0922172
0.0726471
0.0480317
0.0283937
0.0136878
-0.00108597
-0.000882348
0.00429865
0.00447964
-0.000384612
0.00468326
0.00475114
0.00477376
-0.00027149
-0.00536199
-0.000452483
-0.000610855
0.00418553
0.00391403
0.00359729
0.0132805
0.0279186
0.0474661
0.0769231
0.131357
0.195724
0.285068
0.384412
0.483756
0.533077
0.517353
0.441629
0.325905
0.230181
0.17448
0.148801
0.123145
0.102511
0.0918778
0.071267
0.0557014
0.035181
0.0197285
0.00934386
0.0140497
0.0187556
0.0134389
0.0131448
0.0128733
0.012647
0.0124208
0.0171945
0.0170135
0.0168325
0.0116516
0.00144793
-0.00373306
-0.00393669
-0.00916293
-0.0144118
-0.0146154
-0.00986429
-0.010181
-0.010543
-0.0109276
-0.0113575
-0.0168326
-0.0173077
-0.0178055
-0.0132806
-0.0137557
-0.0142308
-0.019638
-0.02
-0.0202489
-0.0204525
-0.0255656
-0.025543
-0.0304299
-0.0302263
-0.0349774
-0.0347059
-0.0394344
-0.0341629
-0.0389141
-0.0386652
-0.0384163
-0.0381675
-0.0479186
-0.0526471
-0.052353
-0.0620589
-0.0717647
-0.0815385
-0.0913348
-0.0912444
-0.10629
-0.116516
-0.127059
-0.148054
-0.159593
-0.171471
-0.178552
-0.180475
-0.182014
-0.178032
-0.168575
-0.168891
-0.174072
-0.16914
-0.159095
-0.149005
-0.138914
-0.128869
-0.118846
-0.108801
-0.103756
-0.0986652
-0.0935294
-0.0834163
-0.0683484
-0.0682579
-0.0631674
-0.0530769
-0.048009
-0.0479864
-0.0429185
-0.042828
-0.0376697
-0.0375113
-0.0423756
-0.0371946
-0.0319457
-0.0266063
-0.0211086
-0.0103846
-0.00938911
-0.0130317
-0.0111991
-0.00889139
-0.00633483
-0.00884615
-0.00669684
-0.0100452
-0.0138235
-0.0228507
-0.0219909
-0.0212217
-0.0155656
-0.0149547
-0.00943438
-0.00395927
-0.00855203
-0.0132579
-0.0179864
-0.0126697
-0.00230769
-0.00192307
-0.00153846
-0.00613122
-0.00567873
-0.00520361
-0.00468325
0.00590498
0.0115385
0.0221719
0.0227828
0.0334163
0.0391403
0.0448869
0.0406561
0.0514706
0.0673529
0.0732579
0.0791855
0.0901584
0.101176
0.102195
0.103235
0.099276
0.105339
0.10638
0.0923756
0.0833258
0.069276
0.055181
0.0360407
0.0168326
0.00757918
-0.00676471
-0.0161538
-0.0155882
-0.0100226
-0.00950227
-0.0139819
-0.0135068
-0.0130769
-0.00769231
-0.0123529
-0.0171041
-0.0118552
-0.00160634
0.00359728
0.0137557
0.0238235
0.0488235
0.0887783
0.143665
0.228507
0.333326
0.448054
0.522715
0.56733
0.546991
0.466674
0.356358
0.251041
0.200769
0.17052
0.145226
0.114955
0.0947285
0.0745249
0.0593439
0.0442082
0.0241403
0.00911765
-0.000904969
-0.00590497
-0.000882347
0.00420815
0.00436652
0.00452489
0.00468326
0.00488689
0.0101131
0.00540725
0.000723989
-0.00898189
-0.00873302
-0.0035294
-0.00337103
-0.00321266
-0.00305429
-0.00789592
-0.00271493
0.00251132
0.0126923
0.00780544
0.00289593
-0.00205882
-0.00205882
-0.00212669
-0.00721719
-0.00730769
-0.00739819
-0.00751131
-0.0126471
-0.0077828
-0.0078733
-0.00791855
-0.0128959
-0.0177828
-0.00757919
-0.0123077
-0.0169909
-0.021629
-0.0312217
-0.0308145
-0.0353846
-0.0449774
-0.049638
-0.0543213
-0.0690498
-0.0787104
-0.0833258
-0.0879185
-0.0975339
-0.117149
-0.12681
-0.136584
-0.146516
-0.156652
-0.161968
-0.16767
-0.178801
-0.190385
-0.197285
-0.204299
-0.206222
-0.207738
-0.203643
-0.194027
-0.189186
-0.189299
-0.179389
-0.169434
-0.159412
-0.149412
-0.134412
-0.124412
-0.119389
-0.119321
-0.114208
-0.10905
-0.103914
-0.0938009
-0.0836878
-0.0735068
-0.0633484
-0.0682353
-0.0680996
-0.0678959
-0.0676697
-0.0573982
-0.0520815
-0.0416516
-0.0410407
-0.040181
-0.0439367
-0.0422172
-0.0349548
-0.0323529
-0.0445701
-0.0469005
-0.0445928
-0.0377828
-0.0364254
-0.0402941
-0.0342986
-0.0333937
-0.0326244
-0.0269457
-0.0213348
-0.0207918
-0.0253393
-0.0249774
-0.0196832
-0.0194344
-0.0192534
-0.0240271
-0.0237783
-0.0235294
-0.0182805
-0.018009
-0.0177149
-0.0323982
-0.0320588
-0.0267194
-0.0114027
-0.00104071
0.00438916
0.00984164
0.0152941
0.0208145
0.0213575
0.0219457
0.0325792
0.0432579
0.0489593
0.0596833
0.0704299
0.0811991
0.0870362
0.0828959
0.0787557
0.074638
0.0804978
0.0813349
0.0771267
0.0678959
0.0586199
0.0442986
0.0199321
0.000542987
-0.013914
-0.0184615
-0.0180769
-0.0177602
-0.0224434
-0.0221946
-0.00701358
-0.00187783
0.00821267
0.00319004
-0.0019457
0.00287329
0.00766968
0.0173982
0.0320362
0.061629
0.0911765
0.145679
0.200136
0.28957
0.388982
0.498394
0.57776
0.602081
0.58138
0.485701
0.355023
0.239344
0.173733
0.153167
0.132602
0.107081
0.0716063
0.0561991
0.0458371
0.030543
0.0152941
0.00506787
-0.000203624
-0.0104751
-0.0107014
-0.00588236
-0.00604074
-0.0161539
-0.0161991
-0.0111991
-0.0112444
-0.016267
-0.0162896
-0.0162896
-0.016267
-0.016267
-0.0162444
-0.0162444
-0.016267
-0.0163801
-0.0215159
-0.021629
-0.0167647
-0.0120362
-0.0123982
-0.0127828
-0.0181674
-0.0185747
-0.0190045
-0.0243665
-0.0247059
-0.0250453
-0.0303846
-0.0307014
-0.0259955
-0.0262896
-0.0265159
-0.026629
-0.0166516
-0.021629
-0.0216063
-0.0215385
-0.021448
-0.0263349
-0.0312444
-0.0311539
-0.0411312
-0.0461086
-0.0510634
-0.0609502
-0.0707919
-0.0756335
-0.0754977
-0.090362
-0.100226
-0.105181
-0.110249
-0.110385
-0.120701
-0.131312
-0.142285
-0.148643
-0.165317
-0.177149
-0.178937
-0.185362
-0.181335
-0.181855
-0.167172
-0.162466
-0.152692
-0.147873
-0.143032
-0.128258
-0.118507
-0.103733
-0.093914
-0.0890724
-0.0892081
-0.0793439
-0.0745023
-0.0696154
-0.0647285
-0.0547738
-0.039819
-0.0349095
-0.0349774
-0.0300226
-0.0300226
-0.0299321
-0.0297059
-0.0293439
-0.028733
-0.0278281
-0.0265385
-0.0347964
-0.0325566
-0.0249548
-0.0222851
-0.0247059
-0.022534
-0.0159503
-0.0198869
-0.024095
-0.0233711
-0.0227376
-0.0221946
-0.0268326
-0.0265385
-0.026267
-0.0261086
-0.0260181
-0.0159729
-0.0109502
-0.0159729
-0.0209955
-0.0159729
-0.0159276
-0.0209276
-0.020905
-0.0158597
-0.0207692
-0.0206787
-0.0255656
-0.0204299
-0.0102489
-0.00506789
0.000180982
0.0054751
0.0208371
0.0262443
0.0266742
0.0321267
0.047647
0.0632126
0.0688009
0.0744344
0.0800905
0.0807692
0.0714706
0.0671493
0.0678281
0.0735068
0.0741176
0.0696606
0.0652262
0.0507918
0.0313348
0.0118326
0.00233031
-0.0022172
-0.0118326
-0.0164706
-0.0161538
-0.0108823
-0.0106561
-0.0104751
-0.0103846
-0.0103394
-0.010362
-0.0104977
-0.00567874
0.00409503
0.00884615
0.0135294
0.0331674
0.0577828
0.082353
0.131923
0.201448
0.29095
0.385407
0.464842
0.504208
0.488507
0.402805
0.297059
0.201335
0.155634
0.145
0.119367
0.0987783
0.0782353
0.067715
0.0522851
0.0318779
0.0165159
0.0112217
0.00595026
0.000656147
0.00538465
0.0101584
0.0149774
0.00979642
0.00466067
0.0095928
0.00957017
0.00952493
0.00950231
0.00447968
0.00445706
0.00436656
0.00425344
-0.00583706
-0.000904933
-0.000995431
-0.00113118
-0.00126693
0.00861995
0.00846158
0.00325796
0.00300909
0.00276022
-0.00253389
-0.00789588
-0.0082805
-0.0136651
-0.00904974
-0.00945698
-0.0148869
-0.00527147
-0.00563346
-0.00597283
-0.00617645
-0.00624432
-0.00626694
-0.011267
-0.0161765
-0.0160633
-0.0209502
-0.0208371
-0.030724
-0.0356335
-0.040543
-0.0454977
-0.0554525
-0.055362
-0.0702489
-0.0801131
-0.0949774
-0.104796
-0.114638
-0.11957
-0.12957
-0.134593
-0.139706
-0.150045
-0.160656
-0.166652
-0.173054
-0.174842
-0.176742
-0.178462
-0.169796
-0.155634
-0.156176
-0.156561
-0.151946
-0.142353
-0.13276
-0.128122
-0.113416
-0.108688
-0.098914
-0.0940724
-0.0891403
-0.0791629
-0.0691855
-0.0642081
-0.0542308
-0.0392534
-0.0392986
-0.0342986
-0.0292308
-0.0291629
-0.0290724
-0.028914
-0.0236199
-0.02319
-0.0225113
-0.0265385
-0.0251584
-0.0233258
-0.0211312
-0.0137783
-0.0114932
-0.00457013
-0.00309953
-0.00705881
-0.00624433
-0.000497725
0.000135757
-0.00432126
-0.00386877
-0.00846153
-0.00307691
0.0022172
-0.00255655
-0.00235293
0.00285069
0.00800906
0.00316744
-0.00162895
0.0035973
0.00382354
0.00402717
-0.000723969
0.00457015
0.00488689
0.00522625
0.00554299
0.0208597
0.0261991
0.0215837
0.0169683
0.0224434
0.0229638
0.0235068
0.024095
0.0347737
0.0404977
0.0512217
0.0569683
0.0627828
0.0735973
0.0794117
0.0802488
0.0810633
0.0819004
0.0877375
0.078552
0.0743891
0.0702262
0.0510407
0.0268326
0.0125565
0.00323527
-0.0111765
-0.0156788
-0.0202489
-0.0198643
-0.0145023
-0.0142082
-0.0139593
-0.00875567
-0.00361992
-0.00357468
-0.00352941
-0.00355204
0.00135747
0.00615385
0.015905
0.0356109
0.0552715
0.0748869
0.109457
0.164027
0.228552
0.318032
0.407489
0.481923
0.50138
0.460814
0.380249
0.269729
0.199253
0.158733
0.14319
0.12767
0.107172
0.0867194
0.0662896
0.0509276
0.0355656
0.0202262
0.00488686
-0.00542988
-0.00565612
-0.00585974
-0.00604073
-0.00617647
-0.0012896
-0.00644797
-0.011629
-0.00676472
-0.00690046
-0.00203621
-0.00719459
-0.0123303
-0.0174661
-0.0126471
-0.0128959
-0.0181674
-0.0184163
-0.0136652
-0.013914
-0.0192082
-0.024457
-0.0247511
-0.0201584
-0.0156335
-0.0161312
-0.0166516
-0.017172
-0.0176471
-0.0281222
-0.0285747
-0.0289819
-0.0293665
-0.0346606
-0.0298643
-0.025
-0.0301131
-0.0301584
-0.0351358
-0.0350679
-0.0399774
-0.0499321
-0.0548869
-0.0598643
-0.0598643
-0.0598643
-0.0647738
-0.0746833
-0.0846606
-0.0996606
-0.109638
-0.114638
-0.124729
-0.134864
-0.145045
-0.150339
-0.155837
-0.171629
-0.177783
-0.184321
-0.191109
-0.193032
-0.194796
-0.196199
-0.197127
-0.192805
-0.193348
-0.188846
-0.184344
-0.169842
-0.160317
-0.145769
-0.131199
-0.116584
-0.111923
-0.107262
-0.102602
-0.0979638
-0.0933258
-0.0836878
-0.0740272
-0.0743665
-0.0747059
-0.07
-0.0602715
-0.0605204
-0.060724
-0.0558145
-0.0558371
-0.0507919
-0.0555882
-0.0551131
-0.0543439
-0.05319
-0.0516289
-0.0547059
-0.0476923
-0.0458823
-0.044457
-0.0385068
-0.0278733
-0.0224434
-0.0220814
-0.0167647
-0.0165158
-0.0163574
-0.0162896
-0.0112669
-0.00628955
-0.00140267
-0.00162892
-0.0119457
-0.00723978
-0.0075339
-0.00780539
0.00194575
0.0117421
0.0215385
0.0163123
0.0161539
0.0160181
0.0209503
0.0208824
0.0208371
0.0308145
0.0408598
0.0459503
0.0410408
0.0411991
0.0464254
0.0566969
0.051991
0.0622851
0.0825792
0.097896
0.108281
0.113643
0.108982
0.0993213
0.094638
0.0948643
0.0900453
0.0802036
0.0603394
0.0454073
0.0354299
0.0254299
0.00538461
-0.00470589
-0.0148643
-0.0200905
-0.015362
-0.0106787
-0.00606336
-0.00151585
-0.00194571
-0.00735296
-0.00280545
0.00667419
0.00608597
0.00542986
0.00970589
0.0289367
0.0380996
0.0572172
0.0863122
0.140362
0.209412
0.293394
0.387353
0.44629
0.475204
0.439118
0.358032
0.256946
0.19086
0.154819
0.138756
0.117715
0.0916742
0.070724
0.0547738
0.0338462
0.0179638
0.00212669
0.00131221
0.00549774
0.00972851
0.00900453
0.0133032
0.0126244
0.0120136
0.0114027
0.000791861
0.000203625
-0.000361985
-0.000950222
-0.00660633
-0.00230769
0.00196833
0.00126697
-0.00445702
-0.00522625
-0.00101811
-0.00185521
-0.00773757
-0.00868779
-0.00466064
-0.000656117
-0.00669684
-0.00769231
-0.00364254
-0.00457014
-0.0104977
-0.0163801
-0.0172398
-0.0180995
-0.0238688
-0.0295023
-0.025
-0.0154072
-0.00576922
-0.0111538
-0.0114932
-0.0168552
-0.0221946
-0.0274887
-0.0327602
-0.0329638
-0.04319
-0.0484163
-0.0586651
-0.063914
-0.0741629
-0.0844344
-0.0947285
-0.10509
-0.110566
-0.126267
-0.137285
-0.148688
-0.160498
-0.167783
-0.170339
-0.172873
-0.185181
-0.182014
-0.178416
-0.179434
-0.175271
-0.166041
-0.156765
-0.152466
-0.1481
-0.138733
-0.124299
-0.114842
-0.110317
-0.100769
-0.0911765
-0.0765611
-0.0719909
-0.0723756
-0.0627602
-0.0530995
-0.0584389
-0.0637556
-0.0590724
-0.0543665
-0.0496154
-0.0498643
-0.0450905
-0.0402941
-0.0354072
-0.0354751
-0.0404299
-0.0352262
-0.0397964
-0.0390272
-0.0378733
-0.0362896
-0.0344344
-0.0324435
-0.0305882
-0.0291177
-0.0280996
-0.0323982
-0.0268326
-0.0263348
-0.0209276
-0.0256335
-0.0154525
-0.00531675
-0.000271501
0.00470588
0.00461538
0.00954751
0.00450226
-0.000520363
-0.000520362
0.00452489
-0.000407241
-0.000316745
-0.000180997
-9.05022e-05
0.005
0.0100905
0.0252262
0.0404299
0.0457014
0.0460407
0.046448
0.0569004
0.0623756
0.0728959
0.0834842
0.094095
0.104751
0.11043
0.121154
0.1169
0.11767
0.118462
0.119208
0.114909
0.110566
0.111176
0.0917421
0.0672398
0.0426923
0.0280995
0.0185068
0.0139366
0.00929864
0.0145928
0.009819
0.00997737
0.0151131
0.0102036
0.0102489
0.0102036
0.0151131
0.0199321
0.0196832
0.0243891
0.0390498
0.0636652
0.0932353
0.137783
0.207262
0.296697
0.396086
0.49543
0.564796
0.579186
0.543575
0.447896
0.35724
0.266606
0.21595
0.195294
0.184683
0.174118
0.148575
0.128077
0.0976244
0.0822398
0.0569231
0.0316063
0.0113348
-0.00386878
0.00099547
-0.00414027
0.000723977
-0.00436652
0.000588231
-0.00450226
-0.00961539
-0.00970588
-0.00977376
-0.009819
-0.0148643
-0.0148869
-0.0148869
-0.0148869
-0.0199321
-0.025
-0.0200452
-0.0251584
-0.0253167
-0.025543
-0.0258371
-0.0261991
-0.031629
-0.0270814
-0.0275792
-0.0230543
-0.0285747
-0.0290498
-0.0295023
-0.0298869
-0.0252489
-0.0304751
-0.0305204
-0.0304299
-0.0302036
-0.0348869
-0.0344796
-0.0340498
-0.0386425
-0.0432579
-0.0478507
-0.0524434
-0.0620362
-0.0616516
-0.0612443
-0.0608145
-0.070362
-0.0898869
-0.0993439
-0.108778
-0.123235
-0.137783
-0.142398
-0.147127
-0.162036
-0.172262
-0.182941
-0.184118
-0.190814
-0.20276
-0.209819
-0.211584
-0.202828
-0.198575
-0.193959
-0.184186
-0.174299
-0.164457
-0.159593
-0.144729
-0.134842
-0.129864
-0.119796
-0.104661
-0.0944797
-0.0843213
-0.0841629
-0.0789819
-0.0687783
-0.0585747
-0.053371
-0.0431448
-0.0328733
-0.0326018
-0.0323077
-0.0319457
-0.031448
-0.0307919
-0.0299548
-0.0288009
-0.0272172
-0.025181
-0.0327149
-0.0349321
-0.0320588
-0.0243213
-0.0220362
-0.0201584
-0.0136878
-0.00746606
-0.00633484
-0.00524887
-0.00416289
-0.00819004
-0.00733031
-0.0065837
-0.010905
-0.00531674
-0.00488687
-0.0095475
-0.00925339
-0.00391402
-0.0036199
-0.00328053
-0.00291854
0.0024887
0.00289594
0.00330318
0.00375567
0.00425341
0.0047964
0.00533939
0.00595024
0.011629
0.0223303
0.0230091
0.023733
0.0345023
0.0453168
0.0611312
0.076991
0.0929186
0.108891
0.114887
0.125905
0.121946
0.128032
0.124095
0.120136
0.111131
0.102104
0.0830317
0.0538914
0.0297059
0.00547513
-0.0138235
-0.0282127
-0.0376244
-0.0370814
-0.0316289
-0.0312443
-0.035905
-0.0356108
-0.0304072
-0.0352489
-0.0351131
-0.035
-0.0249547
-0.0250452
-0.0252036
-0.0203846
-0.000633476
0.0240498
0.0537104
0.103371
0.182986
0.292579
0.412104
0.531652
0.596199
0.615701
0.550181
0.434638
0.32414
0.238643
0.198145
0.17267
0.162262
0.131923
0.106606
0.0863575
0.0561312
0.0309729
0.0108371
0.00574661
0.00570136
0.00570136
0.00570136
-0.00429864
-0.00425339
-0.00414027
-0.00400452
-0.00884615
-0.00864253
-0.00839366
-0.00814479
-0.0128959
-0.0176697
-0.0124434
-0.0122398
-0.0170814
-0.0169683
-0.0118778
-0.0118552
-0.0169005
-0.0219683
-0.0170588
-0.0171719
-0.0173756
-0.0126244
-0.0129186
-0.0132579
-0.023552
-0.0238235
-0.0190724
-0.0242986
-0.0244796
-0.029638
-0.0196606
-0.0195475
-0.0243665
-0.0291403
-0.0238688
-0.0285747
-0.0382579
-0.0429638
-0.0476471
-0.0523303
-0.0620136
-0.0716968
-0.0814027
-0.086086
-0.100769
-0.115475
-0.120181
-0.119842
-0.134548
-0.139344
-0.154186
-0.154118
-0.164208
-0.179593
-0.190407
-0.201674
-0.203371
-0.210271
-0.217127
-0.218552
-0.21448
-0.205
-0.200271
-0.185452
-0.175611
-0.165837
-0.156086
-0.14138
-0.126674
-0.121923
-0.112149
-0.0972851
-0.0873303
-0.0823529
-0.0773982
-0.0674434
-0.0574434
-0.0524434
-0.0474208
-0.0423756
-0.0322851
-0.0272172
-0.0321493
-0.0320814
-0.0319231
-0.0316516
-0.0362443
-0.0406335
-0.044638
-0.0381448
-0.0411086
-0.0435294
-0.0406335
-0.0376244
-0.0298869
-0.0276923
-0.0210181
-0.0147285
-0.00866514
-0.0126923
-0.0167194
-0.0158597
-0.0151357
-0.00947963
-0.0189593
-0.0135294
-0.00816741
-0.00785067
-0.0075113
-0.00714931
-0.00176469
-0.00142532
-0.00606333
-0.00567871
-0.000294104
9.05134e-05
-0.00947963
-0.00902714
-0.0085294
-0.00303166
-0.00253392
0.00305432
0.0136878
0.0243439
0.0300226
0.0357693
0.0465611
0.052353
0.0631674
0.069095
0.0900453
0.105995
0.121968
0.132964
0.123982
0.119955
0.110882
0.10681
0.0977149
0.0885747
0.0643665
0.0351584
0.0159276
0.00662896
0.00226244
-0.00212669
-0.00658371
-0.00110859
-0.000701353
-0.000339374
-6.78748e-05
0.000158362
0.00527149
0.000271492
0.000203632
0.00504526
0.00981902
0.0095249
0.0192308
0.0388688
0.0584616
0.0879638
0.137489
0.216968
0.32638
0.440747
0.540068
0.594412
0.578733
0.488032
0.37233
0.276652
0.210995
0.180339
0.154774
0.139276
0.118824
0.103416
0.0830995
0.0578733
0.042647
0.0224434
0.00730768
0.0022398
0.00219455
0.0021493
-0.00287332
-0.0078507
-0.0128054
-0.0177828
-0.0177602
-0.0126923
-0.0125792
-0.00751133
-0.00746608
-0.00744346
-0.00744345
-0.00246608
-0.00753395
-0.00762445
-0.00769232
-0.0078507
-0.0131222
-0.0184163
-0.0237557
-0.019095
-0.0144344
-0.0147285
-0.00497739
-0.0102263
-0.0204751
-0.025724
-0.0209502
-0.0261086
-0.0261539
-0.0311312
-0.0360181
-0.0308371
-0.0356335
-0.0404073
-0.0451584
-0.0449095
-0.0496606
-0.0544118
-0.0541629
-0.058914
-0.0686878
-0.0734842
-0.0832805
-0.0880769
-0.0928733
-0.107692
-0.117557
-0.127489
-0.132534
-0.14276
-0.153258
-0.15905
-0.170317
-0.191923
-0.198801
-0.200656
-0.20224
-0.208416
-0.214072
-0.214457
-0.204661
-0.199842
-0.199955
-0.189977
-0.179955
-0.169955
-0.165023
-0.155045
-0.145023
-0.134977
-0.124932
-0.119909
-0.109887
-0.104887
-0.0898643
-0.0898416
-0.074819
-0.0597738
-0.0497285
-0.0446606
-0.0445701
-0.034457
-0.0343439
-0.0341855
-0.028914
-0.023552
-0.0280317
-0.0272624
-0.0261086
-0.0244344
-0.0222398
-0.0245928
-0.0216968
-0.0188914
-0.0165159
-0.0146606
-0.00823531
-0.0021267
-0.0061991
-0.010362
-0.00957014
-0.00886878
-0.0132353
-0.0176697
-0.0121946
-0.00680995
-0.00653846
-0.0113122
-0.011086
-0.0058371
-0.000588231
-0.000316739
-4.52399e-05
0.0102262
0.0154977
0.0158371
0.0112443
0.0166742
0.0221719
0.0277149
0.0333032
0.0338914
0.0395475
0.0402489
0.0409955
0.0567647
0.0775339
0.0833484
0.0941629
0.0999774
0.100814
0.0966742
0.0924887
0.0983032
0.0940498
0.0897285
0.0853394
0.0708824
0.0513575
0.0267873
0.0121493
0.00244344
-0.00228507
-0.00705881
-0.0118778
-0.0067647
-0.00669683
-0.0116968
-0.0117195
-0.00678734
-0.00190047
-0.00708146
-0.00726245
-0.00751133
-0.00278283
0.00190043
0.0165158
0.0410633
0.075543
0.12
0.184434
0.258824
0.36819
0.452489
0.516697
0.530905
0.485113
0.409321
0.303529
0.232715
0.1869
0.171131
0.150385
0.119615
0.0988914
0.0782127
0.0626018
0.0320362
0.0114932
0.000995457
-0.00445703
-0.00486428
-0.000294141
0.00432125
-0.00106338
-0.00135749
-0.00165161
-0.00190047
-0.00710411
-0.0122625
-0.0123982
-0.0125792
-0.0127376
-0.0128959
-0.0180769
-0.0182806
-0.0235068
-0.0287783
-0.0340724
-0.0394118
-0.0397964
-0.0402036
-0.0406335
-0.036086
-0.0315385
-0.0319683
-0.0323982
-0.0278281
-0.0182353
-0.0235973
-0.0289141
-0.0291403
-0.0292987
-0.0343892
-0.0394344
-0.0344344
-0.0294118
-0.0343665
-0.0393439
-0.0443439
-0.0443439
-0.0543213
-0.0592987
-0.0642987
-0.069276
-0.0842534
-0.0942082
-0.0991856
-0.109186
-0.119208
-0.129299
-0.129502
-0.139932
-0.155611
-0.166674
-0.17319
-0.175091
-0.192127
-0.199118
-0.205724
-0.206878
-0.207624
-0.1981
-0.188507
-0.178824
-0.174095
-0.164276
-0.144412
-0.134548
-0.124683
-0.114842
-0.105
-0.095181
-0.0903846
-0.0856109
-0.0758597
-0.066086
-0.0563122
-0.0565385
-0.0467647
-0.0419683
-0.0371493
-0.042353
-0.037534
-0.0376923
-0.0328281
-0.0329638
-0.0280317
-0.0229638
-0.0227376
-0.0273303
-0.026629
-0.0255656
-0.0190272
-0.0171041
-0.0198869
-0.0175792
-0.0154751
-0.018733
-0.0174435
-0.0164706
-0.0157014
-0.015
-0.00938917
-0.00889143
-0.00850681
-0.0132353
-0.0180317
-0.0129412
-0.0129412
-0.0129865
-0.0130317
-0.0030317
-0.00300907
0.0020588
-0.00289596
-0.00282808
0.00226241
0.00737554
0.00751129
0.00764703
0.0178054
0.023009
0.0232579
0.028552
0.0388687
0.0492081
0.0545475
0.0599321
0.0703167
0.0807013
0.0861312
0.0866063
0.0920814
0.0925565
0.0880316
0.0884841
0.0938914
0.094276
0.0796832
0.0650678
0.0453846
0.0306561
0.0108371
-0.00402718
-0.0089593
-0.00891405
-0.0138914
-0.0139141
-0.00895931
-0.00407244
-0.00420818
-0.00443442
0.000294082
0.00499997
0.00963798
0.0041855
0.00368776
0.0131674
0.0225792
0.041923
0.0711991
0.120452
0.179661
0.263824
0.362941
0.462059
0.511176
0.505204
0.429231
0.333235
0.242217
0.176199
0.155204
0.139276
0.123394
0.0975339
0.0817195
0.0659955
0.0453167
0.024638
0.00902714
0.00346153
0.00291855
0.00239817
0.00190044
0.00144794
0.0010407
-0.00434392
-0.00472853
-0.0050679
-0.00540726
-0.00574663
-0.0111086
-0.0164254
-0.0167647
-0.0121041
-0.0124661
-0.0178507
-0.0182127
-0.0135973
-0.0140498
-0.0195928
-0.0151584
-0.0157692
-0.0164253
-0.0221267
-0.0228054
-0.0184842
-0.0242082
-0.0249095
-0.0255882
-0.0262217
-0.0267873
-0.0322172
-0.0275339
-0.0227602
-0.0229638
-0.0281901
-0.0283484
-0.0284842
-0.0336199
-0.0437557
-0.0438461
-0.0489366
-0.0490271
-0.0541629
-0.0592986
-0.0644118
-0.0745023
-0.079638
-0.0847737
-0.0948643
-0.104955
-0.115136
-0.125407
-0.130814
-0.136448
-0.152466
-0.158914
-0.165814
-0.178009
-0.190294
-0.192443
-0.189118
-0.185317
-0.181154
-0.171787
-0.162285
-0.157692
-0.158077
-0.148416
-0.138756
-0.119072
-0.114412
-0.104774
-0.0950905
-0.085362
-0.0806561
-0.0809502
-0.0711991
-0.0664253
-0.0566516
-0.0518778
-0.0520362
-0.0421493
-0.0372398
-0.0373303
-0.0373982
-0.0324208
-0.0274208
-0.0223529
-0.0171493
-0.0167194
-0.0210181
-0.0199321
-0.023371
-0.0213801
-0.0141629
-0.0169909
-0.0151357
-0.00871042
-0.00769231
-0.00199096
-0.00640273
-0.00585974
-0.00538463
-0.00500001
-0.00470589
-0.00445702
0.00567872
0.000701342
0.000656093
0.00561085
0.00558822
0.0055656
0.0055656
0.00558823
0.0106109
0.0106335
0.0106561
0.0157466
0.0208597
0.0209955
0.0161312
0.0212896
0.0265158
0.0317647
0.0420362
0.0423303
0.0476923
0.0581222
0.078552
0.0839819
0.099457
0.109977
0.115498
0.111018
0.111561
0.117104
0.112602
0.108054
0.0985068
0.0839593
0.0594118
0.0347964
0.015181
0.00556562
0.00590499
-0.00382352
-0.0086199
-0.0084389
-0.00832578
-0.00830315
-0.00830315
-0.00334841
0.00153847
0.0013801
0.00119912
0.000972867
0.0107014
0.0103846
0.0100453
0.014638
0.0341403
0.0585747
0.0980091
0.157443
0.246833
0.346154
0.455475
0.529796
0.554072
0.523303
0.422534
0.31681
0.231109
0.18543
0.159774
0.139163
0.118575
0.0929638
0.0723982
0.0518778
0.0364706
0.0260407
0.0106335
0.000271486
-2.26311e-05
-0.000316748
-0.00563348
-0.00590497
-0.00615384
-0.00635746
-0.0165611
-0.0217873
-0.0219457
-0.0271041
-0.0323077
-0.0325339
-0.0277375
-0.0229412
-0.0231674
-0.023371
-0.0236199
-0.0239366
-0.0293213
-0.0247511
-0.0252262
-0.0206787
-0.0261538
-0.0266063
-0.0270136
-0.0224208
-0.0178054
-0.02319
-0.0235068
-0.0287783
-0.0239593
-0.029095
-0.0241629
-0.019095
-0.0190271
-0.0239366
-0.0288235
-0.0287104
-0.0335973
-0.0384615
-0.0383258
-0.0431448
-0.0429864
-0.0578507
-0.0626923
-0.0674887
-0.0722851
-0.0821041
-0.0969683
-0.0968778
-0.101878
-0.112014
-0.127421
-0.1381
-0.13914
-0.145566
-0.152376
-0.164344
-0.166199
-0.17267
-0.17862
-0.174118
-0.169344
-0.15948
-0.159525
-0.159525
-0.159525
-0.149548
-0.14457
-0.139638
-0.129706
-0.119751
-0.104842
-0.0999774
-0.0900905
-0.0802262
-0.0753394
-0.0704525
-0.055543
-0.0506109
-0.0506787
-0.0457466
-0.0458145
-0.0408597
-0.040905
-0.0359276
-0.0259276
-0.0208371
-0.0306335
-0.0352715
-0.0296154
-0.0285747
-0.0320814
-0.0350679
-0.0326923
-0.0302262
-0.0279185
-0.0310407
-0.0296154
-0.028552
-0.0227149
-0.0219909
-0.0213574
-0.0158145
-0.0154072
-0.0150679
-0.0197964
-0.00959274
-0.004457
-0.0043665
-0.00929862
-0.00423075
0.000837132
0.000905003
0.000995494
0.00113124
0.00628961
0.0114254
0.00656111
0.0117647
0.0219457
0.0271267
0.027353
0.0326471
0.0429865
0.0433258
0.0537104
0.0641629
0.0796154
0.0850679
0.095543
0.0960634
0.0965837
0.0920589
0.087534
0.0880091
0.0884616
0.0838914
0.0692534
0.0596154
0.0399095
0.030181
0.0154073
-0.00434388
-0.00911763
-0.0139366
-0.0138009
-0.0137104
-0.0136651
-0.0186651
-0.018733
-0.0238235
-0.0189366
-0.0140724
-0.0142986
-0.0195475
-0.0198416
-0.020181
-0.0055656
0.00898191
0.0335294
0.0730317
0.132489
0.196878
0.286222
0.390566
0.479887
0.529186
0.513462
0.432738
0.311991
0.211244
0.155566
0.129887
0.104231
0.0835747
0.0679412
0.0472851
0.0216516
0.0110634
0.000520365
-0.00497737
-0.00542987
-0.000837108
-0.0061991
-0.00151584
-0.00678733
-0.00705883
-0.0073077
-0.00748869
-0.00769231
-0.00791855
-0.00812217
-0.00332579
-0.00352941
-0.00873302
-0.00893665
-0.00909502
-0.00925339
-0.00447963
-0.009819
-0.00515836
-0.00552035
-0.0109276
-0.0163801
-0.0118326
-0.00730768
-0.0128054
-0.0183484
-0.0238914
-0.0194118
-0.0198642
-0.0202262
-0.0204977
-0.0156787
-0.0207918
-0.0258597
-0.025905
-0.0208823
-0.0258371
-0.0307918
-0.0307466
-0.0306787
-0.0356561
-0.0406561
-0.0506787
-0.0557466
-0.0608145
-0.0658597
-0.0809276
-0.0809955
-0.086086
-0.0962896
-0.106652
-0.112195
-0.112964
-0.12414
-0.140679
-0.142624
-0.149774
-0.1519
-0.16371
-0.159977
-0.155814
-0.156403
-0.1569
-0.14733
-0.13767
-0.127941
-0.12819
-0.118416
-0.108643
-0.103891
-0.104118
-0.0944118
-0.0847285
-0.0800905
-0.0754751
-0.0658371
-0.0612217
-0.0516289
-0.0470362
-0.0474434
-0.042828
-0.0382127
-0.0386199
-0.0340271
-0.0294344
-0.0298643
-0.0302036
-0.0304977
-0.0256787
-0.025724
-0.0255204
-0.025
-0.0240724
-0.022647
-0.0208371
-0.0237783
-0.0217873
-0.020181
-0.0241403
-0.0335746
-0.0282353
-0.023009
-0.0228733
-0.027828
-0.0228507
-0.0179638
-0.0232127
-0.0285068
-0.0288461
-0.0291855
-0.0245475
-0.0298869
-0.0302489
-0.0305656
-0.0259276
-0.0263122
-0.0266742
-0.0170136
-0.0123303
-0.0126244
-0.0128959
-0.00812216
-0.00832578
-0.00350677
-0.00366514
0.00122174
0.00613124
0.0261086
0.031086
0.0361312
0.0411765
0.0461991
0.0462217
0.051267
0.056267
0.0611991
0.061086
0.055905
0.0457014
0.0254299
0.00511314
-0.0102262
-0.0255882
-0.0360407
-0.0465837
-0.0521493
-0.0527375
-0.0533937
-0.0591176
-0.0598642
-0.0456108
-0.0414027
-0.0372398
-0.0281448
-0.0240498
-0.0249547
-0.0258597
-0.0218326
-0.00778279
0.021267
0.0552941
0.0992986
0.158303
0.24733
0.336312
0.435249
0.494208
0.493167
0.432149
0.311109
0.215136
0.154208
0.128281
0.112353
0.0914706
0.0706787
0.0499095
0.0341629
0.0134841
0.00787329
-0.0127149
-0.0183032
-0.0188009
-0.0142308
-0.00963802
-0.0150679
-0.0104525
-0.0108145
-0.0111312
-0.0164253
-0.0167195
-0.0119457
-0.00714933
-0.012353
-0.012534
-0.00769232
-0.0128733
-0.00809956
-0.0083258
0.00147058
0.00624434
0.000995461
0.000678714
-0.00470589
-0.000181012
-0.00572399
-0.00626698
-0.00176472
0.00273754
0.00721718
0.00165157
0.00115383
-0.00429866
-0.00468328
-0.00502264
-0.00527151
-0.000407256
-0.000497755
-0.000543002
-0.00556562
-0.000588242
-0.000610866
-0.000701364
-0.00579187
-0.000882361
0.00404977
-0.00104073
-0.00613123
-0.0111765
-0.0161991
-0.0212444
-0.0262896
-0.0313349
-0.0414254
-0.0465837
-0.0569231
-0.0624887
-0.0733711
-0.0795928
-0.0912444
-0.0932806
-0.0955204
-0.10276
-0.104683
-0.0911312
-0.0821041
-0.0777828
-0.0683032
-0.0587557
-0.0441855
-0.0346154
-0.0300679
-0.0204751
-0.00585974
0.00882351
0.0135068
0.02319
0.0328959
0.0425792
0.0472398
0.0469231
0.0517195
0.0565385
0.0614027
0.0563122
0.0512443
0.0461991
0.0461312
0.0411086
0.0361765
0.0313801
0.0267421
0.0222851
0.0180996
0.0192987
0.015905
0.0129864
0.010362
0.00773755
0.00484162
-0.00359729
-0.00746606
-0.00660633
-0.00585972
-0.00518099
-0.0145928
-0.00909502
-0.0136878
-0.0183484
-0.0230543
-0.0227602
-0.0226018
-0.0324887
-0.0373756
-0.0372624
-0.0271041
-0.0269683
-0.0267873
-0.0266063
-0.0264027
-0.0262217
-0.0360181
-0.0357466
-0.0354299
-0.0351131
-0.0347737
-0.0293439
-0.0188914
-0.0184389
-0.0179864
-0.0124661
-0.00687782
0.00871041
0.0243213
0.0449548
0.0606787
0.0564027
0.0471267
0.0478959
0.0486878
0.0494796
0.0402036
0.0358824
0.0215158
0.00705882
-0.00744345
-0.026991
-0.0415611
-0.0561765
-0.0608597
-0.0606109
-0.0553846
-0.045181
-0.0450453
-0.0449547
-0.0448869
-0.0397964
-0.0397738
-0.0397738
-0.0397738
-0.0347738
-0.034819
-0.0299095
-0.02
-0.00011313
0.0397964
0.0946606
0.169548
0.264434
0.364321
0.454186
0.50405
0.508959
0.438891
0.338824
0.238869
0.179005
0.144118
0.124253
0.109434
0.0897285
0.0750679
0.0504299
0.0308371
0.00633483
-0.00307693
-0.00746607
-0.01181
-0.00608598
-0.00531676
-0.00954753
-0.0187557
-0.0178959
-0.021991
-0.0210634
-0.0201584
-0.0243213
-0.018552
-0.0228054
-0.0270815
-0.0263801
-0.0257014
-0.0200679
-0.0195023
-0.0139367
-0.0134163
-0.0179638
-0.0225792
-0.0222398
-0.0219457
-0.0216969
-0.0214932
-0.0212896
-0.0210407
-0.0207693
-0.0205204
-0.0203168
-0.0200679
-0.0197738
-0.0294344
-0.0340045
-0.0234616
-0.0178281
-0.0171946
-0.0115611
-0.015905
-0.0152036
-0.0194797
-0.0187783
-0.0230769
-0.0223756
-0.0266969
-0.0360634
-0.0404525
-0.0447964
-0.0491629
-0.0635294
-0.0729186
-0.0673077
-0.0667874
-0.0714027
-0.0812217
-0.086267
-0.091629
-0.102398
-0.118484
-0.124796
-0.126109
-0.132262
-0.132896
-0.128032
-0.117851
-0.107579
-0.102262
-0.0819231
-0.0715385
-0.0611539
-0.0507692
-0.0403168
-0.0248416
-0.0144344
-0.00463802
-0.000678746
0.0142986
0.0219231
0.0367194
0.0422851
0.0579412
0.0635973
0.0642534
0.0647964
0.0753167
0.0856335
0.0858824
0.0859728
0.0810407
0.0861312
0.0813122
0.0766968
0.0773756
0.0784163
0.0846606
0.0810181
0.0772172
0.0829864
0.0781222
0.0726923
0.0869005
0.0958145
0.0995475
0.0930543
0.0963575
0.0994797
0.102353
0.100023
0.0974661
0.0997738
0.101923
0.0990046
0.101041
0.107986
0.104796
0.0964932
0.0931674
0.0947738
0.0963575
0.107919
0.119434
0.12595
0.127466
0.128937
0.130385
0.136833
0.148281
0.144729
0.156199
0.167715
0.179208
0.185634
0.192036
0.198371
0.199661
0.195905
0.187127
0.183326
0.189502
0.190611
0.186652
0.17267
0.15862
0.134412
0.110113
0.0908145
0.0814706
0.0770588
0.0725792
0.0730317
0.0683937
0.0736426
0.0738236
0.0739819
0.0791403
0.0792534
0.0842986
0.0743213
0.0792986
0.0792308
0.089095
0.0989367
0.118824
0.148733
0.19862
0.253462
0.338258
0.443032
0.53276
0.597466
0.592172
0.546901
0.431606
0.32129
0.251041
0.220814
0.205634
0.18552
0.16052
0.145566
0.125633
0.0957692
0.0759502
0.0861764
0.221425
0.411719
0.197059
-0.387557
-0.867149
-1.0367
-1.0512
-1.05066
-1.05014
-1.02464
-1.01416
-0.96862
-0.948077
-0.902557
-0.877104
-0.841742
-0.806425
-0.776176
-0.745996
-0.72586
-0.680815
-0.655815
-0.615882
-0.591041
-0.551222
-0.526448
-0.506674
-0.476833
-0.456991
-0.422195
-0.397443
-0.37267
-0.342851
-0.317986
-0.2931
-0.273122
-0.243077
-0.232986
-0.217919
-0.197828
-0.172715
-0.157647
-0.152624
-0.142624
-0.137647
-0.13267
-0.127692
-0.12267
-0.127624
-0.122602
-0.117602
-0.117624
-0.112647
-0.112715
-0.112896
-0.12319
-0.123643
-0.114367
-0.11043
-0.0968779
-0.0885747
-0.080362
-0.0770589
-0.0735068
-0.0696155
-0.0553847
-0.0409955
-0.0365611
-0.0221267
0.00230767
0.0166516
0.0259502
0.0402715
0.0545927
0.0736877
0.0817873
0.0995701
0.119185
0.136448
0.140158
0.144185
0.153235
0.162262
0.166176
0.175023
0.18371
0.187308
0.185769
0.18414
0.182466
0.185724
0.18905
0.197398
0.201018
0.204932
0.19914
0.198507
0.197715
0.201584
0.209774
0.202376
0.209525
0.211448
0.203167
0.199728
0.201086
0.207285
0.203348
0.204185
0.209864
0.21552
0.216742
0.21371
0.219638
0.217873
0.213869
0.199004
0.194004
0.193982
0.188914
0.183937
0.168959
0.169163
0.164434
0.16991
0.175453
0.181154
0.182014
0.182964
0.18405
0.195272
0.201674
0.203167
0.209819
0.211561
0.208484
0.195475
0.187534
0.189683
0.196855
0.194163
0.186516
0.173937
0.161471
0.14905
0.121652
0.104253
0.091991
0.0896833
0.0823982
0.0801358
0.0829638
0.0807918
0.0786425
0.0815158
0.0793891
0.0872624
0.0851131
0.0829864
0.0858144
0.0886877
0.0915837
0.094457
0.112398
0.130339
0.163303
0.206244
0.274208
0.35224
0.440294
0.498416
0.516629
0.489909
0.423213
0.341561
0.269932
0.233394
0.216923
0.200475
0.184118
0.177873
0.161674
0.135498
0.124366
0.168303
0.38233
0.45138
0.0404977
-0.540317
-0.861109
-0.931946
-0.932828
-0.92871
-0.899615
-0.895543
-0.856493
-0.837443
-0.798416
-0.769457
-0.740543
-0.69672
-0.662941
-0.614231
-0.590543
-0.551878
-0.528235
-0.499683
-0.471244
-0.442828
-0.409457
-0.391063
-0.362738
-0.344344
-0.31595
-0.302624
-0.284299
-0.26595
-0.257489
-0.238982
-0.225407
-0.211765
-0.203077
-0.179321
-0.165566
-0.156765
-0.142964
-0.12414
-0.110385
-0.106629
-0.0978281
-0.0940272
-0.0852263
-0.0814932
-0.0777376
-0.0790272
-0.0702715
-0.0715385
-0.0728055
-0.0641403
-0.0655883
-0.0772172
-0.0740498
-0.0711539
-0.0686652
-0.0664028
-0.0692761
-0.0620589
-0.0596154
-0.0518326
-0.03862
-0.0351358
-0.0215385
-0.0129638
-0.00934393
0.00434385
0.0230769
0.0417873
0.0404977
0.0592533
0.067828
0.0805656
0.0832352
0.09819
0.100814
0.109661
0.118756
0.127873
0.141968
0.145995
0.154842
0.153575
0.157127
0.16552
0.158778
0.161968
0.160113
0.158235
0.156448
0.154842
0.158484
0.162353
0.156357
0.155339
0.159095
0.157466
0.160339
0.157783
0.159977
0.162014
0.158869
0.160543
0.167127
0.173552
0.179751
0.180837
0.182059
0.189186
0.196561
0.202014
0.209796
0.216041
0.2219
0.222692
0.228484
0.229389
0.235294
0.236335
0.237466
0.243756
0.245136
0.256652
0.263371
0.275272
0.282421
0.284661
0.287081
0.294615
0.312285
0.310091
0.318009
0.316063
0.319163
0.307398
0.305724
0.30914
0.302534
0.29595
0.274389
0.257805
0.241244
0.229661
0.223077
0.206471
0.19991
0.193326
0.191742
0.185204
0.18871
0.18724
0.180769
0.179321
0.177873
0.181471
0.180068
0.18871
0.187353
0.201041
0.209729
0.228416
0.257172
0.300928
0.359638
0.428394
0.522195
0.581018
0.614842
0.59371
0.532647
0.451629
0.360634
0.309751
0.283914
0.283145
0.262421
0.236742
0.216154
0.195611
0.180136
0.159661
0.199276
0.378914
0.393597
-0.106674
-0.696923
-0.967172
-1.01747
-1.02271
-1.00796
-0.993213
-0.953507
-0.923801
-0.879118
-0.839525
-0.804955
-0.770475
-0.740996
-0.701606
-0.677285
-0.647986
-0.623756
-0.584548
-0.55543
-0.53138
-0.507421
-0.488462
-0.459593
-0.435701
-0.41681
-0.397919
-0.374027
-0.350181
-0.336267
-0.31724
-0.293077
-0.278801
-0.264412
-0.249955
-0.23543
-0.220837
-0.211199
-0.191493
-0.176787
-0.162081
-0.157353
-0.152557
-0.147738
-0.137873
-0.137964
-0.133032
-0.123077
-0.123122
-0.123122
-0.128145
-0.133235
-0.128416
-0.128846
-0.129525
-0.130588
-0.132036
-0.128914
-0.125995
-0.118032
-0.119796
-0.121086
-0.111878
-0.0922851
-0.0775792
-0.0628054
-0.0479864
-0.0331222
-0.0132127
0.00171945
0.0165158
0.0303394
0.0489593
0.0597964
0.0686425
0.084095
0.100023
0.11095
0.121946
0.132828
0.138688
0.149434
0.150068
0.155611
0.160928
0.166176
0.171222
0.171222
0.176109
0.181041
0.181041
0.181199
0.186606
0.197081
0.192602
0.192851
0.192715
0.202036
0.195837
0.194276
0.197443
0.200498
0.198348
0.196018
0.208484
0.215792
0.217941
0.219932
0.227014
0.234819
0.232624
0.2431
0.24086
0.25233
0.243552
0.244706
0.250882
0.257081
0.258439
0.25491
0.271584
0.278416
0.285407
0.282579
0.29491
0.302398
0.299955
0.307647
0.310475
0.328484
0.331606
0.344864
0.343235
0.356652
0.350181
0.343801
0.342466
0.341154
0.344887
0.328688
0.307489
0.281335
0.260181
0.234027
0.217851
0.206674
0.195453
0.189231
0.183009
0.19181
0.200633
0.19948
0.193326
0.192149
0.190995
0.184864
0.183733
0.187624
0.191538
0.195475
0.209412
0.238348
0.26724
0.326199
0.385158
0.479118
0.583054
0.677036
0.731086
0.720181
0.664321
0.548462
0.437647
0.3569
0.326222
0.305588
0.275
0.249502
0.22405
0.208733
0.233484
0.433371
0.473326
-0.0216742
-0.686652
-1.04665
-1.14663
-1.14661
-1.16658
-1.14156
-1.13656
-1.10661
-1.0817
-1.05179
-1.00192
-0.972127
-0.917376
-0.88767
-0.833009
-0.798416
-0.753846
-0.719367
-0.679955
-0.635656
-0.61138
-0.572172
-0.548009
-0.508914
-0.484819
-0.455724
-0.421652
-0.397579
-0.373552
-0.359502
-0.335407
-0.321199
-0.301855
-0.287398
-0.267828
-0.248167
-0.233439
-0.218756
-0.209005
-0.194231
-0.189412
-0.179593
-0.169751
-0.159842
-0.154932
-0.149977
-0.150023
-0.144955
-0.144887
-0.149796
-0.154729
-0.149683
-0.139683
-0.139887
-0.145249
-0.145882
-0.14181
-0.14819
-0.149887
-0.141742
-0.138507
-0.13491
-0.125882
-0.11138
-0.0966516
-0.0867873
-0.0718552
-0.0619004
-0.0369457
-0.0221041
-0.00276019
0.0107014
0.0348869
0.0517194
0.0661538
0.0865611
0.102195
0.117873
0.128575
0.144118
0.149593
0.159887
0.165
0.16991
0.179661
0.179299
0.183756
0.183122
0.192443
0.186765
0.191176
0.195747
0.205633
0.200837
0.196357
0.196946
0.202376
0.207421
0.201833
0.200633
0.208982
0.217081
0.224977
0.222624
0.230068
0.22233
0.224434
0.211606
0.214615
0.22776
0.233552
0.241244
0.24224
0.247715
0.248145
0.248439
0.253824
0.259208
0.269683
0.260204
0.26586
0.276742
0.282738
0.288959
0.290317
0.301946
0.303733
0.315701
0.322828
0.345136
0.35267
0.355339
0.35819
0.366154
0.369276
0.357489
0.355815
0.354299
0.362873
0.351493
0.335113
0.318778
0.292466
0.266199
0.239932
0.22371
0.212511
0.216312
0.21009
0.203824
0.207579
0.20129
0.200023
0.193733
0.202466
0.196199
0.194932
0.188665
0.197376
0.201131
0.204842
0.223552
0.242285
0.286063
0.329842
0.393575
0.477353
0.581154
0.664955
0.698778
0.692692
0.606652
0.505656
0.399706
0.348824
0.323032
0.292285
0.266584
0.240905
0.245385
0.329955
0.509593
0.339276
-0.255973
-0.836177
-1.05638
-1.09656
-1.09676
-1.10197
-1.07219
-1.0574
-1.01762
-0.982873
-0.938145
-0.898462
-0.868756
-0.824095
-0.789457
-0.749864
-0.720294
-0.680792
-0.656357
-0.631923
-0.597534
-0.57319
-0.533914
-0.509683
-0.48052
-0.456425
-0.432398
-0.413484
-0.38957
-0.365656
-0.341674
-0.322692
-0.308688
-0.289728
-0.280747
-0.266742
-0.257692
-0.233484
-0.214163
-0.199683
-0.185113
-0.175475
-0.165769
-0.161041
-0.156267
-0.146448
-0.131538
-0.131652
-0.131697
-0.126674
-0.121629
-0.121516
-0.126403
-0.126222
-0.121041
-0.120792
-0.120566
-0.125362
-0.130204
-0.130226
-0.130452
-0.126041
-0.122014
-0.118416
-0.120068
-0.116765
-0.103258
-0.0893213
-0.0749774
-0.0653167
-0.0556109
-0.040905
-0.0312217
-0.0165837
-0.00237557
0.0161765
0.0358597
0.0483937
0.06819
0.0787557
0.0993892
0.110023
0.120656
0.131154
0.136584
0.151787
0.146946
0.156946
0.156923
0.161833
0.166606
0.171358
0.181109
0.176018
0.181086
0.181493
0.182127
0.177828
0.178394
0.178462
0.183009
0.186991
0.185679
0.189118
0.197353
0.205362
0.198167
0.195882
0.203869
0.212579
0.225452
0.230566
0.237941
0.244231
0.255249
0.261176
0.267014
0.267919
0.268869
0.274932
0.276131
0.282489
0.279005
0.280611
0.282376
0.284276
0.291357
0.293529
0.30586
0.303281
0.315837
0.313529
0.316312
0.319299
0.332421
0.345701
0.349072
0.367579
0.371199
0.374909
0.363733
0.357624
0.356606
0.355633
0.349683
0.328733
0.317805
0.291855
0.270928
0.245023
0.22914
0.223281
0.212398
0.211516
0.210611
0.209706
0.203824
0.202964
0.197104
0.196222
0.200362
0.194502
0.19862
0.197738
0.201855
0.200973
0.21509
0.244231
0.263371
0.307511
0.356629
0.445747
0.534909
0.619118
0.673371
0.682624
0.646923
0.541267
0.435679
0.350181
0.314751
0.289366
0.269027
0.263733
0.348484
0.49828
0.243122
-0.391968
-0.887036
-1.06208
-1.07715
-1.08222
-1.07226
-1.04733
-1.03238
-0.987466
-0.967534
-0.927647
-0.91776
-0.882919
-0.833077
-0.783213
-0.738371
-0.708529
-0.658778
-0.62905
-0.594389
-0.574819
-0.550294
-0.525815
-0.511358
-0.491968
-0.477602
-0.448303
-0.43405
-0.409796
-0.390566
-0.366358
-0.342149
-0.322896
-0.308665
-0.294367
-0.270045
-0.250634
-0.231063
-0.211312
-0.196403
-0.181358
-0.176222
-0.161041
-0.155792
-0.14552
-0.140204
-0.129887
-0.119548
-0.114163
-0.113801
-0.103394
-0.0979864
-0.0924887
-0.0970136
-0.0914479
-0.0858597
-0.0902941
-0.0947737
-0.0993213
-0.0939366
-0.0987783
-0.103869
-0.0993665
-0.100271
-0.0915611
-0.0930769
-0.089457
-0.075543
-0.0661312
-0.0563801
-0.0413801
-0.0213575
-0.00649322
0.00285067
0.0112217
0.025181
0.0369231
0.0515384
0.0621719
0.073009
0.0888461
0.0947059
0.105407
0.111041
0.121538
0.1319
0.132081
0.137127
0.147059
0.15181
0.151471
0.151063
0.150611
0.160204
0.164864
0.164796
0.165
0.165475
0.170995
0.171448
0.181584
0.186131
0.18509
0.183552
0.186787
0.194819
0.197692
0.205453
0.213529
0.227172
0.234548
0.238959
0.246063
0.252308
0.263394
0.259412
0.265407
0.261448
0.267489
0.26871
0.264977
0.266425
0.267896
0.26448
0.256244
0.258213
0.260385
0.267647
0.270136
0.27776
0.290543
0.288394
0.291357
0.289457
0.302647
0.305928
0.314299
0.322805
0.32638
0.335091
0.328869
0.32276
0.31672
0.325701
0.319706
0.318756
0.307896
0.282059
0.256244
0.23043
0.209638
0.193846
0.187986
0.182127
0.181244
0.18043
0.17957
0.178756
0.172964
0.182172
0.181357
0.185566
0.179819
0.18405
0.178258
0.172489
0.181787
0.196041
0.225272
0.254502
0.308778
0.383054
0.477285
0.571561
0.64586
0.690204
0.659525
0.593869
0.478303
0.382783
0.317308
0.286878
0.301538
0.391267
0.591018
0.455815
-0.169344
-0.80448
-1.02964
-1.07482
-1.08005
-1.08523
-1.05548
-1.04072
-1.00602
-0.98129
-0.936561
-0.906878
-0.877172
-0.837466
-0.802783
-0.758145
-0.728529
-0.693959
-0.659434
-0.629955
-0.60052
-0.576086
-0.531719
-0.507421
-0.473167
-0.448937
-0.424751
-0.400656
-0.386561
-0.367489
-0.353348
-0.334208
-0.320023
-0.295814
-0.271538
-0.252195
-0.237738
-0.2231
-0.203326
-0.193416
-0.178439
-0.163348
-0.148235
-0.143122
-0.132986
-0.132851
-0.12767
-0.117489
-0.107308
-0.102149
-0.101991
-0.09181
-0.091629
-0.0914027
-0.0911539
-0.0858597
-0.0856787
-0.0905882
-0.095724
-0.0961538
-0.101923
-0.1031
-0.104638
-0.111606
-0.108597
-0.110475
-0.101946
-0.0878959
-0.078371
-0.0736878
-0.0694344
-0.0558145
-0.0411765
-0.0186425
-0.00359728
0.0171041
0.0428507
0.0636652
0.0793665
0.0800226
0.100475
0.10586
0.116086
0.126131
0.136063
0.145814
0.145475
0.15991
0.164276
0.168462
0.162534
0.171471
0.175317
0.174186
0.173077
0.172127
0.181357
0.180882
0.180679
0.185679
0.195769
0.200588
0.200023
0.203846
0.207149
0.215023
0.217692
0.220362
0.228348
0.232149
0.240272
0.24552
0.257828
0.264072
0.275068
0.270995
0.281855
0.282783
0.288733
0.284819
0.285973
0.287285
0.278688
0.280226
0.281946
0.283778
0.280814
0.282986
0.295317
0.302783
0.305362
0.2981
0.305973
0.319095
0.322308
0.330679
0.339208
0.352851
0.346584
0.350385
0.339276
0.33819
0.332149
0.331131
0.325181
0.314276
0.293394
0.262489
0.241584
0.225724
0.209864
0.19405
0.188303
0.197602
0.196855
0.196109
0.190339
0.19457
0.193801
0.193054
0.197353
0.196652
0.205995
0.200339
0.204728
0.209118
0.233507
0.257896
0.307285
0.386674
0.466041
0.565407
0.654796
0.754208
0.768597
0.738009
0.642421
0.521878
0.426448
0.386041
0.480656
0.610294
0.36
-0.305226
-0.885407
-1.05052
-1.07561
-1.09566
-1.0757
-1.06575
-1.02086
-1.00595
-0.971063
-0.936199
-0.90129
-0.861403
-0.836516
-0.791652
-0.771742
-0.736878
-0.717036
-0.677217
-0.642443
-0.617715
-0.593077
-0.573462
-0.538891
-0.509344
-0.474819
-0.445339
-0.420882
-0.391471
-0.372104
-0.352828
-0.333552
-0.304276
-0.289977
-0.275634
-0.256267
-0.236855
-0.222443
-0.212941
-0.198394
-0.18871
-0.178914
-0.168959
-0.158914
-0.143733
-0.133507
-0.128281
-0.118032
-0.107738
-0.0974208
-0.0971493
-0.0968552
-0.0864932
-0.0861312
-0.0857919
-0.0854525
-0.0800453
-0.0746154
-0.0792082
-0.0838914
-0.0936878
-0.0886425
-0.0888914
-0.0993891
-0.100271
-0.0965385
-0.0981901
-0.0999774
-0.0916969
-0.0830769
-0.0739367
-0.0645023
-0.0504299
-0.036448
-0.0155204
0.0032579
0.018733
0.0345475
0.0454072
0.0511538
0.0618552
0.0824434
0.0979186
0.108213
0.118326
0.133326
0.143122
0.142783
0.147285
0.151652
0.155882
0.149955
0.153914
0.162783
0.166652
0.165498
0.164502
0.173756
0.173258
0.173032
0.173077
0.178484
0.183824
0.188937
0.193484
0.187421
0.195814
0.198937
0.202376
0.206312
0.209027
0.21862
0.210498
0.216584
0.222511
0.233281
0.239072
0.244864
0.250814
0.251787
0.257851
0.24905
0.255385
0.256878
0.253439
0.250181
0.256991
0.258914
0.250905
0.263077
0.270452
0.282964
0.280588
0.283303
0.291222
0.289276
0.292511
0.295882
0.309389
0.318032
0.331765
0.330588
0.329525
0.328597
0.317692
0.31181
0.305973
0.305181
0.289367
0.283529
0.267738
0.251946
0.231176
0.210339
0.194502
0.188688
0.197919
0.192149
0.18638
0.185679
0.189977
0.189276
0.178552
0.182896
0.18724
0.191561
0.19086
0.195136
0.204434
0.218665
0.252919
0.302172
0.371471
0.435747
0.529977
0.629231
0.708507
0.742783
0.717082
0.641448
0.52086
0.455317
0.529796
0.539321
0.0888914
-0.571516
-0.966878
-1.05724
-1.08258
-1.07294
-1.06837
-1.0338
-1.00916
-0.969457
-0.934774
-0.905113
-0.860453
-0.830769
-0.791131
-0.761516
-0.721923
-0.69233
-0.662783
-0.638281
-0.613756
-0.584231
-0.569751
-0.545339
-0.52095
-0.481629
-0.452376
-0.433145
-0.403937
-0.384751
-0.355633
-0.341561
-0.317602
-0.29862
-0.274661
-0.255701
-0.236674
-0.212647
-0.193529
-0.184457
-0.175294
-0.161018
-0.146584
-0.137014
-0.127353
-0.117534
-0.102647
-0.0976697
-0.0927149
-0.0877376
-0.0776923
-0.0726471
-0.0675792
-0.0574661
-0.0523303
-0.0522624
-0.0621267
-0.0669457
-0.0666742
-0.0663801
-0.0761086
-0.0758371
-0.0806561
-0.0805882
-0.0857466
-0.086086
-0.0867421
-0.0877376
-0.0941403
-0.0958371
-0.0875113
-0.0790724
-0.0702715
-0.0614253
-0.0430317
-0.0288009
-0.0217873
-0.00717196
0.00332578
0.0338462
0.0493891
0.0647964
0.070181
0.0804751
0.0955882
0.095543
0.110317
0.115
0.12448
0.123801
0.127919
0.136878
0.145724
0.159412
0.163009
0.176493
0.169932
0.163326
0.161833
0.170543
0.174434
0.173643
0.17819
0.183009
0.182851
0.182466
0.186652
0.190204
0.198348
0.206742
0.215113
0.23138
0.23457
0.240882
0.241697
0.24733
0.257941
0.258507
0.254208
0.244977
0.250882
0.256878
0.262964
0.259231
0.260611
0.262149
0.263801
0.260611
0.257534
0.26457
0.261697
0.258937
0.261335
0.268801
0.276403
0.28414
0.292081
0.290113
0.293235
0.296516
0.309932
0.318507
0.332127
0.33086
0.334706
0.333665
0.31767
0.316742
0.305928
0.310158
0.299389
0.28362
0.262919
0.24224
0.231538
0.205837
0.195181
0.18457
0.183959
0.188348
0.177738
0.177172
0.171606
0.171041
0.17052
0.180045
0.17957
0.17905
0.173507
0.167964
0.177443
0.186878
0.20629
0.235679
0.290045
0.344367
0.423665
0.513009
0.602353
0.666674
0.660996
0.625385
0.539819
0.524253
0.623733
0.423258
-0.197217
-0.787738
-0.998281
-1.02382
-1.04928
-1.03473
-1.0352
-1.0057
-0.971222
-0.941719
-0.902262
-0.87776
-0.833281
-0.808824
-0.759389
-0.719955
-0.690498
-0.656041
-0.631561
-0.597104
-0.572602
-0.528145
-0.503778
-0.479434
-0.45509
-0.430747
-0.406471
-0.387217
-0.358009
-0.333869
-0.314796
-0.295769
-0.271742
-0.252715
-0.238643
-0.224548
-0.205339
-0.186086
-0.166787
-0.152443
-0.137986
-0.123326
-0.118575
-0.108733
-0.0988461
-0.0838461
-0.0737556
-0.0685973
-0.0634389
-0.0582353
-0.0529864
-0.0477375
-0.0424887
-0.0372398
-0.0319457
-0.0316742
-0.0363575
-0.0359729
-0.0405656
-0.0451358
-0.0497285
-0.0393213
-0.0390498
-0.0439367
-0.0540498
-0.0594344
-0.0551131
-0.0561991
-0.0625566
-0.0640272
-0.055362
-0.0515611
-0.0529638
-0.0442534
-0.033371
-0.0195928
-0.0141855
0.00142534
0.0220136
0.0375339
0.0428959
0.0531674
0.0632579
0.0732579
0.0830317
0.0876245
0.0970136
0.106222
0.110249
0.109118
0.112919
0.116539
0.120045
0.123348
0.121516
0.12457
0.132557
0.13552
0.143484
0.151629
0.159887
0.153439
0.157285
0.161471
0.165837
0.165113
0.169186
0.182805
0.18629
0.200136
0.218009
0.233009
0.245272
0.246516
0.247602
0.253529
0.264457
0.265317
0.271244
0.272308
0.273439
0.269706
0.271041
0.277557
0.274163
0.270973
0.267941
0.270023
0.272262
0.274615
0.272104
0.269706
0.277511
0.27543
0.278462
0.276629
0.284955
0.288394
0.2969
0.305566
0.314344
0.323213
0.322127
0.326154
0.320294
0.31948
0.30871
0.302986
0.302353
0.296742
0.281154
0.250611
0.235091
0.214548
0.198982
0.183462
0.172986
0.167534
0.167059
0.161584
0.156131
0.160679
0.160226
0.159774
0.159344
0.163937
0.153529
0.1431
0.14767
0.152217
0.166719
0.176222
0.205792
0.245385
0.299977
0.374525
0.449027
0.553552
0.613077
0.642557
0.612036
0.566561
0.611109
0.575634
0.100181
-0.550249
-0.925656
-0.991086
-1.00652
-1.0019
-0.992262
-0.982647
-0.953009
-0.933348
-0.87871
-0.849072
-0.804434
-0.769774
-0.73009
-0.695453
-0.670837
-0.631222
-0.606606
-0.567036
-0.542466
-0.507919
-0.483416
-0.458891
-0.429412
-0.414932
-0.38543
-0.370928
-0.346493
-0.332081
-0.307692
-0.293371
-0.284095
-0.269864
-0.255566
-0.23629
-0.221946
-0.207511
-0.193032
-0.178462
-0.168869
-0.159186
-0.144412
-0.129502
-0.114502
-0.109389
-0.0941403
-0.0838009
-0.0734389
-0.0680543
-0.0626244
-0.0571946
-0.0517421
-0.0463122
-0.0458371
-0.045362
-0.0398869
-0.0393891
-0.0388914
-0.0383258
-0.0378054
-0.0422851
-0.0517873
-0.0513348
-0.0459955
-0.0508145
-0.0508145
-0.051086
-0.0417194
-0.0427375
-0.0489593
-0.0453846
-0.0422172
-0.0338235
-0.0331448
-0.0143439
0.000882377
0.011267
0.0265837
0.0417873
0.06181
0.0666969
0.0764027
0.0860181
0.100475
0.109842
0.113982
0.122941
0.131787
0.140498
0.144072
0.147489
0.150837
0.153982
0.156946
0.159796
0.167557
0.165249
0.162873
0.16052
0.158235
0.161109
0.169186
0.172489
0.176154
0.185023
0.188959
0.192692
0.196154
0.204751
0.213077
0.219186
0.222308
0.223688
0.229706
0.230611
0.231493
0.232376
0.228258
0.224208
0.230204
0.231425
0.227738
0.224208
0.220792
0.227534
0.224389
0.221335
0.218462
0.225701
0.2231
0.220611
0.228281
0.226063
0.233959
0.236991
0.235091
0.238348
0.241697
0.245158
0.24871
0.262398
0.266154
0.274955
0.268846
0.272828
0.2669
0.260996
0.265091
0.259231
0.258439
0.242624
0.23181
0.216041
0.200317
0.184615
0.158891
0.143213
0.137557
0.136923
0.136267
0.135611
0.129977
0.134321
0.128665
0.132986
0.13733
0.131652
0.130973
0.125272
0.13457
0.138846
0.143077
0.162308
0.191561
0.235837
0.285068
0.354321
0.443597
0.527919
0.57724
0.616516
0.705837
0.645204
0.134615
-0.556018
-0.876584
-0.927149
-0.94276
-0.933371
-0.913982
-0.899525
-0.875113
-0.865701
-0.836312
-0.8169
-0.772466
-0.738077
-0.708643
-0.679208
-0.649729
-0.615294
-0.595882
-0.561471
-0.532059
-0.50267
-0.478303
-0.448891
-0.424525
-0.400204
-0.37595
-0.356742
-0.327557
-0.303371
-0.279208
-0.265068
-0.25095
-0.2369
-0.222873
-0.208891
-0.18491
-0.170905
-0.161855
-0.152738
-0.138597
-0.129434
-0.120271
-0.111018
-0.101674
-0.0872398
-0.0777149
-0.0730769
-0.0633032
-0.0534842
-0.0436199
-0.0387556
-0.0288235
-0.0238914
-0.0239819
-0.0240724
-0.0191403
-0.0192081
-0.0193212
-0.0193665
-0.0194117
-0.0194117
-0.0194344
-0.0245022
-0.0295701
-0.0297737
-0.0351131
-0.0406787
-0.0414479
-0.0426244
-0.0492081
-0.0561764
-0.0585746
-0.0516289
-0.0393439
-0.0342986
-0.0307918
-0.0107013
0.0047059
0.0151131
0.0254299
0.0407014
0.0557693
0.0656788
0.0753394
0.0849322
0.0993892
0.108688
0.112828
0.126719
0.135498
0.144027
0.142466
0.155769
0.158937
0.166946
0.169774
0.177557
0.185226
0.177805
0.175317
0.177919
0.185611
0.183439
0.181448
0.184751
0.188371
0.197081
0.195905
0.195045
0.198869
0.210317
0.208552
0.215249
0.226674
0.232986
0.239276
0.235611
0.241946
0.243348
0.249729
0.251177
0.24767
0.254367
0.246154
0.248032
0.240023
0.247104
0.249299
0.246584
0.24405
0.246629
0.249321
0.242104
0.245023
0.248054
0.256222
0.259502
0.262896
0.266425
0.270068
0.273801
0.282624
0.296516
0.300453
0.309412
0.313462
0.312624
0.306855
0.296086
0.295339
0.299661
0.303982
0.288303
0.272602
0.2519
0.231222
0.215543
0.189864
0.179231
0.168575
0.167919
0.162262
0.161606
0.16595
0.165249
0.169548
0.168846
0.178122
0.172353
0.171561
0.170769
0.18
0.189253
0.193462
0.22767
0.261878
0.316041
0.375204
0.469389
0.568575
0.647738
0.746878
0.886041
0.805249
0.19948
-0.57129
-0.922081
-1.00781
-1.01853
-1.01428
-1.02
-0.990679
-0.981358
-0.942059
-0.93276
-0.903439
-0.869095
-0.834729
-0.785362
-0.755928
-0.706471
-0.681991
-0.647557
-0.6231
-0.58862
-0.554163
-0.534706
-0.505226
-0.480724
-0.446335
-0.436991
-0.412647
-0.393326
-0.364027
-0.339796
-0.325543
-0.296357
-0.282217
-0.263213
-0.254253
-0.240271
-0.221267
-0.20224
-0.193167
-0.183982
-0.169774
-0.16052
-0.146199
-0.136765
-0.122195
-0.107489
-0.0976245
-0.0976923
-0.0826471
-0.0726245
-0.0675566
-0.0574887
-0.047353
-0.0472172
-0.0520815
-0.0469231
-0.0417647
-0.0366063
-0.0364932
-0.0363349
-0.0411086
-0.0408371
-0.0455656
-0.0452941
-0.0450226
-0.0398869
-0.0449095
-0.0451131
-0.0405204
-0.0312896
-0.0375339
-0.0394344
-0.0418552
-0.0328733
-0.0257014
-0.0207466
-0.00486425
0.0111991
0.0321719
0.0480769
0.0637783
0.0793213
0.089638
0.0947511
0.114729
0.129525
0.139186
0.153688
0.163054
0.177262
0.181335
0.190249
0.19905
0.212738
0.22129
0.224729
0.223032
0.221267
0.229389
0.227376
0.230362
0.238394
0.236561
0.234864
0.238529
0.242557
0.246855
0.246493
0.251652
0.266358
0.273235
0.276538
0.273167
0.279344
0.285407
0.281425
0.27733
0.283326
0.289299
0.290385
0.286448
0.287624
0.283914
0.280362
0.272036
0.268801
0.265724
0.267715
0.269819
0.262014
0.269367
0.266855
0.264412
0.262127
0.274955
0.277941
0.275973
0.28414
0.282398
0.290792
0.284299
0.297896
0.311652
0.335475
0.339389
0.333348
0.337421
0.331584
0.330815
0.320068
0.324367
0.32371
0.308077
0.292489
0.266923
0.24638
0.21586
0.200362
0.184864
0.184412
0.178959
0.173484
0.168077
0.172738
0.172376
0.166968
0.171561
0.176177
0.180792
0.175385
0.164955
0.164525
0.169095
0.173665
0.178258
0.212873
0.252534
0.302172
0.361833
0.446561
0.561358
0.711131
0.825928
0.510724
-0.20448
-0.819706
-1.01998
-1.05523
-1.05048
-1.05068
-1.02588
-1.01106
-0.976199
-0.956357
-0.936538
-0.906652
-0.876697
-0.846742
-0.816742
-0.776742
-0.746697
-0.706697
-0.681719
-0.646765
-0.621787
-0.596787
-0.566833
-0.5419
-0.507014
-0.472127
-0.437308
-0.412557
-0.387783
-0.3581
-0.343462
-0.323869
-0.304299
-0.279819
-0.25543
-0.236109
-0.216787
-0.197421
-0.178077
-0.16371
-0.149299
-0.134842
-0.115407
-0.105995
-0.0914706
-0.07681
-0.0620136
-0.0571267
-0.0471267
-0.0470589
-0.0469457
-0.0368552
-0.0217873
-0.0116969
-0.00158372
0.00357465
0.00368777
0.00886877
0.0140498
0.00920813
0.00938913
0.00966061
0.00995473
0.00522622
0.00552035
0.00576922
0.00595021
0.000927592
-0.00423078
-0.00457015
-0.00515838
-0.00619911
-0.0181222
-0.0207919
-0.0175566
-0.0111312
-0.00660635
0.00411763
0.0151131
0.0261764
0.0370814
0.0528507
0.0683937
0.0787556
0.0838914
0.0938009
0.10862
0.123303
0.122896
0.122262
0.131493
0.140498
0.149321
0.152986
0.161493
0.169887
0.178077
0.176086
0.178937
0.176719
0.174367
0.171923
0.169525
0.172217
0.170045
0.163009
0.161267
0.164955
0.164231
0.168914
0.182104
0.192014
0.199072
0.200136
0.20595
0.206742
0.212466
0.213235
0.208982
0.214887
0.215837
0.211833
0.202919
0.204095
0.200339
0.201674
0.198145
0.204751
0.211538
0.218439
0.220453
0.217557
0.224774
0.222104
0.224525
0.227127
0.23491
0.247873
0.24595
0.259163
0.262557
0.271018
0.274593
0.293281
0.307104
0.321041
0.330091
0.324253
0.333529
0.327919
0.327376
0.326923
0.331561
0.33629
0.321041
0.300837
0.275679
0.255543
0.235385
0.220272
0.210136
0.21
0.214864
0.209729
0.209638
0.20457
0.209502
0.204412
0.204344
0.209276
0.20414
0.199005
0.198846
0.203688
0.208484
0.218258
0.243032
0.282805
0.327557
0.382262
0.461968
0.566652
0.756358
0.925973
0.720566
0.0151358
-0.680339
-0.940882
-1.00145
-1.03201
-1.01262
-1.0083
-0.979005
-0.969683
-0.935339
-0.901063
-0.881787
-0.857489
-0.843145
-0.798869
-0.764638
-0.715385
-0.681131
-0.641855
-0.602602
-0.573303
-0.534027
-0.504728
-0.470475
-0.451267
-0.417104
-0.393009
-0.368959
-0.349977
-0.330996
-0.302081
-0.283213
-0.264389
-0.245588
-0.221878
-0.208213
-0.199502
-0.185792
-0.167059
-0.148348
-0.139547
-0.125701
-0.11181
-0.0928733
-0.093914
-0.0847964
-0.0755882
-0.0662669
-0.0569004
-0.0423982
-0.0328054
-0.0231448
-0.0234615
-0.0237104
-0.0238688
-0.0140045
-0.00911762
-0.00920812
-0.00423075
0.000769261
-0.00420812
-0.00911762
-0.0140045
-0.0138461
-0.0187104
-0.0285294
-0.0284163
-0.0334389
-0.0385973
-0.0439593
-0.0447059
-0.0514706
-0.0587104
-0.0639366
-0.0657692
-0.0607466
-0.0600905
-0.0592534
-0.0532127
-0.0422172
-0.0313574
-0.0207466
-0.00536198
0.00981901
0.0147285
0.024457
0.0290045
0.0434842
0.0627828
0.0669231
0.0758598
0.084638
0.0933032
0.0967647
0.105113
0.118326
0.121403
0.129321
0.132149
0.139887
0.147534
0.150113
0.15267
0.155362
0.163145
0.166086
0.174276
0.172873
0.18724
0.19724
0.211244
0.226991
0.239525
0.245769
0.246652
0.257376
0.273145
0.283869
0.284661
0.28043
0.29129
0.292262
0.293281
0.289412
0.295543
0.296855
0.293303
0.294955
0.291719
0.293665
0.285792
0.293077
0.29052
0.2931
0.300837
0.303665
0.311697
0.314842
0.323122
0.321516
0.330023
0.328688
0.332443
0.336335
0.350317
0.359434
0.35862
0.367896
0.372262
0.381719
0.371267
0.365837
0.365475
0.360158
0.35491
0.329638
0.314412
0.28914
0.273846
0.248552
0.228281
0.218009
0.212738
0.207466
0.197149
0.201765
0.201425
0.196086
0.190747
0.185385
0.185023
0.174638
0.179231
0.183756
0.188281
0.192805
0.212285
0.251742
0.286177
0.350611
0.450023
0.689434
0.803846
0.353235
-0.387421
-0.803145
-0.943914
-0.984774
-1.02568
-1.01163
-0.997602
-0.963575
-0.939525
-0.915453
-0.87638
-0.852308
-0.823213
-0.80914
-0.765068
-0.735928
-0.691787
-0.662692
-0.633597
-0.594502
-0.570362
-0.536244
-0.512081
-0.482919
-0.46371
-0.439525
-0.415362
-0.391176
-0.361991
-0.352805
-0.328688
-0.309548
-0.285452
-0.271425
-0.252466
-0.223529
-0.209548
-0.195588
-0.181561
-0.157466
-0.138281
-0.134027
-0.124729
-0.110317
-0.0957918
-0.0811086
-0.0663575
-0.0564027
-0.0463122
-0.0461312
-0.0308824
-0.0255656
-0.020181
-0.0147738
-0.00434388
-0.00393664
-0.00352939
-0.00812216
-0.00264705
-0.00217193
-0.00165156
-0.00104071
-0.0104072
-0.00972848
-0.0140271
-0.0183031
-0.0226244
-0.0269909
-0.0265611
-0.0365611
-0.0375791
-0.0436878
-0.0422398
-0.047828
-0.0471719
-0.041267
-0.0351131
-0.0238461
-0.0175113
-0.00633483
0.00472852
0.0155883
0.0212444
0.0466969
0.0669005
0.0819684
0.0968326
0.111538
0.126018
0.130362
0.144547
0.163552
0.167421
0.176176
0.179796
0.193235
0.201538
0.204661
0.207624
0.220498
0.223258
0.220928
0.223507
0.231086
0.233733
0.231448
0.234389
0.237715
0.237036
0.24181
0.24948
0.258733
0.266018
0.277602
0.278959
0.285045
0.291131
0.29224
0.288462
0.289729
0.296063
0.292534
0.289095
0.290747
0.297398
0.294231
0.291154
0.303281
0.305498
0.307828
0.295317
0.302896
0.300634
0.298462
0.291425
0.294502
0.302715
0.301041
0.299525
0.29819
0.3119
0.310724
0.319661
0.33871
0.347851
0.362081
0.356471
0.370928
0.370453
0.370045
0.359751
0.349548
0.354367
0.349186
0.33905
0.308959
0.293914
0.263891
0.238869
0.223869
0.208869
0.203891
0.193869
0.188824
0.188778
0.193756
0.198688
0.193552
0.188416
0.188258
0.1831
0.172919
0.17276
0.172557
0.17233
0.177081
0.18681
0.206516
0.251177
0.350837
0.580498
0.615158
0.0597738
-0.595656
-0.861109
-0.911629
-0.957195
-0.992828
-1.01344
-0.979072
-0.959751
-0.920453
-0.901154
-0.871855
-0.842489
-0.828077
-0.808643
-0.79414
-0.754615
-0.73009
-0.700588
-0.671041
-0.636403
-0.611787
-0.587149
-0.552511
-0.527828
-0.488145
-0.463462
-0.438778
-0.409072
-0.384366
-0.359751
-0.340136
-0.31552
-0.295928
-0.28138
-0.266833
-0.247308
-0.232896
-0.218529
-0.204186
-0.184819
-0.17043
-0.160995
-0.141493
-0.126923
-0.117285
-0.107647
-0.0929864
-0.0832579
-0.0733936
-0.0684615
-0.0584163
-0.0432353
-0.0379412
-0.0275792
-0.0271946
-0.0166968
-0.0111538
-0.00556559
-2.26032e-05
0.000543001
0.00613124
0.00671947
0.00228508
-0.00210406
-0.00140272
-0.0107014
-0.0200226
-0.0193439
-0.0186199
-0.0229638
-0.0224435
-0.0272625
-0.0282127
-0.034344
-0.0331222
-0.028801
-0.0231675
-0.0173304
-0.0115611
-0.00565616
0.0103393
0.0214253
0.0323755
0.043009
0.0584389
0.0735746
0.0835294
0.0882126
0.10276
0.122172
0.136493
0.145679
0.154728
0.168665
0.187421
0.186041
0.199457
0.202805
0.210995
0.20905
0.211991
0.219819
0.222557
0.225181
0.22776
0.235339
0.238054
0.231109
0.235136
0.244276
0.255837
0.249366
0.256606
0.263575
0.275294
0.27181
0.27319
0.284661
0.291154
0.29276
0.289389
0.291063
0.292851
0.294683
0.286561
0.288462
0.295498
0.297647
0.29491
0.287285
0.289796
0.287421
0.285158
0.283032
0.285996
0.284186
0.282466
0.28586
0.284389
0.298077
0.296878
0.300769
0.304864
0.309095
0.308416
0.312828
0.332398
0.342081
0.351833
0.356629
0.361538
0.366538
0.356606
0.351742
0.346946
0.352195
0.347489
0.337805
0.318122
0.303439
0.278733
0.254027
0.239299
0.22457
0.219842
0.210068
0.205271
0.200407
0.20052
0.205611
0.200633
0.200656
0.200679
0.195633
0.185543
0.18543
0.190294
0.190091
0.194864
0.209593
0.249276
0.343914
0.603507
0.658054
0.132557
-0.537964
-0.828552
-0.874208
-0.869887
-0.910588
-0.926335
-0.952082
-0.932828
-0.893597
-0.864367
-0.830136
-0.815882
-0.771629
-0.757376
-0.733122
-0.723824
-0.69948
-0.670136
-0.640792
-0.596403
-0.571946
-0.532489
-0.518009
-0.488552
-0.469118
-0.444706
-0.420294
-0.400837
-0.371403
-0.351946
-0.332511
-0.318122
-0.293756
-0.279457
-0.270158
-0.255905
-0.241606
-0.222353
-0.213054
-0.203778
-0.194502
-0.185272
-0.171063
-0.15681
-0.142534
-0.128167
-0.108778
-0.104367
-0.0999095
-0.0903846
-0.0807919
-0.0711086
-0.0712444
-0.066267
-0.0612217
-0.0561539
-0.0560181
-0.0558371
-0.0506561
-0.0454751
-0.0552941
-0.0501131
-0.0499321
-0.0497285
-0.0595249
-0.0592308
-0.0588914
-0.0785521
-0.0881901
-0.0928507
-0.0975566
-0.112376
-0.122285
-0.122421
-0.118145
-0.124955
-0.131606
-0.135747
-0.127149
-0.122353
-0.117308
-0.112036
-0.0966063
-0.0811312
-0.0657919
-0.0505882
-0.0356335
-0.0108824
-0.00138011
0.0129185
0.0270362
0.0459955
0.0698416
0.0834615
0.0969457
0.115249
0.123371
0.126335
0.139186
0.1469
0.154457
0.1519
0.159231
0.166493
0.178688
0.18586
0.198145
0.205814
0.219593
0.228507
0.234955
0.248258
0.260204
0.261855
0.263484
0.269864
0.276131
0.277217
0.283348
0.284615
0.290995
0.292489
0.294005
0.290656
0.297353
0.299118
0.29586
0.297692
0.299638
0.296697
0.293914
0.286222
0.288733
0.291335
0.29905
0.296855
0.294774
0.287828
0.290996
0.284276
0.28767
0.301176
0.304774
0.308507
0.30733
0.321267
0.320317
0.324434
0.323688
0.338009
0.352398
0.361833
0.371312
0.375882
0.380475
0.365136
0.359864
0.359683
0.354457
0.344253
0.324072
0.308914
0.278733
0.258484
0.24319
0.232873
0.222534
0.212149
0.211719
0.21129
0.21586
0.215339
0.214796
0.214231
0.213643
0.207986
0.197285
0.201584
0.200792
0.209955
0.21905
0.2481
0.287059
0.345928
0.484751
0.728575
0.697376
0.146109
-0.470249
-0.741606
-0.802986
-0.849389
-0.890837
-0.912262
-0.903665
-0.890023
-0.86138
-0.842715
-0.803982
-0.775272
-0.741538
-0.717783
-0.698937
-0.655023
-0.626086
-0.582127
-0.548077
-0.514005
-0.489955
-0.46586
-0.441765
-0.417624
-0.388529
-0.374457
-0.355385
-0.336222
-0.322036
-0.312851
-0.29862
-0.274367
-0.255113
-0.230882
-0.221584
-0.202262
-0.192986
-0.178756
-0.169502
-0.155226
-0.145973
-0.136629
-0.132217
-0.122692
-0.113145
-0.0986199
-0.0940498
-0.0843665
-0.0695701
-0.0646832
-0.0596832
-0.0545701
-0.0444344
-0.0392986
-0.0441855
-0.0490271
-0.0438688
-0.0436651
-0.0434615
-0.0482353
-0.0529864
-0.0477376
-0.0524661
-0.057172
-0.0618326
-0.0665158
-0.0712217
-0.0860181
-0.0958597
-0.0958824
-0.106086
-0.111561
-0.11733
-0.118348
-0.119615
-0.125882
-0.116991
-0.117715
-0.118077
-0.118122
-0.102986
-0.102851
-0.0976923
-0.0925113
-0.0772851
-0.0621267
-0.046991
-0.03681
-0.0265837
-0.0163348
-0.00608597
-0.000814476
0.00447964
0.014819
0.0251584
0.0304751
0.0358371
0.0411991
0.0515611
0.0518778
0.0522172
0.0525566
0.0629186
0.0683258
0.0738462
0.0845701
0.095543
0.102149
0.104864
0.117466
0.132557
0.134864
0.135973
0.13681
0.142421
0.142851
0.14319
0.138575
0.144027
0.144593
0.145226
0.151063
0.152036
0.153145
0.144367
0.145701
0.14724
0.148869
0.140747
0.137805
0.140045
0.137376
0.139819
0.132398
0.135091
0.142964
0.145905
0.133982
0.132195
0.14052
0.133914
0.137421
0.141109
0.149887
0.148823
0.157828
0.171968
0.186176
0.190452
0.194796
0.204231
0.19371
0.183235
0.167783
0.167376
0.176991
0.166629
0.151267
0.130928
0.110633
0.0903167
0.0700226
0.0647059
0.0643439
0.0639593
0.0585068
0.063009
0.0624887
0.0619231
0.0563348
0.0457013
0.0500226
0.0393212
0.0385973
0.042828
0.0520135
0.0611764
0.0802941
0.104366
0.143371
0.187398
0.246357
0.325271
0.394118
0.457896
0.466629
0.435271
0.353959
0.257602
0.181199
0.139751
0.133371
0.116946
0.0904977
0.0640498
0.0476244
0.0313122
0.00504522
-0.0161765
-0.0323756
-0.0435521
-0.0497512
-0.0559729
-0.0621493
-0.0632806
-0.0593665
-0.0704525
-0.0714706
-0.0774887
-0.0784842
-0.0794796
-0.0804525
-0.076448
-0.0774435
-0.0734163
-0.0793892
-0.0753394
-0.0762896
-0.0772172
-0.0831222
-0.0790272
-0.0798869
-0.0858371
-0.0867874
-0.0827828
-0.0837557
-0.0847285
-0.0856561
-0.0865385
-0.0824208
-0.0782806
-0.0841403
-0.0848869
-0.0805657
-0.0811312
-0.0866063
-0.0869457
-0.0772172
-0.0874661
-0.0926923
-0.0979186
-0.0931222
-0.0933484
-0.0985521
-0.0987783
-0.109005
-0.109208
-0.119434
-0.129683
-0.139977
-0.145249
-0.155543
-0.17086
-0.171244
-0.181742
-0.187376
-0.198213
-0.204276
-0.205679
-0.212376
-0.219276
-0.221199
-0.222941
-0.224366
-0.225385
-0.221086
-0.211561
-0.207014
-0.202443
-0.197828
-0.188235
-0.18862
-0.178982
-0.159231
-0.149412
-0.139502
-0.134593
-0.124593
-0.114547
-0.10948
-0.104389
-0.0993212
-0.0892307
-0.0892081
-0.0841628
-0.0790497
-0.0788687
-0.0736199
-0.0782353
-0.0726923
-0.0769457
-0.0709955
-0.0647511
-0.0531448
-0.0361991
-0.0239593
-0.00665161
-0.00443442
0.00744341
0.018914
0.0300905
0.0311086
0.042104
0.0529864
0.058733
0.0694118
0.0600452
0.0656108
0.0660633
0.0714479
0.0767873
0.0920588
0.102308
0.0975339
0.0977602
0.098009
0.103303
0.0935747
0.0988914
0.104186
0.10448
0.0997964
0.105181
0.115633
0.116109
0.121629
0.127172
0.13776
0.138371
0.134004
0.144683
0.15043
0.176222
0.182014
0.197873
0.203778
0.209706
0.205633
0.196584
0.207534
0.208507
0.214457
0.200385
0.19129
0.172195
0.1481
0.123959
0.114796
0.115633
0.106357
0.107014
0.107602
0.113145
0.113665
0.114163
0.119638
0.125045
0.13543
0.130769
0.141063
0.14629
0.146493
0.156652
0.176765
0.2119
0.241991
0.297059
0.362081
0.452082
0.522036
0.571968
0.586923
0.536878
0.456855
0.351855
0.281878
0.241923
0.227014
0.207104
0.17724
0.162421
0.137647
0.112851
0.0831448
0.068552
0.0490046
0.0445249
0.0300679
0.0206788
0.0163349
0.00699098
0.00264709
0.00334844
0.00909506
0.00484166
-0.00441176
-0.0086199
-0.0128054
-0.0219683
-0.0311765
-0.0353846
-0.0346154
-0.0388688
-0.0381222
-0.0423529
-0.0415158
-0.0456787
-0.054819
-0.0589819
-0.0631448
-0.0723077
-0.0764706
-0.0755882
-0.064638
-0.0586425
-0.0676697
-0.0716516
-0.0706335
-0.0695701
-0.0733936
-0.0770814
-0.0706787
-0.0691629
-0.0675792
-0.0709728
-0.0743665
-0.0777602
-0.0811312
-0.0895023
-0.087828
-0.0861765
-0.0895701
-0.103009
-0.111425
-0.114796
-0.11819
-0.126561
-0.129932
-0.133281
-0.136765
-0.150452
-0.159276
-0.168348
-0.172692
-0.187489
-0.192647
-0.198054
-0.198507
-0.203643
-0.203326
-0.202466
-0.191357
-0.190136
-0.183914
-0.177647
-0.17638
-0.170158
-0.163959
-0.152692
-0.136335
-0.124955
-0.113529
-0.0970815
-0.0906335
-0.0891856
-0.0827376
-0.0762444
-0.0697285
-0.0682127
-0.0667421
-0.0602263
-0.0586652
-0.0571041
-0.0604978
-0.0637783
-0.0619005
-0.0598869
-0.0576471
-0.0550679
-0.0421041
-0.0388461
-0.0453846
-0.0418326
-0.0435068
-0.0455656
-0.0481448
-0.0460407
-0.0441176
-0.0372851
-0.040543
-0.0439367
-0.0423982
-0.0359955
-0.0447285
-0.0485747
-0.0474887
-0.0514932
-0.050543
-0.0546606
-0.0538009
-0.0479638
-0.0421719
-0.0464253
-0.0456335
-0.0447964
-0.0389593
-0.0431448
-0.0473303
-0.0465158
-0.040724
-0.0349321
-0.034095
-0.0232353
-0.0173756
-0.0114932
-0.0106109
0.000294119
0.0111991
0.0171041
0.0280091
0.038914
0.0497738
0.0405882
0.0364253
0.0373077
0.0481674
0.0489593
0.0397059
0.0354525
0.0111765
-0.0131448
-0.0275113
-0.0368778
-0.041267
-0.0507014
-0.050181
-0.0496606
-0.0491629
-0.0587104
-0.0633258
-0.0529185
-0.0424887
-0.0370588
-0.0366968
-0.0363575
-0.0310407
-0.0309276
-0.0266968
-0.022828
0.00812217
0.0519005
0.0970136
0.162376
0.25276
0.363167
0.463348
0.528462
0.548348
0.478122
0.37267
0.267104
0.216425
0.200611
0.189683
0.173597
0.157443
0.146041
0.129525
0.107873
0.0911312
0.0793439
0.0723982
0.0704072
0.0783258
0.0811765
0.0838688
0.0815158
0.0841176
0.0967194
0.104299
0.10681
0.104344
0.106765
0.10914
0.10638
0.108552
0.110656
0.11767
0.109638
0.116516
0.123416
0.130249
0.126991
0.128688
0.135339
0.1469
0.148326
0.149615
0.155701
0.156561
0.157059
0.157127
0.161742
0.165928
0.159728
0.158462
0.157466
0.1619
0.161719
0.15681
0.157036
0.157353
0.16276
0.153258
0.148823
0.144434
0.140136
0.135882
0.131652
0.127443
0.118235
0.104027
0.0998416
0.0957014
0.0915611
0.0874435
0.0833485
0.079276
0.0702489
0.0662217
0.0622172
0.0632579
0.069276
0.0652263
0.0661086
0.076991
0.0828959
0.0887783
0.0896154
0.0954299
0.101131
0.106697
0.112217
0.117692
0.128145
0.133552
0.128982
0.129434
0.134842
0.140181
0.135453
0.130769
0.126131
0.126516
0.121923
0.122353
0.162805
0.348235
0.423733
-0.0407013
-0.669977
-0.979072
-1.04294
-1.05649
-1.06464
-1.02726
-1.01443
-0.966244
-0.937986
-0.890068
-0.862624
-0.835656
-0.793869
-0.767127
-0.725407
-0.703756
-0.647149
-0.615566
-0.579095
-0.547738
-0.521471
-0.475272
-0.45414
-0.418054
-0.396968
-0.360905
-0.344909
-0.328982
-0.323077
-0.317195
-0.30138
-0.300634
-0.274955
-0.264299
-0.238688
-0.228167
-0.21267
-0.192172
-0.181697
-0.161312
-0.155928
-0.140543
-0.130181
-0.119842
-0.11448
-0.099095
-0.0737104
-0.043371
0.0019457
0.0572625
0.132557
0.222828
0.3231
0.423394
0.498688
0.508937
0.449163
0.349412
0.264683
0.199955
0.170204
0.155475
0.140747
0.115995
0.101176
0.0913575
0.0765385
0.0616969
0.0518326
0.0469458
0.0520363
0.0570588
0.051991
0.0519457
0.0569232
0.0568779
0.0518101
0.0567196
0.0566517
0.0615385
0.0664027
0.0662444
0.081086
0.0859277
0.0957241
0.0955205
0.100385
0.105249
0.105136
0.105023
0.104932
0.109864
0.104819
0.104796
0.104796
0.104842
0.0999096
0.0949322
0.104955
0.109977
0.119977
0.11991
0.119819
0.119683
0.114502
0.109276
0.109027
0.113937
0.104615
0.0955883
0.0894118
0.0853394
0.0698191
0.0539594
0.0430544
0.0271494
0.0164028
-0.00932121
-0.0148415
-0.0202262
-0.0303846
-0.0404298
-0.0602714
-0.074819
-0.0892081
-0.0983483
-0.11233
-0.126018
-0.12457
-0.127964
-0.131222
-0.134366
-0.132308
-0.130158
-0.127851
-0.125452
-0.112919
-0.105339
-0.102715
-0.0900678
-0.0724887
-0.0599773
-0.0526471
-0.0504751
-0.0435746
-0.0319909
-0.0308144
-0.0349547
-0.029276
-0.0235521
-0.0224887
-0.0209729
-0.0138688
-0.0163801
-0.0236426
-0.0258371
-0.0181901
-0.0113123
-0.00925343
-0.00463805
0.00316737
0.012647
0.0178506
0.0235067
0.034638
0.0459728
0.0572398
0.0581221
0.0633936
0.0681674
0.0724434
0.0714932
0.0752941
0.0888914
0.0971945
0.0952714
0.09319
0.0959275
0.0984389
0.100701
0.102805
0.109774
0.116629
0.10828
0.099819
0.10129
0.102579
0.10371
0.0947285
0.0956561
0.0964705
0.0971945
0.097828
0.103461
0.109027
0.109525
0.105
0.11043
0.110814
0.111086
0.111267
0.11138
0.111448
0.111425
0.111357
0.111267
0.111131
0.11595
0.115701
0.120498
0.130317
0.140158
0.14
0.144842
0.154728
0.15957
0.164389
0.169231
0.184118
0.194004
0.203823
0.213642
0.223484
0.233303
0.228077
0.217828
0.217556
0.222262
0.221832
0.21638
0.210905
0.210362
0.189728
0.163959
0.153122
0.137172
0.121154
0.110045
0.108846
0.107602
0.10629
0.104909
0.103484
0.102059
0.100611
0.0991854
0.102783
0.106425
0.11009
0.108778
0.127534
0.156335
0.195181
0.25405
0.322964
0.416923
0.515928
0.599887
0.658778
0.657737
0.601719
0.505724
0.389728
0.313778
0.267805
0.25681
0.305814
0.499864
0.488959
-0.0319458
-0.682806
-0.97862
-1.04941
-1.05025
-1.05611
-1.02695
-1.00278
-0.978597
-0.944434
-0.920249
-0.876063
-0.856901
-0.81776
-0.788597
-0.749389
-0.715181
-0.690996
-0.666855
-0.632715
-0.588597
-0.559502
-0.525407
-0.49629
-0.457195
-0.433213
-0.414299
-0.375475
-0.34672
-0.318009
-0.299389
-0.270792
-0.247195
-0.228575
-0.214955
-0.19629
-0.172624
-0.168891
-0.155091
-0.141176
-0.117217
-0.0982127
-0.084095
-0.0699321
-0.0557692
-0.0466063
-0.0424434
-0.0332579
-0.029095
-0.0199095
-0.0207466
-0.0215384
-0.017285
-0.018009
-0.018733
-0.0294117
-0.0250452
-0.0257239
-0.0314253
-0.0371945
-0.048009
-0.0439819
-0.0501583
-0.0566515
-0.0635294
-0.0657918
-0.0684841
-0.0763122
-0.0790271
-0.0713348
-0.06819
-0.064638
-0.0558597
-0.0419909
-0.0281221
-0.024276
-0.0103619
-0.00144791
0.00748874
0.0164932
0.0306109
0.0447964
0.0590046
0.0682353
0.0725114
0.0817874
0.0810181
0.0802263
0.0844797
0.0887557
0.0880543
0.087353
0.0967647
0.101335
0.106109
0.101131
0.101448
0.107195
0.123394
0.14
0.136878
0.143778
0.145407
0.151606
0.152308
0.157692
0.157919
0.158077
0.158462
0.159728
0.16595
0.159796
0.150701
0.145294
0.149593
0.148869
0.1431
0.142489
0.137014
0.131652
0.121471
0.116448
0.116652
0.111946
0.102443
0.0981222
0.0990272
0.0951132
0.0963349
0.092715
0.0942987
0.0961313
0.0931448
0.0903846
0.0978055
0.11043
0.113213
0.131154
0.144321
0.152624
0.161109
0.164729
0.163507
0.157398
0.15638
0.15043
0.154548
0.138756
0.117919
0.0971041
0.0863122
0.0755882
0.0499095
0.0392534
0.0386425
0.0380543
0.0374435
0.0317873
0.0361539
0.0355204
0.0398869
0.0342308
0.0335747
0.0379186
0.0372172
0.0314706
0.0306787
0.0449095
0.054095
0.0732579
0.0974208
0.141561
0.195701
0.274819
0.368937
0.463009
0.552081
0.571154
0.545204
0.459253
0.358326
0.262398
0.206516
0.185656
0.164796
0.143959
0.1181
0.102262
0.0814254
0.0555883
0.0297738
0.0139819
0.00825797
0.00253398
-0.00814474
-0.00882348
0.000520416
0.00481906
-0.000927553
-0.00165153
-0.00237551
-0.00312212
-0.00889135
-0.0146153
-0.0203393
-0.0160633
-0.0118552
-0.0126696
-0.0134615
-0.0192307
-0.0199321
-0.0256787
-0.0214479
-0.022285
-0.0281674
-0.0340724
-0.045
-0.0409502
-0.0419004
-0.0427828
-0.0436425
-0.0395022
-0.040362
-0.0462217
-0.0520136
-0.0477149
-0.0433032
-0.0488009
-0.0541855
-0.0545249
-0.059819
-0.0700679
-0.0752941
-0.0754751
-0.0806787
-0.0908823
-0.101063
-0.106222
-0.111357
-0.121448
-0.131516
-0.141561
-0.151606
-0.166674
-0.176742
-0.181855
-0.192059
-0.207443
-0.217964
-0.21871
-0.229842
-0.241335
-0.248145
-0.250045
-0.2519
-0.253348
-0.249344
-0.244932
-0.230362
-0.220837
-0.211312
-0.201719
-0.192081
-0.182466
-0.177783
-0.167964
-0.153077
-0.138122
-0.133167
-0.128167
-0.118167
-0.113145
-0.113167
-0.10819
-0.0981674
-0.0881448
-0.0880995
-0.0880543
-0.0779412
-0.0778281
-0.0826471
-0.0873077
-0.0817647
-0.0809729
-0.084819
-0.0781901
-0.0761539
-0.0736878
-0.0711086
-0.0686426
-0.0615385
-0.0548869
-0.0586652
-0.0526697
-0.0367421
-0.025905
-0.0152036
-0.00459276
0.00595023
0.0164027
0.0217421
0.031991
0.032172
0.0473303
0.0474887
0.0526471
0.0578507
0.0680769
0.0783258
0.0785973
0.0839141
0.0892534
0.0945928
0.0949548
0.100362
0.105769
0.116267
0.121855
0.122511
0.13319
0.133891
0.139615
0.150385
0.166244
0.182127
0.188009
0.198937
0.204864
0.205815
0.191765
0.187715
0.193665
0.189615
0.185543
0.171448
0.162285
0.143077
0.123824
0.104502
0.0951584
0.0857919
0.0713575
0.0668552
0.0623077
0.0677376
0.0630996
0.0584163
0.0586652
0.0538688
0.0490272
0.0441177
0.0441629
0.0491403
0.0540724
0.053914
0.0736878
0.108462
0.15319
0.202896
0.267579
0.362285
0.451923
0.526538
0.546154
0.530769
0.440362
0.334955
0.249593
0.199253
0.188937
0.168643
0.143371
0.123167
0.103009
0.077896
0.0478055
0.0327828
0.0178281
0.0129186
0.00803172
0.00819009
0.00837108
0.0135521
0.0137331
0.0089367
0.00916293
-0.000565581
-0.000316717
-4.52325e-05
0.0102263
0.0154751
0.00570138
0.00590499
0.00610861
0.00628961
-0.00355201
0.00162897
-0.00321265
-0.0080769
-0.00800903
-0.0129638
-0.0128959
-0.0128506
-0.0178733
-0.0228733
-0.0228054
-0.0127149
-0.0176018
-0.0174208
-0.0171493
-0.0167647
-0.021267
-0.0206335
-0.0199095
-0.0240724
-0.0332127
-0.0423303
-0.0363801
-0.0353846
-0.0443665
-0.0533484
-0.0573303
-0.0563122
-0.0653167
-0.0793213
-0.0832805
-0.0972398
-0.111176
-0.125113
-0.12905
-0.138032
-0.142059
-0.156222
-0.17052
-0.175
-0.179774
-0.195
-0.205566
-0.20638
-0.207262
-0.207986
-0.208326
-0.203167
-0.197715
-0.197127
-0.186561
-0.17095
-0.155317
-0.144706
-0.144095
-0.138439
-0.127738
-0.122036
-0.116312
-0.110566
-0.0997964
-0.0990498
-0.0933258
-0.0875792
-0.0818326
-0.0761086
-0.0754073
-0.0696833
-0.0689141
-0.0631222
-0.057353
-0.0614706
-0.0604299
-0.0691855
-0.0726923
-0.075905
-0.0686652
-0.0710181
-0.0730317
-0.0699548
-0.0619231
-0.0592986
-0.0621493
-0.060362
-0.0488009
-0.0422851
-0.0358824
-0.0395701
-0.0383032
-0.0371493
-0.0361086
-0.040181
-0.0392986
-0.0335068
-0.0327828
-0.0370588
-0.0313348
-0.0255882
-0.0247964
-0.0240045
-0.0182127
-0.0173756
-0.0115611
-0.015724
-0.00486424
0.00110861
0.00212671
0.0031448
0.00918553
0.0152715
0.0163575
0.0174434
0.0235973
0.0297738
0.0459955
0.0522398
0.0535068
0.0647738
0.076086
0.0773756
0.0786425
0.0848869
0.0911312
0.0873303
0.0785068
0.0646833
0.0458145
0.0268778
0.00789592
-0.00113123
-0.00522625
-0.00443439
-0.0137104
-0.013009
-0.00733032
-0.00674209
-0.00124435
0.00420814
0.0146606
0.0150226
0.0102715
0.0154751
0.0206335
0.0257014
0.0256787
0.0456335
0.055543
0.0904299
0.130226
0.184955
0.264683
0.369389
0.454027
0.513643
0.528303
0.477964
0.387602
0.282217
0.211855
0.176516
0.166154
0.145814
0.120543
0.105339
0.0851583
0.0649773
0.044819
0.0297059
0.0196154
0.00950224
0.00943437
0.00938912
0.00934388
0.00432125
-0.000656124
-0.000610869
-0.000565622
-0.00554299
-0.0105204
-0.0104751
-0.00542986
-0.0103846
-0.010362
-0.0103394
-0.0154072
-0.0155204
-0.0206335
-0.0207466
-0.0209276
-0.0211765
-0.0264706
-0.0267421
-0.0270814
-0.0324434
-0.0328054
-0.0330995
-0.0283936
-0.0336878
-0.0440271
-0.0393439
-0.0395927
-0.0447964
-0.0499773
-0.0450452
-0.035
-0.0399095
-0.0397964
-0.044638
-0.049457
-0.0492534
-0.0540498
-0.0638235
-0.0685973
-0.0733484
-0.0781448
-0.0929412
-0.0977828
-0.107647
-0.112511
-0.12233
-0.122127
-0.131991
-0.141946
-0.151968
-0.167172
-0.172602
-0.183416
-0.184683
-0.196312
-0.198122
-0.199955
-0.196493
-0.187602
-0.183213
-0.178575
-0.178846
-0.169095
-0.159367
-0.149638
-0.139932
-0.130158
-0.115317
-0.110385
-0.10043
-0.0954525
-0.0854072
-0.075362
-0.0703167
-0.0702489
-0.0601357
-0.05
-0.0449095
-0.0497738
-0.0445928
-0.0393665
-0.0391629
-0.0388462
-0.0384842
-0.0329638
-0.0322851
-0.0363575
-0.0350226
-0.0332126
-0.0360407
-0.0435747
-0.0410181
-0.0336652
-0.0267421
-0.0252715
-0.0241177
-0.0181222
-0.012172
-0.0113122
-0.010543
-0.00484163
-0.00420814
-0.00368778
-0.00321267
-0.0027828
0.00757919
0.00289592
0.00823529
0.00859728
0.0089819
0.00434389
0.00468325
0.0100452
0.0154299
0.0207918
0.0161538
0.0215611
0.0270136
0.0274661
0.0279412
0.0384615
0.0440045
0.0395701
0.0451357
0.0557918
0.0665158
0.0773077
0.0780995
0.093914
0.0947511
0.0955656
0.0913801
0.0971946
0.103032
0.108801
0.104502
0.0902036
0.0808597
0.0714253
0.0469005
0.0273756
0.0178733
0.00830316
0.00366514
0.00398189
-0.000723988
-0.000429869
-0.000203624
-6.78748e-05
1.49012e-08
0.00500002
0.0149321
0.0297738
0.0346154
0.0344118
0.0291629
0.0288688
0.0435747
0.0632353
0.082828
0.127421
0.191968
0.281516
0.381018
0.47052
0.519977
0.524412
0.458824
0.368213
0.26267
0.202172
0.171674
0.151176
0.135724
0.115339
0.1
0.0746832
0.0544118
0.0342081
0.0190271
0.0138461
0.0037104
0.00361991
0.00857466
0.00855204
0.00855204
0.00359729
0.00866517
0.00375567
-0.00117645
-0.00606333
-0.00095021
-0.00583709
-0.0057466
-0.00567872
-0.000633471
-0.000610843
-0.0106109
-0.0106109
-0.0056561
-0.0107918
-0.0159955
-0.0212443
-0.0164932
-0.0217647
-0.0219909
-0.0221719
-0.0223303
-0.0224887
-0.0276018
-0.0276697
-0.032647
-0.0275339
-0.0373303
-0.0420136
-0.0366516
-0.0362217
-0.0408145
-0.0453846
-0.0499321
-0.0495022
-0.0491176
-0.0537104
-0.0582805
-0.0578507
-0.0624208
-0.0720135
-0.0766289
-0.0812217
-0.0858371
-0.0954977
-0.105181
-0.109977
-0.115023
-0.135271
-0.15086
-0.166855
-0.173281
-0.180068
-0.186855
-0.188529
-0.189751
-0.190498
-0.19086
-0.181018
-0.176086
-0.171086
-0.161041
-0.145973
-0.130882
-0.125814
-0.120701
-0.110566
-0.0954298
-0.0902941
-0.0901357
-0.09
-0.0798642
-0.0697059
-0.0595475
-0.0493891
-0.0392081
-0.0339819
-0.0386651
-0.0383258
-0.0329864
-0.032647
-0.032285
-0.0318778
-0.0264027
-0.0358371
-0.0400679
-0.0440045
-0.0425339
-0.0406108
-0.0382805
-0.030724
-0.0231447
-0.0108597
-0.0140045
-0.0175565
-0.01138
-0.0103393
-0.00941171
-0.0135294
-0.0127149
-0.00701352
-0.0064479
-0.00595018
-0.00554293
0.00479643
0.000113167
0.000384659
0.000633523
0.000927657
-0.00373299
-0.00334837
0.00205887
0.00248875
0.00294124
-0.00160627
0.00386884
0.00436657
0.00990956
0.0155204
0.0261765
0.0318779
0.0326019
0.0333259
0.0440498
0.0598417
0.0656562
0.0764933
0.0823756
0.0932806
0.084163
0.0750453
0.0759503
0.0818326
0.0726697
0.0634616
0.0492082
0.0298869
0.0104978
-0.0139592
-0.0235068
-0.0280769
-0.0277149
-0.0274208
-0.0321719
-0.0269909
-0.0218326
-0.0266968
-0.0266063
-0.0215611
-0.0165611
-0.0165837
-0.00665157
-0.00676469
-0.00190044
0.00791857
0.0226923
0.0524208
0.102127
0.15181
0.236425
0.335973
0.440453
0.519932
0.534412
0.508846
0.408281
0.297715
0.217149
0.176584
0.161063
0.140566
0.11509
0.099638
0.0842534
0.0639366
0.0336425
0.018371
0.00814475
0.003009
-0.0020815
-0.00219462
-0.00235299
-0.00748873
-0.00755659
-0.00755659
-0.00751135
-0.00742085
-0.0123077
-0.0121946
-0.0121041
-0.0170136
-0.0219684
-0.0169005
-0.0118552
-0.0118326
-0.0118779
-0.0119684
-0.0120815
-0.0122851
-0.012534
-0.0128281
-0.0131222
-0.0134163
-0.00868781
-0.0239593
-0.0242534
-0.0245023
-0.0197285
-0.0249095
-0.0300905
-0.0202715
-0.0153846
-0.0204073
-0.0203168
-0.0201584
-0.0198869
-0.0195928
-0.014276
-0.0189819
-0.0287104
-0.0384163
-0.0481222
-0.047828
-0.0575566
-0.0623077
-0.0720814
-0.0718552
-0.0866742
-0.101471
-0.111267
-0.116086
-0.120973
-0.130995
-0.131222
-0.141674
-0.152421
-0.163575
-0.180113
-0.182036
-0.184095
-0.186086
-0.192715
-0.188846
-0.179525
-0.175
-0.16543
-0.155882
-0.136335
-0.131787
-0.117262
-0.107738
-0.0931448
-0.0834842
-0.0787556
-0.0690271
-0.0642986
-0.0595475
-0.054819
-0.0500905
-0.0403394
-0.0405656
-0.0407692
-0.0359276
-0.0361086
-0.031267
-0.0313801
-0.0314254
-0.0313123
-0.0309729
-0.0354073
-0.034457
-0.0330543
-0.0361765
-0.0389593
-0.0316516
-0.0294571
-0.027715
-0.0264706
-0.0255883
-0.0248643
-0.0242082
-0.0236426
-0.0181901
-0.0177829
-0.0174435
-0.0172173
-0.0171041
-0.0170363
-0.0220136
-0.0270136
-0.0220136
-0.011991
-0.00696837
-0.011991
-0.0170362
-0.0170589
-0.0170362
-0.0170136
-0.021991
-0.0169005
-0.0117647
-0.00162899
-0.00649325
-0.00126701
0.00902711
0.0143438
0.0197058
0.0201131
0.0405656
0.0510407
0.0615611
0.0671267
0.0727149
0.0783257
0.0739819
0.0745927
0.0702036
0.0658144
0.0564027
0.051923
0.0523981
0.0428506
0.0232579
-0.00138016
-0.0160408
-0.0307693
-0.0405431
-0.045362
-0.040181
-0.0350453
-0.045
-0.0450453
-0.0401584
-0.0352715
-0.0304525
-0.0306787
-0.0259729
-0.016267
-0.0166742
-0.012172
0.00226244
0.0216742
0.0510407
0.095362
0.154683
0.234005
0.328281
0.422511
0.511652
0.550837
0.525023
0.434186
0.323303
0.227466
0.171674
0.150882
0.140136
0.119434
0.0988235
0.0782127
0.0676244
0.0470588
0.0315837
0.0161991
0.0108371
0.015543
0.0152715
0.015
0.0147285
0.0144796
0.014276
0.00907239
0.00886875
0.0136651
0.0134615
0.0132805
0.0130543
0.00778278
0.00753392
0.00726242
0.00694568
0.00660631
0.00624432
0.0108597
0.0054072
0.0049547
0.00447958
0.00398186
0.00343888
-0.00214936
-0.00276021
-0.00334845
-0.00393668
-0.0095249
-0.0101131
-0.00567874
-0.0112443
-0.01681
-0.017353
-0.0178281
-0.0232579
-0.0285747
-0.0287783
-0.023914
-0.0190724
-0.0242534
-0.034457
-0.0346607
-0.039819
-0.0550226
-0.0652036
-0.070362
-0.0754752
-0.0906109
-0.100792
-0.10595
-0.116131
-0.126312
-0.136561
-0.141787
-0.152059
-0.162466
-0.1681
-0.174027
-0.180339
-0.187059
-0.189072
-0.19129
-0.183394
-0.175249
-0.171674
-0.157692
-0.143507
-0.139299
-0.135158
-0.121018
-0.111878
-0.102692
-0.0984615
-0.0941176
-0.084638
-0.0751357
-0.0706108
-0.0710407
-0.0664479
-0.0618326
-0.0572172
-0.0575792
-0.0478959
-0.0432127
-0.0384841
-0.0386878
-0.0338009
-0.0337556
-0.0335068
-0.043009
-0.0421493
-0.0408371
-0.034095
-0.0419683
-0.0396606
-0.0324435
-0.0256109
-0.0292987
-0.0284616
-0.0228507
-0.0223303
-0.0218326
-0.021448
-0.0161312
-0.00588237
-0.000678755
-0.00558826
-0.0155656
-0.0156109
-0.0207014
-0.0207693
-0.0158371
-0.0108824
-0.010905
-0.0109276
-0.0109729
-0.0110407
-0.00606338
-0.00604074
-0.00601812
0.00402714
0.0140724
0.00909498
0.0141176
0.0192081
0.0243665
0.0295701
0.0297964
0.0400905
0.0454525
0.0508371
0.0562443
0.0666968
0.0771946
0.0826923
0.0782127
0.0787556
0.0843213
0.0848642
0.0803846
0.0809276
0.081448
0.076923
0.0573755
0.0427828
0.0231221
0.00839363
-0.00138012
-0.0011765
-0.000995494
0.00414025
0.00420812
-0.00576925
-0.00079187
-0.000904985
-0.00108599
-0.00135749
-0.00167423
0.0129412
0.0174887
0.0269909
0.0314253
0.0458371
0.0602036
0.0795249
0.118778
0.173009
0.242217
0.331357
0.415498
0.479638
0.518778
0.487919
0.422104
0.321357
0.230633
0.174977
0.149367
0.138778
0.123213
0.107692
0.0871946
0.0717421
0.0513348
0.0259276
0.0105656
0.00524884
-6.78971e-05
-0.000384636
-0.000656128
-0.000905
-0.00113125
-0.0013575
-0.00156112
-0.0067421
-0.00687785
-0.0070136
-0.0121267
-0.0122625
-0.00737559
-0.00753397
-0.012715
-0.0129186
-0.00812219
-0.00839369
-0.0136652
-0.0189593
-0.0142534
-0.00461541
-0.0100226
-0.0104525
-0.015905
-0.0113801
-0.0168779
-0.0223982
-0.0228507
-0.0182353
-0.0186199
-0.0190724
-0.0145249
-0.0149774
-0.015362
-0.0206335
-0.0257693
-0.0258145
-0.0208145
-0.0208371
-0.0308598
-0.0358598
-0.0358598
-0.0408824
-0.0408598
-0.0407919
-0.040724
-0.0556561
-0.0705883
-0.0804978
-0.085362
-0.0952489
-0.115113
-0.12
-0.124955
-0.135045
-0.145294
-0.150701
-0.15638
-0.162443
-0.168937
-0.170769
-0.167828
-0.169977
-0.171878
-0.168348
-0.164344
-0.155136
-0.14586
-0.136584
-0.127285
-0.117919
-0.108507
-0.104027
-0.0994344
-0.0897512
-0.0850679
-0.0803168
-0.075543
-0.0607919
-0.0560181
-0.0562444
-0.0513575
-0.0464254
-0.041448
-0.0464254
-0.0463349
-0.0411539
-0.035905
-0.0404751
-0.0397512
-0.0287104
-0.0322625
-0.0354751
-0.0333711
-0.031086
-0.0289367
-0.0320815
-0.0306561
-0.0296154
-0.0238688
-0.0232353
-0.0226471
-0.0171493
-0.0117421
-0.011448
-0.0162217
-0.0110634
-0.0110408
-0.011086
-0.00613124
-0.00619911
-0.011267
-0.0113349
-0.0113801
-0.0114254
-0.00647061
-0.00653848
-0.0116064
-0.011629
-0.011629
-0.0066516
-0.0116742
-0.0116516
-0.00660636
-0.00156111
0.00352939
0.00868776
0.00889138
0.0191176
0.0243665
0.0347059
0.0451357
0.0555882
0.0610407
0.0665158
0.0720136
0.0824887
0.0779412
0.0684163
0.063914
0.0693891
0.0698416
0.0652941
0.0507014
0.0310407
0.00631221
-0.0134615
-0.0232806
-0.0181222
-0.0180317
-0.0180091
-0.0180317
-0.0130769
-0.0131901
-0.0133258
-0.0184616
-0.0136199
-0.00889141
-0.0092534
-0.0146833
-0.0101584
-0.00570137
0.00366514
0.0230317
0.0573982
0.101719
0.145995
0.210294
0.289593
0.383869
0.4631
0.512353
0.526629
0.470882
0.375113
0.264389
0.198688
0.168032
0.147398
0.126833
0.101335
0.0908597
0.0754073
0.0549774
0.0345928
0.0242534
0.013914
0.00859729
0.0133032
0.00807693
0.00785069
-0.00239818
-0.00760179
-0.00778279
-0.0129412
-0.0131222
-0.0183032
-0.0134615
-0.0136425
-0.0238914
-0.0241629
-0.0243891
-0.0147059
-0.0200679
-0.0204525
-0.0208371
-0.021267
-0.0267873
-0.0323529
-0.0229638
-0.0235973
-0.024276
-0.0199547
-0.0155656
-0.0111312
-0.0116968
-0.0173303
-0.0129638
-0.0135746
-0.0191403
-0.0195701
-0.0198869
-0.0201584
-0.0253846
-0.0255656
-0.025724
-0.0208597
-0.0259955
-0.0361538
-0.041267
-0.0413575
-0.0414706
-0.0466516
-0.0518326
-0.0570136
-0.0671946
-0.0773529
-0.0875113
-0.0976697
-0.107828
-0.123077
-0.133462
-0.14405
-0.144955
-0.15629
-0.158077
-0.160181
-0.162353
-0.169412
-0.170995
-0.167127
-0.162873
-0.158462
-0.149005
-0.134525
-0.125045
-0.120588
-0.111154
-0.101652
-0.0870362
-0.0823529
-0.0775792
-0.0727602
-0.0629185
-0.0580995
-0.0583032
-0.053552
-0.0437783
-0.0389819
-0.0342081
-0.029457
-0.0246832
-0.0248642
-0.0300226
-0.0350679
-0.0349321
-0.0345928
-0.0440724
-0.0482579
-0.0470588
-0.0404299
-0.0434389
-0.0411991
-0.0338461
-0.0267421
-0.0300678
-0.028914
-0.0280995
-0.0224434
-0.0269231
-0.0314706
-0.0261086
-0.0207692
-0.0204977
-0.0253167
-0.0252036
-0.0201357
-0.0201131
-0.0200905
-0.0200226
-0.0149774
-0.00995472
-0.0149547
-0.0149321
-0.0148642
-0.0147964
-0.0146832
-0.0145475
-0.00436649
0.00583713
0.0110634
0.0113575
0.026629
0.0319231
0.0372398
0.0376245
0.0480769
0.0635521
0.0740724
0.0846154
0.0952263
0.105837
0.106471
0.097172
0.0928733
0.0935747
0.104231
0.109842
0.10543
0.0959502
0.0713801
0.0467647
0.0321267
0.0224208
0.0126697
0.00787331
0.00805431
0.00823531
0.00834843
-0.00160632
-0.00660632
0.00337105
0.0133258
0.0132579
0.0181674
0.0230543
0.0228507
0.0276018
0.0272398
0.0367873
0.061267
0.100724
0.155136
0.23448
0.333846
0.43819
0.512557
0.536923
0.50629
0.390633
0.285
0.204412
0.168824
0.153281
0.132805
0.112398
0.0920362
0.0766742
0.0513575
0.0310633
0.0158371
-0.00438915
-0.0146154
-0.014819
-0.00997738
-0.00511313
-0.000248877
-0.000339374
-0.000384621
0.00457013
0.00452488
0.00452488
-0.000452494
0.0045475
-0.000497742
-0.00556561
-0.00565611
-0.000791857
-0.000995478
-0.00622172
-0.00649321
-0.00678733
-0.0121719
-0.0226018
-0.0230769
-0.0235747
-0.0191176
-0.00966063
-0.00520362
0.00429865
-0.00122172
-0.00674208
-0.0122624
-0.0127149
-0.0130996
-0.0184163
-0.0186425
-0.0188009
-0.023914
-0.0289593
-0.0289819
-0.0239819
-0.0289593
-0.0389366
-0.048914
-0.053914
-0.063914
-0.0738914
-0.0788688
-0.0838235
-0.0987556
-0.11371
-0.108665
-0.10362
-0.113597
-0.128597
-0.14371
-0.148982
-0.164502
-0.175294
-0.181516
-0.1831
-0.190068
-0.202172
-0.199208
-0.195882
-0.187036
-0.182692
-0.173077
-0.158394
-0.143688
-0.134005
-0.129321
-0.114615
-0.109864
-0.100023
-0.0950905
-0.0900905
-0.0800905
-0.0750905
-0.0701357
-0.065181
-0.0601584
-0.0601131
-0.0600452
-0.0599095
-0.0497511
-0.0496154
-0.034457
-0.024276
-0.0190498
-0.0287104
-0.0281674
-0.0223303
-0.0261086
-0.0294118
-0.0322624
-0.0297511
-0.0271041
-0.0245928
-0.0276244
-0.0311086
-0.0249547
-0.0289819
-0.0330769
-0.0322172
-0.031448
-0.0257919
-0.0252036
-0.0197285
-0.0193439
-0.0140045
-0.00875567
-0.00852942
-0.00830317
-0.0080543
-0.0077828
-0.0124887
-0.0121946
-0.00690044
-0.00156108
-0.00617646
-0.00576922
-0.000384608
0.0050905
0.00558824
0.011086
0.021629
0.0272625
0.0279638
0.0386878
0.049457
0.0652263
0.0760407
0.0918552
0.10267
0.108507
0.109389
0.110294
0.106199
0.107104
0.103009
0.108914
0.0997738
0.0856109
0.0664027
0.0471493
0.0378507
0.0284615
0.0139593
0.00938914
0.00977376
0.0101131
0.00538462
0.00558824
0.010724
0.0107692
0.00574662
0.00567874
0.0105882
0.0154525
0.0252489
0.0249774
0.0397059
0.0494118
0.0590271
0.0835747
0.128077
0.197557
0.266968
0.371335
0.460701
0.555068
0.584412
0.55871
0.473032
0.357376
0.256742
0.201109
0.180543
0.165068
0.144661
0.119299
0.0989367
0.0785747
0.0482127
0.0229185
0.00766967
0.00746606
0.00728505
0.00712669
0.00201357
-0.00309956
0.00178732
-0.00332581
-0.0134163
-0.0135068
-0.00857467
-0.00864254
-0.0136425
-0.0135973
-0.013552
-0.0185747
-0.0286199
-0.0336652
-0.0387557
-0.0338914
-0.0390724
-0.044276
-0.0444796
-0.0397738
-0.0451584
-0.0456109
-0.0410634
-0.0415611
-0.0521041
-0.0526018
-0.0480769
-0.0485294
-0.0489593
-0.049276
-0.0544796
-0.0545928
-0.0595701
-0.0594797
-0.0593439
-0.0592308
-0.059095
-0.0589593
-0.0588462
-0.0637557
-0.0736425
-0.0785294
-0.0784163
-0.0933032
-0.103167
-0.108032
-0.117896
-0.13276
-0.147624
-0.157534
-0.167443
-0.167398
-0.182443
-0.19267
-0.1931
-0.198869
-0.205091
-0.201765
-0.19871
-0.190724
-0.197511
-0.203846
-0.199661
-0.195113
-0.185453
-0.180792
-0.171154
-0.151516
-0.131878
-0.12224
-0.112466
-0.0976018
-0.0876471
-0.0826923
-0.077715
-0.0626923
-0.0576923
-0.0576923
-0.0576923
-0.0526471
-0.0526018
-0.0525339
-0.0474661
-0.0373077
-0.0270815
-0.02681
-0.0314253
-0.0308145
-0.0299095
-0.028733
-0.0321041
-0.0300452
-0.0275566
-0.0249321
-0.0224208
-0.0202715
-0.0136199
-0.00744342
-0.0114932
-0.0156335
-0.014819
-0.0141176
-0.00852939
0.00699098
0.0124208
0.00769234
0.0028507
-0.00203617
0.00309958
0.00323532
-0.00165155
0.00346158
0.0085747
0.00873307
0.00389144
0.0040498
0.00927605
0.00952492
0.00979641
0.0100679
0.0153846
0.020724
0.0260634
0.0314028
0.0367874
0.0422172
0.047715
0.0532579
0.0538236
0.0744118
0.0900679
0.100747
0.106448
0.112172
0.117896
0.108597
0.104276
0.10491
0.100453
0.0809276
0.0563349
0.0416742
0.0169683
0.0022172
-0.00757919
-0.00239818
-0.00728507
-0.0121946
-0.0071267
0.00291855
0.00291855
-0.00219458
-0.00233032
0.00253394
0.00228506
0.00194569
0.00653845
0.016086
0.020543
0.0299321
0.039276
0.0585746
0.0928733
0.142081
0.201267
0.285498
0.389706
0.488869
0.5481
0.557376
0.506697
0.400995
0.290249
0.199502
0.158733
0.138009
0.122308
0.111652
0.101086
0.0856109
0.050181
0.0297964
0.00947965
0.00420815
-0.00106334
-0.00631221
-0.00147059
-0.00662896
-0.00678733
-0.0119231
-0.0070362
-0.00219457
-0.00239819
-0.00757919
-0.0127376
-0.0128507
-0.0129864
-0.0181448
-0.0133032
-0.00348416
0.00131222
-0.00393665
-0.00420814
-0.00454751
-0.00493212
-0.0103394
-0.0157692
-0.0111991
-0.016629
-0.0170362
-0.0224434
-0.0178281
-0.0182127
-0.0235973
-0.0238914
-0.0191176
-0.0192986
-0.024457
-0.0295249
-0.0294796
-0.0243665
-0.0292534
-0.034095
-0.038914
-0.0437557
-0.0536199
-0.0684842
-0.0683258
-0.07319
-0.0780995
-0.0879864
-0.0928281
-0.0976697
-0.107534
-0.122376
-0.137262
-0.14724
-0.162353
-0.172647
-0.178235
-0.189118
-0.200452
-0.207195
-0.209118
-0.211063
-0.21767
-0.213869
-0.199593
-0.180023
-0.165362
-0.150701
-0.141063
-0.13138
-0.126742
-0.117059
-0.112308
-0.0974887
-0.0926471
-0.0878054
-0.0828959
-0.0778959
-0.0628959
-0.0629412
-0.0629864
-0.0529864
-0.0429864
-0.0329638
-0.0329185
-0.0278054
-0.0276697
-0.0274887
-0.0272624
-0.0269004
-0.0213575
-0.0255882
-0.0345701
-0.03319
-0.0263575
-0.034095
-0.0365385
-0.033914
-0.0314932
-0.0245701
-0.0181222
-0.00705882
-0.00617647
-0.00536199
-0.00463801
-0.00393664
-0.00325791
-0.00266968
-0.00223981
-0.00190045
-0.00162895
0.00361991
0.00382354
-0.000995465
0.00423077
0.00445702
-0.000294108
-6.78673e-05
0.010181
0.0204751
0.0207919
0.026086
0.0264027
0.0317647
0.0321493
0.032534
0.0380091
0.0435973
0.0492308
0.0548869
0.0705883
0.0813349
0.0870815
0.0928733
0.0986878
0.10457
0.0954299
0.091267
0.0871041
0.0879186
0.0936878
0.0893891
0.0801131
0.0658371
0.0564932
0.0320815
0.0126018
-0.00192307
-0.0064932
-0.0111538
-0.0108823
-0.00565609
-0.0054751
-0.00538461
-0.00536198
-0.000361986
0.00959277
0.00447965
-0.000678726
0.00411765
0.0138688
0.013552
0.0281674
0.0527149
0.0872172
0.131652
0.196041
0.280407
0.394751
0.49405
0.538326
0.547624
0.476946
0.376244
0.265566
0.199932
0.174412
0.153959
0.133597
0.108281
0.093009
0.0677602
0.0425339
0.0323077
0.0221267
0.0169909
0.00685519
-0.00323531
-0.00330319
0.00169682
0.0016742
-0.00334843
-0.00332581
-0.00828056
-0.00819006
-0.0130996
-0.0129864
-0.0128959
-0.0128281
-0.0228054
-0.0278055
-0.0278055
-0.0228281
-0.0179186
-0.0130317
-0.0081222
-0.0133258
-0.0186199
-0.023914
-0.0192308
-0.0245475
-0.0298643
-0.0300905
-0.0352715
-0.0304525
-0.0356335
-0.0408145
-0.0359502
-0.0360407
-0.0360407
-0.0409729
-0.0408371
-0.0356109
-0.035362
-0.0401131
-0.0448416
-0.0495475
-0.0492986
-0.0490724
-0.0538235
-0.0585068
-0.05819
-0.0678733
-0.0775792
-0.0822624
-0.0869457
-0.101652
-0.116335
-0.121041
-0.130837
-0.140792
-0.150882
-0.151244
-0.167014
-0.178258
-0.189887
-0.191719
-0.188597
-0.195181
-0.186312
-0.176923
-0.167217
-0.172421
-0.167602
-0.152738
-0.142805
-0.132919
-0.123054
-0.108167
-0.0932127
-0.0832353
-0.0782353
-0.07319
-0.0631222
-0.0630543
-0.058009
-0.0529638
-0.0428507
-0.0427602
-0.0376697
-0.0325339
-0.0273529
-0.0271719
-0.0269457
-0.0266063
-0.0261086
-0.0254072
-0.0244344
-0.0280769
-0.0261991
-0.0238235
-0.0262443
-0.0286652
-0.0264027
-0.0245701
-0.0182353
-0.022172
-0.0212217
-0.0253394
-0.0245701
-0.023914
-0.0233258
-0.0178281
-0.0124661
-0.00717194
-0.0119231
-0.00669683
-0.0115385
-0.0114027
-0.0112217
-0.00599547
-0.00576923
-0.00556561
-0.000316739
-4.52474e-05
0.000271499
0.000588246
0.00592761
0.0113122
0.0217421
0.0271267
0.0324887
0.0328959
0.0383711
0.0438914
0.0444796
0.0601357
0.0758145
0.0764932
0.082172
0.0879412
0.093733
0.0845023
0.0752489
0.0759502
0.0766516
0.0773077
0.0678959
0.0584616
0.0390045
0.0245023
0.00995477
-0.00459273
-0.00914025
-0.0137556
-0.0134163
-0.0181448
-0.0129185
-0.00773753
-0.00262441
-0.00755654
-0.00755654
-0.00257916
0.00233034
0.0021946
0.00203623
0.00683261
0.00653849
0.0161539
0.0407466
0.0802715
0.124706
0.194095
0.288507
0.397851
0.487149
0.536403
0.535656
0.464955
0.359208
0.243507
0.177851
0.15224
0.136629
0.111018
0.0854977
0.0700452
0.054638
0.034276
0.0139819
0.00380089
-0.0013575
-0.00651587
-0.0116516
-0.0117421
-0.0068326
-0.0019231
-0.00701358
-0.00705883
-0.0120815
-0.0171041
-0.0171041
-0.0170815
-0.0120815
-0.0121267
-0.0121946
-0.0122851
-0.00739822
-0.00755658
-0.00778283
-0.0180091
-0.0183032
-0.00866518
-0.00911767
-0.0145702
-0.0150679
-0.020543
-0.0209955
-0.0264254
-0.0219231
-0.0224887
-0.0230543
-0.0285747
-0.0239819
-0.019276
-0.0194344
-0.0195249
-0.0145249
-0.0195475
-0.0295702
-0.0345475
-0.0344797
-0.0344344
-0.0444118
-0.0543665
-0.0643439
-0.0693665
-0.0744118
-0.084457
-0.0944797
-0.0944344
-0.0943892
-0.104344
-0.114321
-0.119321
-0.129434
-0.139729
-0.150204
-0.15595
-0.162195
-0.178914
-0.191063
-0.193348
-0.19052
-0.18733
-0.183552
-0.179367
-0.17
-0.160611
-0.156176
-0.146697
-0.142217
-0.142715
-0.138167
-0.123529
-0.118846
-0.109118
-0.104367
-0.0945475
-0.0796833
-0.074819
-0.0649774
-0.0601131
-0.0552036
-0.0552715
-0.0552941
-0.0502941
-0.0452715
-0.0402489
-0.040181
-0.035
-0.0246606
-0.0241403
-0.0283032
-0.026991
-0.025181
-0.0229864
-0.0205882
-0.0231674
-0.0160407
-0.0143892
-0.0132806
-0.0124435
-0.0167195
-0.011086
-0.0155656
-0.0201358
-0.0197512
-0.019457
-0.0192308
-0.029095
-0.0240045
-0.0189367
-0.0188914
-0.0188462
-0.0187783
-0.0136878
-0.00857468
-0.00843893
-0.0132579
-0.00807693
-0.00791856
-0.00771494
-0.00244345
0.0078733
0.0132353
0.0186425
0.0241403
0.0346833
0.0452941
0.0459502
0.061629
0.0723529
0.0881448
0.0889819
0.099819
0.100679
0.0914932
0.0872851
0.0980317
0.113756
0.114457
0.105113
0.085724
0.0663122
0.0418552
0.0223303
0.00773755
0.00812217
0.00839367
-0.00147059
-0.00638008
-0.00133483
0.00366517
0.00355204
0.00837105
0.0181222
0.0228281
0.0274887
0.0271041
0.0216516
0.0261539
0.0306109
0.0350226
0.0444118
0.0737557
0.113032
0.167285
0.241493
0.350634
0.459751
0.558824
0.592873
0.5569
0.465973
0.335068
0.244208
0.203348
0.187511
0.166719
0.13595
0.120249
0.0995475
0.0738914
0.0482805
0.0327376
0.0221946
0.0116968
0.00122172
-0.00418553
0.000452477
9.04873e-05
-0.00522625
-0.0104977
-0.0107692
-0.0210634
-0.0263801
-0.0266742
-0.0269683
-0.0272851
-0.0276244
-0.0229864
-0.0183258
-0.0187104
-0.0291403
-0.0296154
-0.0251358
-0.0206787
-0.0262217
-0.03181
-0.0323982
-0.0280091
-0.0336199
-0.0342082
-0.029819
-0.0304073
-0.0359729
-0.0414706
-0.0369231
-0.0423077
-0.0426245
-0.042896
-0.0430769
-0.0432127
-0.0483484
-0.0534615
-0.0535747
-0.0536426
-0.0637104
-0.0737783
-0.0788688
-0.0789593
-0.0890724
-0.104163
-0.109231
-0.119299
-0.129412
-0.149593
-0.154842
-0.170204
-0.180747
-0.196561
-0.207647
-0.214163
-0.226109
-0.233416
-0.240814
-0.2381
-0.235113
-0.231652
-0.222692
-0.218348
-0.208891
-0.204412
-0.194932
-0.18043
-0.165928
-0.151425
-0.141878
-0.122217
-0.102489
-0.0977828
-0.0880996
-0.078371
-0.0635973
-0.0588235
-0.0540045
-0.0491403
-0.0442534
-0.0443439
-0.0394344
-0.0295475
-0.0196154
-0.0196606
-0.0246833
-0.019638
-0.014457
-0.019095
-0.0184615
-0.00746606
-0.00597285
-0.00900452
-0.0115837
-0.0039819
-0.00651585
-0.00447965
-0.00803168
-0.00196832
0.00393665
0.00477376
0.00552036
0.00113121
0.0066742
-0.00287331
-0.00755657
-0.00733032
-0.00214933
-0.00201358
-0.00192309
-0.00687784
-0.00183259
0.0032579
0.0033484
-0.0015611
0.00352939
0.00864252
0.013733
0.0138461
0.0190271
0.0292534
0.0345022
0.0447964
0.0501584
0.0606108
0.066086
0.0765611
0.0870814
0.0926697
0.0933032
0.0989593
0.104615
0.110271
0.110928
0.106538
0.107172
0.107828
0.0984615
0.0790045
0.0694796
0.0549321
0.0402941
0.0205882
0.00581449
0.00099548
0.00113123
-0.0038009
-0.00382352
-0.0088914
-0.00395926
-0.00414027
-0.00438914
0.00033937
0.00504525
-0.000339359
-0.000814471
0.00866517
0.0230996
0.0424887
0.0617647
0.0960407
0.145249
0.204389
0.278462
0.382489
0.491516
0.570453
0.599366
0.573258
0.502172
0.391086
0.290045
0.219072
0.193145
0.177285
0.156448
0.130656
0.104932
0.084276
0.0586425
0.0330769
0.0176244
0.0122398
0.0118552
0.00651584
0.00124435
0.00106335
-0.00409502
-0.00423077
-0.00432126
-0.00436651
-0.00445701
-0.00454751
-0.00961538
-0.00966063
-0.00975113
-0.0148869
-0.0150226
-0.0151357
-0.0202941
-0.0254977
-0.0257013
-0.0209728
-0.0212896
-0.0266968
-0.0321041
-0.0275566
-0.0279864
-0.0334615
-0.038914
-0.0392986
-0.039638
-0.0399774
-0.0403394
-0.0406109
-0.0358145
-0.0409276
-0.0459276
-0.0458371
-0.0457013
-0.045543
-0.0504299
-0.0552941
-0.0551584
-0.06
-0.0648869
-0.0697511
-0.0745928
-0.0844118
-0.0992534
-0.109072
-0.113846
-0.12362
-0.133394
-0.14819
-0.153032
-0.163009
-0.17319
-0.183665
-0.189525
-0.200905
-0.20776
-0.210023
-0.207489
-0.204842
-0.211855
-0.213258
-0.209118
-0.194683
-0.185181
-0.175611
-0.16095
-0.146244
-0.131516
-0.121765
-0.111946
-0.102036
-0.0871041
-0.0771719
-0.0772624
-0.0623077
-0.0573529
-0.0574208
-0.0524661
-0.0424661
-0.0374661
-0.0324887
-0.0324887
-0.0324434
-0.0272624
-0.0320136
-0.0316516
-0.0260407
-0.0251357
-0.023914
-0.0273303
-0.0152715
-0.0127828
-0.0100905
-0.00744344
-0.000113135
-0.00325793
-0.00685522
-0.0107693
-0.014819
-0.0139141
-0.013077
-0.0123303
-0.0116969
-0.00113125
-0.00570139
-0.0104073
-0.00518103
4.52213e-05
0.000271462
-0.00452492
-0.00932129
-0.00907243
-0.00884617
-0.0135973
-0.0183484
-0.00805432
-0.00271496
0.00266966
0.0080769
0.0185294
0.0240724
0.0296154
0.030181
0.0358145
0.0464932
0.0572172
0.0729638
0.0787783
0.094638
0.100543
0.106448
0.102421
0.108439
0.109434
0.100407
0.0913122
0.0922398
0.0930995
0.078914
0.0546833
0.0304072
0.0060181
-0.00848416
-0.0180317
-0.0226018
-0.0171946
-0.01681
-0.011448
-0.0161086
-0.0108597
-0.0106561
-0.0104751
-0.0103167
-0.00527148
-0.00531673
-0.00540723
-0.000520349
0.00932128
0.0191177
0.0388688
0.0736426
0.128348
0.202986
0.292557
0.407104
0.516652
0.611199
0.660747
0.635339
0.554977
0.419593
0.29914
0.22371
0.188348
0.163054
0.127805
0.102624
0.0775339
0.0574887
0.0374434
0.0174434
0.00748868
0.0076018
0.00773755
0.0028733
0.00309954
0.00837103
0.0086199
0.00384615
-0.000882361
0.00443438
0.00977375
0.0150679
0.00536198
0.0106335
0.0208597
0.0160633
0.0112896
0.0164932
0.0416742
0.0467647
0.0318552
0.0169004
0.00190045
0.0018552
-0.00316742
-0.00319005
-0.00321268
0.0017647
-0.00330317
-0.00834842
-0.013371
-0.013371
-0.0182806
-0.0130317
-0.00771495
-0.00737558
-0.011991
-0.0115385
-0.0110634
-0.0156109
-0.0252036
-0.0247964
-0.0293891
-0.0290045
-0.0386652
-0.0482805
-0.0578507
-0.0673982
-0.0769231
-0.0964254
-0.100905
-0.10543
-0.120068
-0.134887
-0.149887
-0.155249
-0.166041
-0.177376
-0.194163
-0.201131
-0.212986
-0.224412
-0.225204
-0.225475
-0.21052
-0.215498
-0.200362
-0.190158
-0.179887
-0.164615
-0.144367
-0.124186
-0.113982
-0.108733
-0.103439
-0.1031
-0.102783
-0.0974434
-0.0820814
-0.0766968
-0.0763122
-0.0759276
-0.0605204
-0.0550679
-0.054638
-0.0542082
-0.0537557
-0.0532353
-0.0576923
-0.0670588
-0.0612896
-0.0552489
-0.0488914
-0.0471493
-0.0548643
-0.0570588
-0.0538462
-0.0554299
-0.0571267
-0.0542308
-0.0369683
-0.0352715
-0.033914
-0.0376697
-0.0365837
-0.0356561
-0.0398643
-0.0341629
-0.023552
-0.0230543
-0.0226471
-0.0222625
-0.0168552
-0.0164706
-0.0211086
-0.0257014
-0.0202489
-0.0097964
-0.00932129
-0.0138236
-0.0132806
-0.00269232
-0.00203621
0.00861989
0.0143439
0.0201584
0.0209955
0.0268778
0.032828
0.048914
0.0600679
0.0712217
0.0823303
0.0933936
0.0944796
0.0905882
0.0866742
0.0827375
0.0887783
0.0847964
0.080724
0.0766063
0.0574208
0.0331448
0.0138461
0.00450223
9.04649e-05
-0.00938918
-0.0138914
-0.0134389
-0.00805433
-0.00773758
-0.00746608
-0.00723986
-0.00208148
-0.00199099
-0.00694574
-0.00692311
-0.00696836
-0.00208148
-0.00230773
0.0123982
0.0370362
0.0815837
0.131086
0.220566
0.33
0.454412
0.568801
0.613145
0.592443
0.491719
0.35595
0.240204
0.179457
0.153778
0.128077
0.112443
0.0818326
0.056267
0.0357919
0.0254073
0.0050679
-0.0152489
-0.030543
-0.0358144
-0.0310859
-0.0313801
-0.0416515
-0.0418552
-0.0420362
-0.0422398
-0.0474434
-0.0525565
-0.0476471
-0.0477828
-0.0479412
-0.0531222
-0.0483258
-0.0486199
-0.0439593
-0.049276
-0.0446154
-0.0399774
-0.0453846
-0.0508823
-0.0464253
-0.0420135
-0.042647
-0.0333031
-0.0289592
-0.0245475
-0.0251131
-0.0356787
-0.0262895
-0.0269004
-0.0224434
-0.0278959
-0.0282352
-0.0234389
-0.0235746
-0.0286425
-0.0337104
-0.0287556
-0.0288235
-0.038914
-0.0440271
-0.0441402
-0.0541855
-0.0642307
-0.0692986
-0.0743891
-0.0844343
-0.0944796
-0.104502
-0.114547
-0.124638
-0.139842
-0.150204
-0.155792
-0.166652
-0.182851
-0.189457
-0.196425
-0.20362
-0.215814
-0.212805
-0.209344
-0.200452
-0.201154
-0.186697
-0.182195
-0.167647
-0.1531
-0.143552
-0.129004
-0.114412
-0.104706
-0.0999547
-0.090181
-0.0804299
-0.0756335
-0.0658145
-0.0609955
-0.0461991
-0.0413801
-0.0415385
-0.0467421
-0.0419457
-0.0371267
-0.0322851
-0.0224887
-0.0126244
-0.00764707
-0.0124434
-0.0219909
-0.0161539
-0.0197964
-0.0228733
-0.0254299
-0.0177828
-0.0202263
-0.0180996
-0.0215611
-0.0205656
-0.0198643
-0.019276
-0.0187557
-0.0132806
-0.0129412
-0.0177149
-0.0175566
-0.00744345
-0.00242082
-0.0024887
-0.00262444
-0.00280543
0.00201356
0.00187781
0.00171944
0.00156108
0.00640271
0.00628958
0.00117645
0.00106332
0.0110181
0.0160407
0.0211086
0.0261991
0.0413348
0.0415158
0.0417647
0.0520362
0.062353
0.0727376
0.0831448
0.0885747
0.0990498
0.10457
0.105091
0.105656
0.106244
0.101833
0.102421
0.107964
0.108507
0.0939593
0.0693666
0.0497285
0.0300226
0.0152941
0.000497751
0.00065612
0.000723988
0.00576923
0.00574661
0.00565612
0.0105204
0.005362
0.00511312
0.00479639
0.00943439
0.00900452
0.00852942
0.013009
0.0224208
0.0367647
0.0610633
0.100317
0.154502
0.228688
0.312828
0.411923
0.501018
0.560068
0.559095
0.508077
0.402127
0.301176
0.215272
0.174367
0.158552
0.14276
0.122014
0.0963122
0.0756561
0.0550678
0.0245249
0.00402712
-0.00642537
-0.00185522
-0.00726246
-0.0126471
-0.0129638
-0.00825794
-0.00848419
-0.0136878
-0.00886881
-0.00907242
-0.014276
-0.014457
-0.00463802
-0.00479638
-0.00493213
-0.0100905
-0.0152941
-0.010543
-0.0157918
-0.0160633
-0.0163801
-0.0167421
-0.0171041
-0.0225339
-0.0280091
-0.0235294
-0.0190498
-0.0195928
-0.0301358
-0.0356788
-0.0361991
-0.0367421
-0.0423303
-0.0428507
-0.0432353
-0.0435294
-0.0437331
-0.0388236
-0.0338688
-0.043914
-0.0489593
-0.0489593
-0.0489367
-0.0589141
-0.063914
-0.0689367
-0.0789593
-0.0939819
-0.104027
-0.114072
-0.119072
-0.129027
-0.139027
-0.149095
-0.154208
-0.164412
-0.174751
-0.185294
-0.191109
-0.197308
-0.198914
-0.200905
-0.203009
-0.199955
-0.201561
-0.20267
-0.193394
-0.173914
-0.159412
-0.154932
-0.14043
-0.130905
-0.11638
-0.111855
-0.0972172
-0.0874661
-0.0726697
-0.0678733
-0.0630543
-0.0581901
-0.0483484
-0.0435068
-0.0386426
-0.0287331
-0.0288236
-0.0289141
-0.0239819
-0.0190045
-0.0189593
-0.0238009
-0.0184842
-0.022896
-0.0219684
-0.0256561
-0.0289141
-0.0217421
-0.0192987
-0.0168552
-0.0246607
-0.0179412
-0.0166516
-0.0157466
-0.0200453
-0.0194118
-0.0138462
-0.00837108
-0.00803172
-0.00778285
-0.00260185
-0.00255659
-0.00760185
-0.00266972
0.00228503
0.00221716
-0.0029186
-0.00303172
-0.00309959
-0.00314485
-0.0081901
-0.00821272
-0.00319011
-0.00316749
0.00185515
0.00694563
0.0120588
0.0222171
0.0273755
0.0275339
0.0327601
0.0330316
0.0383484
0.0437103
0.0491402
0.0596153
0.0701131
0.0755882
0.0761085
0.0816741
0.0822624
0.0828054
0.0833031
0.0888008
0.0942533
0.0796606
0.0599999
0.0453393
0.0256334
0.00085967
-0.00893671
-0.00377835
-0.00368784
-0.0136878
-0.0187331
-0.0138236
-0.0089593
-0.00916293
-0.00943442
0.000203595
0.0097511
0.0142307
0.00861987
0.0129864
0.0223076
0.0365837
0.0557918
0.0849773
0.12414
0.178281
0.242376
0.336425
0.430475
0.514548
0.53862
0.502692
0.42181
0.310928
0.230023
0.184095
0.163235
0.142489
0.116765
0.0910634
0.0753846
0.0597964
0.0342082
0.00866519
0.00319006
0.00280545
-0.00253392
-0.00789591
-0.00823528
-0.00855203
-0.0138235
-0.0190724
-0.019276
-0.0194796
-0.0196833
-0.0198869
-0.0200905
-0.0202715
-0.0154751
-0.0206787
-0.0209502
-0.0212443
-0.0165611
-0.0219231
-0.0222851
-0.0226923
-0.0180995
-0.0185973
-0.0241629
-0.0247738
-0.0204299
-0.0211086
-0.0218326
-0.0225339
-0.0181901
-0.0188009
-0.0244344
-0.0250453
-0.0256335
-0.0311539
-0.0315611
-0.0318778
-0.0221041
-0.0272851
-0.0324434
-0.0376018
-0.0427376
-0.0428959
-0.0530543
-0.0581901
-0.0583484
-0.0634615
-0.0685973
-0.078733
-0.0838462
-0.0889367
-0.0990724
-0.114231
-0.124457
-0.134774
-0.150181
-0.160792
-0.171606
-0.172715
-0.179253
-0.186267
-0.193665
-0.196199
-0.19362
-0.195656
-0.187172
-0.183213
-0.169095
-0.169955
-0.160815
-0.146697
-0.137579
-0.123416
-0.119163
-0.104842
-0.0954299
-0.0859502
-0.0863801
-0.0767647
-0.0671493
-0.0575113
-0.0528281
-0.0480995
-0.0383484
-0.0385973
-0.0388009
-0.0389593
-0.0340271
-0.0340045
-0.0388461
-0.0435294
-0.0429864
-0.0371719
-0.0409502
-0.044276
-0.0421946
-0.0399774
-0.0429185
-0.0412217
-0.0350226
-0.0191855
-0.013552
-0.0229864
-0.0224887
-0.0121041
-0.00680995
-0.0115385
-0.00631221
-0.00122171
-0.0063122
-0.0114706
-0.016629
-0.00680994
-0.00701356
-0.00221719
-0.00742081
-0.0076018
-0.00780542
-0.00803166
-0.00821266
-0.00334841
0.00153847
-0.00355203
-0.00359728
0.00144797
0.0114932
0.0165385
0.016629
0.0217873
0.0269457
0.0371719
0.0374434
0.0478054
0.06819
0.0785747
0.0890045
0.0894796
0.0999774
0.100475
0.0959728
0.0864932
0.0919909
0.0923982
0.0877602
0.0680995
0.048371
0.0335747
0.013733
-0.0011086
-0.0060181
-0.00597285
-0.0110181
-0.0111312
-0.011267
-0.0114706
-0.00674207
-0.0120362
-0.00237555
0.00223983
0.00676472
0.00624436
0.0156787
0.0250679
0.0393665
0.0636199
0.0878281
0.136968
0.191063
0.265113
0.364186
0.468235
0.557285
0.586312
0.560362
0.474434
0.363484
0.262579
0.211719
0.185928
0.170136
0.154389
0.128688
0.108077
0.092534
0.076991
0.0464932
0.0260634
0.0107014
0.00529413
0.00493213
-0.00040724
-0.000701359
-0.000972854
-0.00122172
-0.00640272
-0.0115837
-0.0117647
-0.0169683
-0.0171493
-0.0173303
-0.0125566
-0.00782805
-0.00312217
0.00156109
-0.00382352
-0.00925338
-0.0146606
-0.0150905
-0.0155882
-0.0161312
-0.0166742
-0.0171946
-0.0227375
-0.0283937
-0.0290498
-0.034638
-0.045181
-0.0507466
-0.046267
-0.0317194
-0.0221493
-0.0225113
-0.0227828
-0.0229185
-0.0229638
-0.0229185
-0.0328507
-0.0328054
-0.0277828
-0.0377828
-0.0477828
-0.0527828
-0.0577828
-0.067828
-0.0828733
-0.0878959
-0.0878959
-0.0978733
-0.107851
-0.112828
-0.127873
-0.138009
-0.153303
-0.158756
-0.164434
-0.175475
-0.181946
-0.188824
-0.190905
-0.193145
-0.195181
-0.19181
-0.177896
-0.168597
-0.16414
-0.154638
-0.140113
-0.13052
-0.120928
-0.111244
-0.106493
-0.0916742
-0.0818099
-0.0769457
-0.0720588
-0.0621719
-0.0572398
-0.0523077
-0.0473303
-0.0373529
-0.0323529
-0.0273303
-0.0272398
-0.0221041
-0.0219004
-0.0215837
-0.0211538
-0.0205203
-0.0196606
-0.0234615
-0.0217873
-0.0246154
-0.0220362
-0.0242986
-0.0216516
-0.0144118
-0.0126923
-0.0164027
-0.0153394
-0.0144118
-0.0135746
-0.00780541
-0.0171493
-0.0166289
-0.0111765
-0.00579184
-0.010543
-0.0153846
-0.0052941
-0.00518098
-4.52325e-05
4.52683e-05
0.000135765
0.000226263
-0.00463799
-0.00450224
-0.0043665
0.000814496
0.00101812
0.00124436
0.00649323
0.01181
0.017172
0.0276245
0.0381448
0.0436652
0.0392082
0.044819
0.0554525
0.0661086
0.0718326
0.0825792
0.0933258
0.109027
0.109729
0.10543
0.101109
0.101697
0.0972398
0.0877828
0.0783484
0.0588914
0.0343665
0.0148416
-0.00475112
-0.0194118
-0.0291176
-0.0238914
-0.0187104
-0.013552
-0.0134841
-0.00848415
-0.0035294
0.0013801
0.00119911
0.00095024
0.00570137
0.00542988
0.00511313
0.00972852
0.0293213
0.0588462
0.0933258
0.137738
0.207104
0.296471
0.400769
0.490023
0.544231
0.578462
0.527715
0.426968
0.31129
0.225679
0.185113
0.154548
0.12905
0.0986199
0.07819
0.042828
0.0225339
0.00726244
-0.00794118
-0.00812218
-0.0133032
-0.0134615
-0.0185747
-0.0236652
-0.023733
-0.0187557
-0.0187557
-0.0237557
-0.028733
-0.0287104
-0.0286878
-0.0286878
-0.0286878
-0.0236878
-0.0186878
-0.0187104
-0.0237783
-0.0288688
-0.0290272
-0.0342534
-0.0395928
-0.035
-0.0304299
-0.0359276
-0.0364253
-0.0319005
-0.0273529
-0.0278281
-0.0282579
-0.0186878
-0.0190724
-0.0193439
-0.0195249
-0.019638
-0.0197285
-0.0297511
-0.0347511
-0.0296833
-0.029638
-0.029638
-0.039638
-0.0446606
-0.0496833
-0.0597285
-0.0697511
-0.0747738
-0.079819
-0.089819
-0.094819
-0.109819
-0.119796
-0.124774
-0.134842
-0.155068
-0.16043
-0.166018
-0.181923
-0.188281
-0.19
-0.187059
-0.194186
-0.196131
-0.197715
-0.188824
-0.18457
-0.180113
-0.170611
-0.156041
-0.141471
-0.141946
-0.127398
-0.112873
-0.103303
-0.0986878
-0.0889819
-0.0792308
-0.0694796
-0.0647059
-0.0598869
-0.0550453
-0.0451584
-0.0452715
-0.050362
-0.0454299
-0.0454977
-0.0405656
-0.0406109
-0.040543
-0.040362
-0.0400226
-0.034457
-0.0385747
-0.0322851
-0.025543
-0.0183937
-0.0209728
-0.0233937
-0.0210633
-0.0291855
-0.0278054
-0.02681
-0.0210181
-0.025362
-0.024819
-0.0143891
-0.0190724
-0.0238914
-0.0238009
-0.0237783
-0.0188462
-0.0138914
-0.0139367
-0.0139593
-0.0140045
-0.0140724
-0.019095
-0.0140724
-0.00904977
-0.00902715
-0.0089819
-0.0038914
0.00122172
0.00138009
0.00160634
0.00190045
0.00726245
0.0126244
0.0180091
0.0283937
0.0438235
0.0642534
0.0797285
0.0902715
0.105837
0.10138
0.0969231
0.0924887
0.0980769
0.0936425
0.0841855
0.0747738
0.0553167
0.0407919
0.0211991
0.0115611
0.00690045
0.0021267
-0.00773756
-0.00264706
0.00739819
0.00737557
0.00721719
0.00701357
0.0117873
0.0115158
0.0111991
0.0158597
0.0104751
0.0150453
0.0196154
0.0241403
0.0335973
0.0579864
0.0873303
0.121584
0.180815
0.260023
0.364186
0.453326
0.537489
0.566674
0.525837
0.44
0.32914
0.248303
0.197489
0.176719
0.151018
0.130362
0.114751
0.0891629
0.0736652
0.0482579
0.0278959
0.0125566
0.0073077
0.0121041
0.00694571
0.00180996
0.00167422
-0.00346153
-0.00357465
-0.00868777
-0.00884615
-0.00907239
-0.009457
-0.00984162
-0.0150452
-0.0100679
-0.0100226
-0.0150226
-0.0150679
-0.0152036
-0.0104299
-0.0107466
-0.0161538
-0.0166063
-0.0120588
-0.0125113
-0.0179864
-0.0184389
-0.0138914
-0.0143665
-0.0148642
-0.0203167
-0.0156109
-0.0208597
-0.0210633
-0.0211991
-0.016267
-0.0212443
-0.0261765
-0.0310633
-0.0309276
-0.0307918
-0.0406787
-0.0456335
-0.045543
-0.0504299
-0.0602715
-0.0701131
-0.0749321
-0.0847511
-0.0995928
-0.109412
-0.119253
-0.119118
-0.129072
-0.134163
-0.144367
-0.149729
-0.165317
-0.176222
-0.177489
-0.179005
-0.180701
-0.182308
-0.183597
-0.179457
-0.174932
-0.175249
-0.165498
-0.150747
-0.135995
-0.126267
-0.121561
-0.106765
-0.0919005
-0.0769909
-0.0669683
-0.0518326
-0.0316968
-0.0265837
-0.0264706
-0.0263348
-0.0261991
-0.0260407
-0.0208597
-0.0207013
-0.0255656
-0.0304072
-0.0252036
-0.0149095
-0.0145023
-0.0139819
-0.0132805
-0.0122851
-0.0159276
-0.0141176
-0.0168778
-0.014276
-0.0115611
-0.00904976
-0.0019457
0.00468325
0.00597284
0.00205882
-0.00196833
0.0038914
0.00966064
0.00533937
0.000904979
-0.00359728
-0.00319004
-0.0028733
-0.0126244
-0.0123756
-0.0120814
-0.0117873
-0.00651584
-0.00122172
0.00404978
0.00434389
0.00966064
0.0300679
0.0655656
0.071086
0.031629
-0.00782805
-0.0222172
-0.0115611
0.0041629
0.0199321
0.0457466
0.0716063
0.0974887
0.103394
0.0993665
0.100407
0.0964253
0.0924208
0.0934163
0.104434
0.10543
0.0963801
0.0722851
0.05819
0.0440498
0.0298643
0.0156561
0.00138009
-0.00298643
-0.0124434
-0.0169457
-0.0164706
-0.0109955
-0.00058824
-0.00524887
-0.00493213
-0.0146833
-0.0145249
-0.0144344
-0.00936652
-0.00436652
-0.00945702
-0.00461539
0.00515836
0.0299321
0.064638
0.0992986
0.148937
0.218552
0.3031
0.392602
0.462127
0.496629
0.471131
0.395679
0.305226
0.214774
0.169321
0.143891
0.123552
0.108281
0.0930543
0.0878733
0.0626923
0.0425566
0.0224661
0.00244344
-0.0124887
-0.0123529
-0.0071267
-0.00687783
-0.00662896
-0.00638009
-0.0111538
-0.0109276
-0.0106787
-0.000429863
-0.000226242
-0.0050905
-0.0149547
-0.0147964
-0.00968325
-0.0145928
-0.0195023
-0.0194118
-0.0143665
-0.0193439
-0.0143665
-0.00943438
-0.00452488
0.000339376
-0.00477375
-0.00984162
-0.0148869
-0.00997737
-0.0100905
-0.0101584
-0.00515837
-0.00513574
-0.00506787
-0.0099095
-0.00966063
-0.00936651
-0.0140724
-0.0187557
-0.0233937
-0.0230317
-0.0276697
-0.0273077
-0.0319683
-0.0416516
-0.0613575
-0.0809502
