ekg
0
0.00166667
-0.004
-0.0221429
-0.0594444
-0.106818
-0.146154
-0.137
-0.0685294
0.0497368
0.207143
0.36
0.4708
0.492037
0.46431
0.385161
0.295152
0.193571
0.0812162
-0.00717948
-0.0860976
-0.120698
-0.145556
-0.145851
-0.141531
-0.127647
-0.104151
-0.0909091
-0.0778947
-0.0801695
-0.0827049
-0.0854762
-0.0834615
-0.0715672
-0.0749275
-0.0735211
-0.0721918
-0.066
-0.0650649
-0.0693671
-0.0637654
-0.063253
-0.0628235
-0.0675287
-0.0673034
-0.067033
-0.0667204
-0.0663684
-0.0660309
-0.0655556
-0.0600495
-0.0595146
-0.0589524
-0.0583645
-0.0577982
-0.0572072
-0.0566372
-0.056087
-0.050641
-0.0502941
-0.0500826
-0.0500407
-0.0452
-0.0455512
-0.0460853
-0.0468702
-0.047782
-0.0438519
-0.0449635
-0.041223
-0.0424468
-0.0437762
-0.0451035
-0.0463946
-0.042651
-0.0388742
-0.0400654
-0.0362581
-0.0323567
-0.0333962
-0.0343478
-0.0351841
-0.0308485
-0.0313174
-0.0316568
-0.0268129
-0.0267919
-0.0266286
-0.0213559
-0.0259497
-0.0254696
-0.0298361
-0.0241622
-0.0284492
-0.0276455
-0.0268325
-0.0259326
-0.0299744
-0.033934
-0.0328895
-0.031791
-0.0306158
-0.034439
-0.0332367
-0.0320096
-0.030782
-0.0345305
-0.0333023
-0.0270276
-0.0307534
-0.0294796
-0.0291629
-0.0288914
-0.0286878
-0.0285294
-0.0233484
-0.0230769
-0.0176018
-0.0167873
-0.0104977
-0.00366516
0.00382353
0.0119004
0.0203846
0.0338914
0.0422172
0.0501357
0.0576244
0.0696154
0.0810633
0.0870814
0.0927149
0.0981448
0.108484
0.108801
0.11414
0.114525
0.125
0.13052
0.126086
0.131629
0.137149
0.142647
0.143167
0.143733
0.144299
0.144864
0.14543
0.146018
0.146606
0.147172
0.14776
0.148371
0.153982
0.149593
0.150204
0.145814
0.146403
0.146991
0.142579
0.14319
0.138801
0.134412
0.130045
0.120679
0.116312
0.106946
0.107579
0.0982353
0.093914
0.0846154
0.0803167
0.0710181
0.0667421
0.0624434
0.0581448
0.0538688
0.0495927
0.0403394
0.041086
0.0368552
0.0276244
0.0233937
0.0241629
0.0199095
0.0206787
0.0164932
0.0123077
0.00814479
0.00898189
0.00979637
0.000610853
0.00142534
-0.00271494
-0.00685521
-0.0109729
-0.0150679
-0.00914028
-0.0182127
-0.0172625
-0.0213349
-0.0254073
-0.0294797
-0.028552
-0.0276244
-0.0316968
-0.0307692
-0.0348643
-0.0339819
-0.0331222
-0.0372851
-0.041448
-0.0356109
-0.034819
-0.0390498
-0.0432806
-0.042534
-0.04181
-0.046086
-0.0453394
-0.0446154
-0.0488914
-0.0481674
-0.0474661
-0.0467647
-0.0510634
-0.0503394
-0.0496154
-0.0488688
-0.0531222
-0.0523529
-0.0565837
-0.0558145
-0.0550452
-0.0542534
-0.0534163
-0.0525792
-0.0567194
-0.0558371
-0.0549095
-0.0539593
-0.053009
-0.0470136
-0.0559955
-0.0549321
-0.0588688
-0.0578054
-0.0567195
-0.0556109
-0.0544796
-0.053371
-0.0522398
-0.051086
-0.0549095
-0.053733
-0.0575565
-0.0564027
-0.0552488
-0.0541176
-0.0529637
-0.0518099
-0.0506561
-0.0545022
-0.0533258
-0.0571493
-0.0559955
-0.0548869
-0.0488009
-0.047715
-0.0466064
-0.050543
-0.044457
-0.0433937
-0.047353
-0.0463349
-0.045362
-0.0444118
-0.0435068
-0.0476018
-0.0467421
-0.050905
-0.0501131
-0.0493665
-0.0486652
-0.0429638
-0.0422625
-0.0465837
-0.0459276
-0.0452942
-0.0447285
-0.0441629
-0.0436199
-0.0431222
-0.0426471
-0.037172
-0.0367195
-0.0412896
-0.0408824
-0.0404978
-0.0351358
-0.0297738
-0.0294118
-0.0290951
-0.0337783
-0.0334842
-0.0382127
-0.0379639
-0.0427376
-0.0424887
-0.0422851
-0.0420815
-0.0419231
-0.0467874
-0.0416743
-0.0466064
-0.0465611
-0.0465611
-0.0415611
-0.0416064
-0.0416743
-0.0367422
-0.0368553
-0.0370363
-0.0322625
-0.0275792
-0.0279639
-0.0233937
-0.0238462
-0.0242987
-0.0247512
-0.0252037
-0.0256335
-0.026086
-0.0215385
-0.0219683
-0.0223303
-0.0226244
-0.0228281
-0.0229638
-0.0230543
-0.0231448
-0.0182353
-0.0133032
-0.00837103
-0.00843889
-0.00848415
-0.00355202
-0.00364252
-0.00375564
-0.00382353
0.0011991
0.00626697
0.00133484
0.00133484
0.00104072
0.000361979
0.00418551
-0.00260181
2.26125e-05
-0.00298644
-0.00631222
-0.00966065
-0.0127376
-0.0154073
-0.0176245
-0.0193213
-0.015543
-0.0163122
-0.0117647
-0.0170588
-0.0172398
-0.0173982
-0.017534
-0.0227602
-0.0180769
-0.0184842
-0.00889141
-0.00929865
-0.00968327
-0.0150679
-0.0104299
-0.0158145
-0.0161991
-0.0166063
-0.0170362
-0.0174661
-0.0179185
-0.0183937
-0.0188462
-0.0193213
-0.0197964
-0.0202941
-0.0158145
-0.0163349
-0.0218778
-0.0273982
-0.0279185
-0.0284615
-0.0290271
-0.0246154
-0.0252262
-0.0258371
-0.0264479
-0.0270588
-0.0276696
-0.0282579
-0.0238461
-0.0244796
-0.0251357
-0.0257918
-0.0264253
-0.0270362
-0.0276697
-0.0283031
-0.0289592
-0.0296153
-0.0303393
-0.0310633
-0.0318099
-0.0325339
-0.0332805
-0.0290271
-0.0297737
-0.0305655
-0.0213348
-0.0171493
-0.0129411
-0.013733
-0.0095022
-0.00529406
-0.00610854
-0.00187779
0.00733036
0.0215385
0.0407466
0.05
0.0542308
0.0585068
0.0577828
0.0520588
0.0513575
0.0456335
0.0448869
0.0441403
0.0384389
0.0227602
0.0020588
-0.0185973
-0.0342534
-0.0449322
-0.0506335
-0.0513123
-0.0619458
-0.0625566
-0.0631222
-0.0686878
-0.0642534
-0.0597964
-0.0603394
-0.0708824
-0.0914254
-0.101946
-0.102443
-0.0829638
-0.0284842
0.0559955
0.160452
0.294887
0.424276
0.563665
0.633032
0.637353
0.576674
0.485973
0.380249
0.26448
0.153688
0.0528733
-0.0179638
-0.0538009
-0.0796607
-0.0855204
-0.0914027
-0.0772851
-0.0582127
-0.0441403
-0.0450905
-0.0459955
-0.0469005
-0.0478281
-0.0538009
-0.0547738
-0.0507692
-0.0467647
-0.0477149
-0.0487104
-0.0447285
-0.0407692
-0.0468326
-0.0478507
-0.0488914
-0.0499095
-0.0459276
-0.0469457
-0.0429412
-0.0439593
-0.0449548
-0.0459502
-0.0419231
-0.0378959
-0.0338009
-0.0347059
-0.0355882
-0.0364253
-0.0372398
-0.0380317
-0.0388235
-0.0345475
-0.0302262
-0.0308597
-0.0314706
-0.0320588
-0.0276018
-0.0280996
-0.0285747
-0.0290045
-0.0194118
-0.0197964
-0.020181
-0.025543
-0.0208597
-0.0211312
-0.0213575
-0.0165611
-0.0167647
-0.0119004
-0.0169909
-0.0170588
-0.0170814
-0.0120362
-0.0069457
-0.0118552
-0.00674208
-0.00658371
-0.00133484
-0.00599547
-0.000588233
-0.00511312
-0.00461539
-0.00411765
-0.00866516
-0.00319005
0.00228507
0.0027828
-0.00171946
-0.00624435
-0.000814481
-0.0104751
-0.0102262
-0.00504525
9.04938e-05
-0.00477376
-0.00963801
-0.00954751
-0.0144344
-0.0143213
-0.0142534
-0.0141629
-0.0140272
-0.0138914
-0.0138009
-0.0138009
-0.0138462
-0.0138688
-0.0137783
-0.0134389
-0.00773757
0.00346153
0.0102715
0.0176471
0.0256335
0.0389593
0.0423529
0.0504525
0.0581674
0.0704072
0.0771041
0.0883032
0.0940498
0.0995023
0.0997964
0.1
0.105158
0.105294
0.110498
0.115814
0.121199
0.121606
0.121991
0.127376
0.13276
0.138122
0.138484
0.138846
0.129253
0.139661
0.145091
0.150543
0.155995
0.146425
0.151855
0.147308
0.147738
0.153213
0.148688
0.149186
0.139706
0.140204
0.135701
0.136222
0.126787
0.127353
0.122919
0.113484
0.109072
0.104638
0.105204
0.0957692
0.0863575
0.0769683
0.0725792
0.0681674
0.0587557
0.0493892
0.0450226
0.0356335
0.0312444
0.0269005
0.0275566
0.0231901
0.0138236
0.00447966
0.000135772
-0.00420812
-0.00355201
-0.00789589
-0.0122172
-0.0115837
-0.0209502
-0.0302941
-0.0346153
-0.0339366
-0.0332579
-0.0325565
-0.0368325
-0.0361085
-0.0403846
-0.0496153
-0.0488687
-0.0480995
-0.0423529
-0.0466515
-0.0509502
-0.0552262
-0.0545022
-0.0538009
-0.0581221
-0.0574434
-0.0568099
-0.056199
-0.0555656
-0.0599321
-0.0592986
-0.0587104
-0.0631221
-0.0625565
-0.0570135
-0.0564705
-0.0609502
-0.0604298
-0.0599094
-0.0593891
-0.0588687
-0.0633484
-0.067828
-0.0673529
-0.0618778
-0.0663801
-0.0658371
-0.0602715
-0.0547058
-0.0591176
-0.0684841
-0.0628733
-0.0672398
-0.0666063
-0.0609276
-0.0602262
-0.0594796
-0.0636877
-0.0628733
-0.0670814
-0.0612896
-0.0604977
-0.0597059
-0.0638914
-0.0630543
-0.0671946
-0.0613122
-0.0604525
-0.0595701
-0.0586878
-0.0577828
-0.0518778
-0.0559729
-0.0551131
-0.0591855
-0.0582353
-0.0522851
-0.0513349
-0.0504299
-0.0545023
-0.0485973
-0.0526923
-0.0517421
-0.0508145
-0.0548869
-0.0490272
-0.0481901
-0.0473756
-0.0515838
-0.0458145
-0.0450679
-0.0443439
-0.0486652
-0.0430091
-0.0423982
-0.0418326
-0.0413122
-0.0408598
-0.0404525
-0.0350905
-0.0347738
-0.0395023
-0.0393213
-0.0341856
-0.0341629
-0.0342308
-0.0343666
-0.0295475
-0.0347964
-0.0351132
-0.0355204
-0.0359729
-0.031448
-0.0319231
-0.0324208
-0.0279412
-0.0284163
-0.0339141
-0.0344118
-0.0298643
-0.0352263
-0.035543
-0.0408145
-0.036086
-0.0413349
-0.0465837
-0.0468779
-0.052172
-0.0474661
-0.0427376
-0.0380091
-0.0383032
-0.0385747
-0.0387783
-0.0389367
-0.0341403
-0.0344796
-0.0300452
-0.0310181
-0.0275339
-0.0347059
-0.032466
-0.035724
-0.0392081
-0.037647
-0.0407466
-0.0384389
-0.0407013
-0.0424208
-0.0436199
-0.0443891
-0.0448869
-0.0452262
-0.0355203
-0.0357918
-0.0360633
-0.0364253
-0.0368778
-0.0323755
-0.0328733
-0.033371
-0.028914
-0.0294344
-0.0249773
-0.0254977
-0.026018
-0.0265384
-0.0320588
-0.0326017
-0.0281674
-0.0287782
-0.0243438
-0.0249321
-0.0255203
-0.0261538
-0.0267873
-0.0324434
-0.0280995
-0.0287556
-0.0244344
-0.0250905
-0.0257466
-0.0263801
-0.0270362
-0.0327149
-0.0334389
-0.0291855
-0.0249321
-0.0256788
-0.0264254
-0.0272172
-0.0280091
-0.0338236
-0.0346607
-0.0355204
-0.0314254
-0.0273077
-0.0281901
-0.0240724
-0.03
-0.025905
-0.0268326
-0.0277602
-0.0287331
-0.0247059
-0.0156788
-0.0166742
-0.0126697
-0.0136878
-0.00970592
-0.00572402
-0.00674213
0.00219452
0.0061538
0.0201131
0.0340271
0.0429411
0.0518552
0.0607918
0.0647058
0.0736199
0.0775113
0.07638
0.0752941
0.0741855
0.0730995
0.0620362
0.0559728
0.0448642
0.028733
0.00762439
-0.00350683
-0.0146154
-0.0207693
-0.0268779
-0.0330091
-0.0341629
-0.0353394
-0.0365385
-0.0376923
-0.0438235
-0.0449095
-0.0559955
-0.0720588
-0.0831448
-0.0792534
-0.0503394
-0.00144797
0.0874661
0.206357
0.345271
0.47414
0.582986
0.62681
0.615611
0.544412
0.45319
0.351968
0.230701
0.114434
0.0181222
-0.0432353
-0.0846154
-0.100995
-0.10733
-0.10371
-0.0900679
-0.071448
-0.0578281
-0.0542081
-0.0605656
-0.0619457
-0.0633032
-0.0646606
-0.0710407
-0.0673982
-0.0687783
-0.0701584
-0.0715611
-0.0679864
-0.0643891
-0.0708145
-0.0671719
-0.068552
-0.0649095
-0.066267
-0.0676244
-0.0640045
-0.0653394
-0.0616516
-0.0679412
-0.0692081
-0.0704525
-0.0716742
-0.0678959
-0.064095
-0.0602941
-0.0564706
-0.0575566
-0.0586199
-0.0546607
-0.0506561
-0.0516064
-0.0475566
-0.0435068
-0.0393891
-0.0402263
-0.0409955
-0.0417421
-0.0374208
-0.0380995
-0.033733
-0.0343439
-0.0299321
-0.0254751
-0.0259729
-0.0213801
-0.0217873
-0.0171267
-0.0174434
-0.0127376
-0.0129864
-0.00819007
-0.0133258
-0.0084163
0.0015837
0.00165157
0.00176469
0.00194568
0.00217193
0.00244343
0.00778278
0.0131674
0.00852939
0.013914
0.00929862
0.00970586
0.0100679
0.0154072
0.020724
0.0209955
0.0211765
0.0163122
0.0214253
0.0165385
0.016629
0.0167194
0.0218326
0.0219457
0.0170588
0.0171946
0.0123303
0.012466
0.00755654
0.0126018
0.0176018
0.0176244
0.0228507
0.0233484
0.0292534
0.0306787
0.0377375
0.0503846
0.0585068
0.0668552
0.0751358
0.0830995
0.0906561
0.10276
0.104321
0.115362
0.125973
0.13129
0.131448
0.131538
0.141584
0.136674
0.141855
0.142127
0.147443
0.142805
0.148145
0.148507
0.148869
0.159231
0.154593
0.159955
0.160339
0.160701
0.166086
0.166516
0.171946
0.162353
0.167783
0.163213
0.163665
0.164118
0.16457
0.160068
0.155588
0.156109
0.151629
0.147149
0.142692
0.143235
0.133801
0.134389
0.135
0.120656
0.116312
0.112014
0.102715
0.0934389
0.0891629
0.0899095
0.0757013
0.0715158
0.0623303
0.0581448
0.0489593
0.0447964
0.0406335
0.0364932
0.032353
0.0232353
0.0191403
0.0100679
0.0110181
0.00194571
-0.00210406
-0.00115384
-0.00518098
-0.0141855
-0.0181674
-0.0221719
-0.0261312
-0.0250226
-0.023914
-0.0278054
-0.0266742
-0.0304977
-0.0343213
-0.0381222
-0.0319004
-0.0356787
-0.0344344
-0.0382353
-0.0370362
-0.0358371
-0.0395927
-0.0433258
-0.0420588
-0.0407918
-0.0445475
-0.0483031
-0.0470814
-0.0508597
-0.054638
-0.0533936
-0.0521493
-0.0559049
-0.0596832
-0.0584615
-0.0572398
-0.0610407
-0.0597964
-0.058552
-0.0723077
-0.0810407
-0.0797511
-0.0734615
-0.0721719
-0.0708371
-0.0644796
-0.0680769
-0.0616742
-0.0602489
-0.0587783
-0.0572851
-0.0557466
-0.0542307
-0.052647
-0.0460407
-0.0493891
-0.0477375
-0.041086
-0.0443891
-0.0477149
-0.0460181
-0.0393212
-0.0426244
-0.0409502
-0.0442534
-0.0425565
-0.0408597
-0.0441402
-0.0374434
-0.040724
-0.0340045
-0.0372851
-0.040543
-0.0338009
-0.0320362
-0.0303167
-0.0285746
-0.0268778
-0.0252036
-0.0235293
-0.0268551
-0.0302035
-0.0235746
-0.0269456
-0.0253393
-0.0288008
-0.0272624
-0.0257239
-0.0242533
-0.0227601
-0.0262895
-0.0248868
-0.0335067
-0.0271493
-0.0258597
-0.0246153
-0.0233936
-0.0271719
-0.0260181
-0.0248868
-0.0238009
-0.0227601
-0.0217647
-0.0208144
-0.0198869
-0.0189819
-0.0180995
-0.0172624
-0.0214479
-0.0206787
-0.0149321
-0.0142308
-0.013552
-0.0128959
-0.0172398
-0.0166742
-0.016086
-0.0205204
-0.0249774
-0.0244344
-0.0238914
-0.028371
-0.0378507
-0.0373529
-0.0368778
-0.0364253
-0.0409502
-0.0405204
-0.0350905
-0.0346832
-0.034276
-0.0388914
-0.0385068
-0.0381448
-0.0378054
-0.037466
-0.0321267
-0.0318099
-0.0314706
-0.0311538
-0.0308597
-0.0305656
-0.0352715
-0.03
-0.0347737
-0.0345248
-0.034276
-0.0390497
-0.0338235
-0.0335972
-0.0334162
-0.0382805
-0.0331674
-0.0330542
-0.0379411
-0.032828
-0.0376696
-0.0325339
-0.0323529
-0.0371945
-0.0370588
-0.036923
-0.0317872
-0.0366515
-0.0315157
-0.0363574
-0.0362216
-0.0360859
-0.0359275
-0.0358144
-0.0357465
-0.035656
-0.0305429
-0.030475
-0.0304071
-0.0303392
-0.030294
-0.0252487
-0.0252487
-0.0252714
-0.0253392
-0.0254297
-0.0255881
-0.0257917
-0.0259501
-0.0261311
-0.0263347
-0.0215384
-0.0167646
-0.0170361
-0.0173755
-0.0178053
-0.0183257
-0.0188461
-0.0194569
-0.0100678
-0.0157239
-0.01638
-0.0120361
-0.0176922
-0.0133483
-0.0140271
-0.0146832
-0.0153393
-0.0109049
-0.0114027
-0.0118325
-0.0122171
-0.0125791
-0.0129185
-0.0132352
-0.00857462
-0.0089366
-0.00427598
-0.00461535
-0.00495471
-0.00529408
-0.0055882
-0.00585967
-0.00608592
-0.0012669
-0.00147051
-0.00185513
0.00242089
-0.00380082
0.0043666
-0.00809946
-0.0111538
-0.0147284
-0.0184614
-0.0220361
-0.0251809
-0.0278732
-0.0300904
-0.0318099
-0.0330768
-0.0339818
-0.0296832
-0.0302488
-0.0307013
-0.0311311
-0.0266289
-0.0322397
-0.0329185
-0.0286424
-0.0293664
-0.0350904
-0.0357692
-0.0414253
-0.042104
-0.0427827
-0.0434841
-0.0441855
-0.0449321
-0.0406787
-0.0464479
-0.0472171
-0.0479864
-0.0487782
-0.0495475
-0.0553167
-0.0561085
-0.0519456
-0.0477601
-0.0485746
-0.0494117
-0.0552036
-0.056018
-0.0618099
-0.0576244
-0.0534841
-0.0543665
-0.0552715
-0.0561312
-0.0570136
-0.0578733
-0.0587783
-0.0596833
-0.0605883
-0.0565159
-0.0524435
-0.0583711
-0.0593213
-0.0552715
-0.0562217
-0.062172
-0.0581222
-0.0591176
-0.0550905
-0.0460634
-0.0420362
-0.0330317
-0.0240271
-0.0200453
-0.026086
-0.0221267
-0.01819
-0.0192534
-0.0152941
-0.00633484
0.00762444
0.0215837
0.035543
0.0394796
0.0534163
0.0523303
0.0563122
0.0552941
0.054276
0.0532806
0.0522398
0.0512217
0.0452036
0.0341855
0.01819
0.00223981
-0.013733
-0.0247285
-0.0357014
-0.0416742
-0.0476244
-0.0435973
-0.0395249
-0.0454525
-0.0463575
-0.0472398
-0.0481222
-0.0590045
-0.0649095
-0.0808371
-0.0917647
-0.0826697
-0.0435973
0.0304751
0.13957
0.26862
0.407715
0.53672
0.645701
0.674661
0.63862
0.542534
0.436425
0.320317
0.209186
0.108009
0.0268099
-0.0243892
-0.0555882
-0.0767874
-0.0830091
-0.0692082
-0.0504073
-0.0366516
-0.0278959
-0.0291403
-0.0303846
-0.0366742
-0.0429638
-0.039276
-0.0405656
-0.0368552
-0.0381901
-0.0345023
-0.0308371
-0.0321267
-0.0334389
-0.0347285
-0.0360181
-0.0373077
-0.0385747
-0.0348869
-0.0311765
-0.0324434
-0.0336651
-0.0348869
-0.0411312
-0.0423756
-0.0436199
-0.0398869
-0.0361086
-0.0322624
-0.0284163
-0.0345249
-0.0356108
-0.0366742
-0.0326923
-0.0336878
-0.034638
-0.0305656
-0.0314027
-0.0321945
-0.0279864
-0.023733
-0.0244344
-0.0251131
-0.0258144
-0.0164706
-0.017104
-0.0177149
-0.0182353
-0.0137104
-0.014095
-0.00941174
-0.00470586
-0.0050226
-0.000294104
-0.000520341
-0.000723965
0.00409505
0.00398193
0.00395931
0.00402717
0.00918555
0.00936654
0.014638
0.00993216
0.0052489
0.00556564
0.005905
0.0112444
0.0115837
0.0119231
0.0122625
0.00755659
0.00278284
0.00796384
0.013077
0.00816745
0.00823533
0.00328057
0.00832582
0.00339369
0.00348419
0.00357468
-0.0013122
-0.00115383
-0.000995472
0.00409503
0.00916291
0.00918553
0.00916291
0.0141855
0.0143892
0.0149321
0.0209955
0.0226471
0.0349322
0.0428055
0.0511765
0.0547059
0.0680543
0.0759955
0.0784842
0.0854525
0.0969231
0.102941
0.103597
0.109027
0.109344
0.11457
0.109796
0.115091
0.120475
0.120928
0.126425
0.126946
0.132443
0.132941
0.133416
0.128914
0.129412
0.139932
0.135453
0.140973
0.136538
0.137127
0.132715
0.133303
0.133891
0.12948
0.135045
0.130679
0.131335
0.126991
0.127647
0.133303
0.128959
0.129593
0.130226
0.125882
0.116561
0.117262
0.108009
0.103733
0.0994797
0.0902037
0.0859729
0.0767421
0.0725113
0.0582806
0.0540498
0.049819
0.0406109
0.0364254
0.0322399
0.0330543
0.0288688
0.0247285
0.0255883
0.0164254
0.0122851
0.00316746
-0.000972812
-9.04598e-05
0.000814519
-0.00330313
-0.00739815
-0.0114932
-0.0105882
-0.0146606
-0.0187556
-0.0228507
-0.0269004
-0.0259276
-0.0299547
-0.0339593
-0.0329638
-0.0319909
-0.0360181
-0.0350452
-0.0340498
-0.0330543
-0.0370815
-0.0361086
-0.0351584
-0.0392308
-0.0382805
-0.0423529
-0.046448
-0.0455656
-0.0496833
-0.0488009
-0.0479186
-0.0520588
-0.0561991
-0.065362
-0.0645475
-0.058733
-0.0578959
-0.0620362
-0.0611991
-0.060362
-0.0595249
-0.0587104
-0.0628959
-0.0620815
-0.0612443
-0.060362
-0.059457
-0.0635294
-0.0576018
-0.061629
-0.0656561
-0.0646833
-0.0636878
-0.0626471
-0.0616063
-0.060543
-0.064457
-0.063371
-0.0672851
-0.0662217
-0.0651131
-0.0639819
-0.0628507
-0.0667194
-0.0605656
-0.0643891
-0.0632126
-0.0620362
-0.0608823
-0.0597285
-0.058552
-0.0523981
-0.0562443
-0.0600905
-0.0589592
-0.0578506
-0.056742
-0.0556334
-0.0495475
-0.0584389
-0.0573303
-0.0562217
-0.0551584
-0.054095
-0.0580091
-0.0519457
-0.0508824
-0.049819
-0.0488009
-0.0478055
-0.05181
-0.0508598
-0.0549548
-0.0490725
-0.0532127
-0.0523983
-0.0516064
-0.0458598
-0.0451811
-0.0445476
-0.0439367
-0.0433937
-0.0428734
-0.042353
-0.0418552
-0.0413801
-0.0409276
-0.0354752
-0.0400905
-0.0397286
-0.0343892
-0.0340951
-0.0337783
-0.0284842
-0.0281901
-0.0279186
-0.0276924
-0.0274887
-0.0223077
-0.0221267
-0.0319684
-0.0318326
-0.0316969
-0.0315838
-0.0365159
-0.0364706
-0.0364254
-0.0364254
-0.0364254
-0.0364706
-0.0315385
-0.0316516
-0.0317648
-0.0319005
-0.0320815
-0.0222625
-0.0225114
-0.0178281
-0.0231901
-0.0186426
-0.0241629
-0.0197285
-0.0203394
-0.0209729
-0.0166742
-0.0173756
-0.0180317
-0.0186878
-0.0143213
-0.0149322
-0.0104978
-0.00599549
-0.00640274
-0.00174211
-0.00703622
-0.00728508
-0.00751133
-0.00771494
-0.00794119
-0.0081448
-0.00337106
-0.00361992
-0.00386878
-0.00414027
0.000633486
-0.00450226
-0.00457013
-0.00463801
0.000248887
-9.04873e-05
-0.00576922
-0.00694568
-0.00871038
-0.00615381
-0.0143891
-0.0180995
-0.022104
-0.0259502
-0.029457
-0.0325113
-0.03
-0.0319004
-0.0282126
-0.0341402
-0.029819
-0.030362
-0.0307918
-0.0311764
-0.0315837
-0.0320588
-0.0376697
-0.0383032
-0.0339819
-0.034638
-0.0352715
-0.0359276
-0.0365385
-0.0371493
-0.0327602
-0.0383937
-0.0390498
-0.0397285
-0.0354072
-0.0361086
-0.0417873
-0.0374887
-0.0432127
-0.0389367
-0.0396607
-0.0353846
-0.0361312
-0.0318779
-0.0326018
-0.0383258
-0.0340724
-0.0348417
-0.0356109
-0.0364028
-0.0321946
-0.0330317
-0.0388688
-0.0346833
-0.040543
-0.0363575
-0.042172
-0.0429865
-0.0388236
-0.0346607
-0.0355204
-0.0413575
-0.0421946
-0.0430996
-0.0440046
-0.0449322
-0.0408824
-0.0368779
-0.0378734
-0.0338688
-0.0349095
-0.0259503
-0.021991
-0.0180091
-0.0190724
-0.0151358
-0.0112217
-0.0123303
-0.00337105
0.00554299
0.0144796
0.0283937
0.0423303
0.0512217
0.0551131
0.0540272
0.0579412
0.0568552
0.0507692
0.0497059
0.0386425
0.0326018
0.0215385
0.00549774
-0.0154977
-0.0364932
-0.0474887
-0.0585068
-0.0645249
-0.070543
-0.0715837
-0.0726018
-0.0735973
-0.0745701
-0.0755204
-0.0714932
-0.0824887
-0.103439
-0.119412
-0.125385
-0.116357
-0.0723303
0.00167422
0.110633
0.239593
0.388507
0.557421
0.66629
0.725136
0.688937
0.612692
0.511403
0.385091
0.253778
0.127421
0.0360634
-0.025362
-0.0567647
-0.08319
-0.0946606
-0.0911312
-0.0726244
-0.054095
-0.0506108
-0.0421267
-0.0486425
-0.055181
-0.0566968
-0.0632353
-0.0647511
-0.066267
-0.0627375
-0.059276
-0.0607918
-0.0623077
-0.0637783
-0.0652262
-0.0666742
-0.0630995
-0.0645701
-0.0610181
-0.0624887
-0.058914
-0.0603168
-0.0666968
-0.0680317
-0.0643891
-0.0606788
-0.0619683
-0.0582353
-0.0544797
-0.0506561
-0.05181
-0.0529638
-0.0440724
-0.055181
-0.0512444
-0.0522851
-0.0483032
-0.049276
-0.045181
-0.0460634
-0.0469231
-0.0427376
-0.0435294
-0.039276
-0.035
-0.0306787
-0.0313122
-0.0319005
-0.0224208
-0.0229186
-0.0233258
-0.0236878
-0.0140272
-0.0143439
-0.00959277
-0.00479638
-0.01
-0.00011313
-0.000180997
-0.000180997
-0.00011313
0.00504526
0.0102715
0.00552037
0.00579186
0.011086
0.0114027
0.00671945
0.00705882
0.00735294
0.0126244
0.0128733
0.0080543
0.00816742
0.01319
0.01319
0.0131674
0.0131222
0.0180543
0.0129864
0.00794119
0.00789595
0.0028507
0.00780544
0.0127828
0.00771496
0.00753395
0.0072851
0.0070136
0.01181
0.01681
0.022172
0.0230317
0.0344797
0.0416064
0.0495023
0.0579186
0.0716063
0.0851358
0.0983485
0.106131
0.113348
0.124977
0.131063
0.141742
0.142149
0.147421
0.157602
0.157738
0.162919
0.158213
0.163575
0.163982
0.169457
0.17491
0.170339
0.175769
0.171177
0.171584
0.166991
0.177444
0.172919
0.173416
0.168914
0.164412
0.159932
0.160475
0.166063
0.166697
0.172376
0.168032
0.163688
0.164367
0.155023
0.155679
0.146358
0.147059
0.14276
0.138484
0.129276
0.125091
0.120928
0.116765
0.11267
0.108529
0.0994118
0.0952942
0.0911765
0.0820815
0.0780317
0.0689819
0.0599322
0.055905
0.0468779
0.0428734
0.0388915
0.0349548
0.0260182
0.0170815
0.0131901
0.00429869
0.000384659
0.00149325
-0.0023529
-0.011199
-0.015
-0.0137783
-0.0225792
-0.0213122
-0.025
-0.0236651
-0.0273303
-0.0309502
-0.0295475
-0.0331448
-0.031742
-0.0352941
-0.0388461
-0.0423982
-0.0409502
-0.0395249
-0.0430543
-0.0415837
-0.0451583
-0.043733
-0.0472624
-0.0507918
-0.0493439
-0.0478959
-0.0464479
-0.05
-0.0485746
-0.0471267
-0.0457239
-0.0442986
-0.0428506
-0.0364253
-0.035
-0.0335973
-0.0371719
-0.0357466
-0.0392986
-0.0378507
-0.0363801
-0.0348869
-0.033371
-0.0368552
-0.0352941
-0.0336878
-0.0370362
-0.0403167
-0.0385747
-0.0368326
-0.0400679
-0.0382579
-0.0364027
-0.0345701
-0.0377149
-0.0358145
-0.038914
-0.0419909
-0.0350905
-0.03819
-0.0412896
-0.0393665
-0.0374208
-0.0354977
-0.033552
-0.0316289
-0.0297058
-0.0328054
-0.0308597
-0.0339592
-0.0320362
-0.0301583
-0.0332805
-0.0364706
-0.039638
-0.0477828
-0.0509276
-0.0440498
-0.0371946
-0.040362
-0.0385521
-0.0367647
-0.0349548
-0.0331901
-0.0314254
-0.0297059
-0.0380091
-0.0363575
-0.0397059
-0.038077
-0.0414707
-0.039887
-0.0383485
-0.0368779
-0.0304299
-0.0340046
-0.0376245
-0.0362444
-0.0349095
-0.0335973
-0.0323304
-0.0311087
-0.0299322
-0.0337557
-0.0325793
-0.0314706
-0.0303847
-0.029344
-0.0233485
-0.0273756
-0.0264254
-0.0254752
-0.0295928
-0.0287105
-0.0278507
-0.0320136
-0.0411765
-0.0453621
-0.0445476
-0.0487557
-0.0479639
-0.0521946
-0.051448
-0.0557014
-0.0549774
-0.0592761
-0.0585747
-0.0528734
-0.057172
-0.0564933
-0.0508146
-0.0501358
-0.0544571
-0.053801
-0.0481901
-0.0476019
-0.0420137
-0.0464254
-0.0458372
-0.0502716
-0.0446834
-0.0440951
-0.0434843
-0.042896
-0.0423078
-0.0367422
-0.0411766
-0.0356336
-0.0351132
-0.0295928
-0.0340499
-0.0285295
-0.0280091
-0.0224888
-0.026991
-0.0265159
-0.0260408
-0.0305883
-0.0301584
-0.0247286
-0.0192987
-0.0238914
-0.0235068
-0.0181222
-0.0177829
-0.0174887
-0.0171946
-0.0169458
-0.0167421
-0.0115385
-0.0113802
-0.0112444
-0.0111087
-0.0110408
-0.0110408
-0.0111087
-0.0112444
-0.0114706
-0.0117648
-0.00705889
-0.0123757
-0.00769238
-0.0130091
-0.00334848
-0.00871049
-0.00907248
-0.00945708
-0.00979646
-0.0100453
-0.0102037
-0.00531681
-0.010362
-0.0153847
-0.0153847
-0.0153621
-0.0103394
-0.0103168
-0.010362
-0.0154073
-0.0154525
-0.0154977
-0.015543
-0.0105203
-0.00545248
-0.00533937
-0.00524887
-0.00538459
-0.0109502
-0.0120135
-0.018733
-0.0161312
-0.0192533
-0.0177601
-0.0264252
-0.0348868
-0.0329411
-0.0404976
-0.037466
-0.0388687
-0.0397284
-0.035294
-0.0406334
-0.0358144
-0.0409728
-0.0361311
-0.0413574
-0.0416967
-0.0421719
-0.0426922
-0.0432126
-0.0487782
-0.0443212
-0.0449094
-0.0454977
-0.0461085
-0.0467194
-0.0523755
-0.0530316
-0.0536651
-0.0543439
-0.0550226
-0.0607013
-0.0613801
-0.0620814
-0.0578054
-0.0535068
-0.0542081
-0.0548868
-0.0605882
-0.0562895
-0.0620135
-0.0627149
-0.0684389
-0.0641855
-0.0599547
-0.0557239
-0.0564705
-0.0572397
-0.053009
-0.0588008
-0.0645474
-0.0603167
-0.0610859
-0.0618551
-0.0626017
-0.058371
-0.0591628
-0.0599773
-0.0608144
-0.0616515
-0.0624886
-0.0633031
-0.0591402
-0.0599773
-0.0508144
-0.0466741
-0.0475112
-0.043371
-0.0392533
-0.0351583
-0.0310407
-0.031923
-0.0328506
-0.0187782
-0.00470585
0.00936654
0.0234163
0.0424661
0.0514932
0.0505204
0.0495928
0.0486426
0.0477149
0.0467421
0.0458145
0.0398643
0.033914
0.0179638
0.00203622
-0.0138914
-0.0297964
-0.0456787
-0.0515837
-0.0575339
-0.0635068
-0.0644796
-0.0654072
-0.0613348
-0.062285
-0.0682353
-0.0691855
-0.0751583
-0.0911312
-0.102081
-0.113009
-0.103959
-0.0599095
0.0291403
0.138167
0.282149
0.431063
0.589977
0.673869
0.70776
0.656606
0.565385
0.454163
0.322896
0.196629
0.0802941
0.00891405
-0.042466
-0.0788914
-0.0903167
-0.0918099
-0.0782579
-0.0597737
-0.0413122
-0.0378733
-0.0394344
-0.0359955
-0.0426018
-0.0391629
-0.0407466
-0.0423303
-0.0439367
-0.0405204
-0.0421267
-0.0437104
-0.0402941
-0.0419005
-0.0384842
-0.0400905
-0.0416742
-0.0382579
-0.0397738
-0.0412443
-0.0427149
-0.0441629
-0.0456109
-0.0469909
-0.048371
-0.0447285
-0.041086
-0.0373982
-0.0386425
-0.0398416
-0.0410181
-0.0371719
-0.0332805
-0.0393892
-0.0404978
-0.0365611
-0.0376018
-0.0385973
-0.0395701
-0.0354751
-0.0313348
-0.0321719
-0.0330091
-0.0288009
-0.0295475
-0.0302715
-0.0309729
-0.0266516
-0.0222398
-0.0278054
-0.0233484
-0.0188462
-0.0142986
-0.0146833
-0.0150226
-0.00536199
-0.00567872
-0.00590497
-0.00606334
-0.00113121
-0.00110859
0.00402716
0.00420816
-0.000588223
-0.000361983
-0.000135738
0.00511313
0.00533937
0.00558824
0.00581449
0.00604073
0.0011991
0.00128959
-0.00364253
-0.00364253
-0.00368778
0.00124435
0.00615385
0.00606335
0.000950228
0.000882354
0.00585973
0.000859726
0.000837099
0.00581448
0.00576923
0.00567873
0.00554299
0.010362
0.0102262
0.0103167
0.0108145
0.02181
0.0334615
0.0408145
0.0488914
0.0573756
0.0660181
0.0794344
0.0874661
0.0949774
0.1019
0.118235
0.129072
0.134615
0.139932
0.145091
0.155204
0.150317
0.160475
0.165769
0.171176
0.171606
0.172036
0.177489
0.172919
0.178371
0.178824
0.184276
0.179751
0.180249
0.175747
0.176244
0.181765
0.177285
0.177805
0.173348
0.173891
0.164457
0.160045
0.160611
0.156199
0.15181
0.142443
0.138077
0.133733
0.129412
0.125091
0.115792
0.111516
0.10724
0.102964
0.0987104
0.0944797
0.0902263
0.0859502
0.0816742
0.0723982
0.0681448
0.0588914
0.0496606
0.0454525
0.0462444
0.0370362
0.0278281
0.0236425
0.024457
0.0202715
0.0111086
0.0119457
0.00776019
0.00357467
-0.000565605
-0.00968325
-0.0138235
-0.0129412
-0.0170136
-0.021086
-0.0201584
-0.0242081
-0.0282353
-0.0322398
-0.0312217
-0.0352036
-0.0392081
-0.0382353
-0.0422624
-0.0362896
-0.0402941
-0.0392986
-0.0433258
-0.0423529
-0.0414253
-0.0504977
-0.0496154
-0.053733
-0.0528507
-0.0519683
-0.0560633
-0.0501583
-0.059276
-0.0633936
-0.0675113
-0.0666516
-0.0657918
-0.0649321
-0.0690724
-0.0682127
-0.0673529
-0.0664706
-0.0706109
-0.0697511
-0.068914
-0.0680317
-0.0721267
-0.0711991
-0.0752489
-0.074276
-0.0732805
-0.0772624
-0.0712217
-0.0701584
-0.0640724
-0.0679412
-0.0717647
-0.070543
-0.0693213
-0.0680769
-0.0667873
-0.060543
-0.0692308
-0.0729186
-0.0715837
-0.0702489
-0.0688914
-0.0675339
-0.0661991
-0.0648416
-0.0634841
-0.0671266
-0.0657692
-0.0644117
-0.0630995
-0.0617872
-0.0604524
-0.0541628
-0.0578732
-0.0565836
-0.055294
-0.0590497
-0.052828
-0.0566063
-0.0604072
-0.0642307
-0.0630995
-0.0669909
-0.0659049
-0.0598416
-0.0588008
-0.0628054
-0.0618325
-0.0609049
-0.0599999
-0.0591176
-0.0582578
-0.0524208
-0.0465837
-0.0457692
-0.0500226
-0.0493212
-0.0486425
-0.048009
-0.0473981
-0.0467873
-0.0412217
-0.0457013
-0.0452036
-0.0447058
-0.0442533
-0.0388461
-0.0384389
-0.0330542
-0.0377149
-0.0373755
-0.0320814
-0.0368099
-0.0365384
-0.0363122
-0.0361312
-0.0409728
-0.0408823
-0.045837
-0.0458144
-0.0458144
-0.0458596
-0.0409501
-0.0410633
-0.0362669
-0.0415384
-0.0418777
-0.0372624
-0.0376696
-0.0330994
-0.0335519
-0.0290497
-0.0295248
-0.0299999
-0.025475
-0.0259501
-0.0264026
-0.0267872
-0.0271266
-0.0223981
-0.0226243
-0.0228279
-0.0179863
-0.0181221
-0.0182578
-0.0183935
-0.0185293
-0.0136651
-0.0138234
-0.00895916
-0.00909491
-0.00420804
-0.0042533
-0.00423066
-0.00423066
-0.00434379
0.000294209
-0.000452399
-0.00171937
-0.00357458
-0.00106325
-0.00423068
-0.012828
-0.0116063
-0.0151583
-0.0182805
-0.0159049
-0.0229185
-0.0194343
-0.0204524
-0.0211312
-0.0266063
-0.0219456
-0.0222171
-0.0224886
-0.0227827
-0.01819
-0.0236877
-0.0242307
-0.0197737
-0.0203166
-0.020837
-0.0163574
-0.0168551
-0.0223755
-0.0228959
-0.0234163
-0.0239819
-0.0245475
-0.0251357
-0.0257466
-0.0263801
-0.0270362
-0.0277375
-0.0284163
-0.029095
-0.0297737
-0.0305203
-0.0262669
-0.0270135
-0.0278054
-0.0285746
-0.0293439
-0.0350679
-0.0357918
-0.0315384
-0.0273303
-0.0331222
-0.033914
-0.0347059
-0.0354977
-0.0362896
-0.0370815
-0.0378959
-0.038733
-0.0345701
-0.0354299
-0.036267
-0.0371267
-0.0329638
-0.0388462
-0.0397512
-0.0406788
-0.0416969
-0.0376923
-0.0337104
-0.0297059
-0.0207466
-0.0167874
-0.0178733
-0.0139819
-0.0100905
-0.00622176
-0.00230774
0.0116063
0.0305429
0.0394343
0.0483258
0.0472172
0.0511086
0.0550226
0.0539366
0.0478733
0.0417873
0.0407013
0.039638
0.028552
0.017466
-0.00361994
-0.0246833
-0.0407466
-0.0467874
-0.0578281
-0.0638462
-0.0698643
-0.0708824
-0.0719005
-0.0728959
-0.0738914
-0.0799095
-0.0808824
-0.0868552
-0.107805
-0.123756
-0.124706
-0.100679
-0.0466516
0.0323756
0.15138
0.280385
0.424367
0.568326
0.657263
0.696131
0.645
0.548824
0.437624
0.306425
0.185181
0.068914
-0.00735295
-0.0536652
-0.0850453
-0.101403
-0.102783
-0.0991403
-0.075543
-0.0619231
-0.0533258
-0.0547285
-0.0561086
-0.0625113
-0.0638914
-0.0652941
-0.0666742
-0.0680996
-0.0695023
-0.0659276
-0.062353
-0.0637557
-0.0651358
-0.0664932
-0.0628733
-0.0592082
-0.065543
-0.0618778
-0.0631901
-0.0544796
-0.055724
-0.0569231
-0.0480996
-0.054276
-0.0554072
-0.0615158
-0.0576244
-0.0537104
-0.0497511
-0.050724
-0.0517195
-0.0526697
-0.0535973
-0.0544796
-0.050362
-0.0512217
-0.0470588
-0.0478733
-0.0436425
-0.0443891
-0.0400905
-0.0407692
-0.0364253
-0.0321041
-0.0227602
-0.00837104
-0.0139819
-0.00952489
-0.0150226
-0.0104751
-0.0108597
-0.00619909
-0.00153845
-0.00183257
0.00289594
-0.0023303
-0.00251129
-0.00260179
0.00239822
0.00244346
0.00755658
0.0076697
0.00780544
0.00800906
0.00821269
0.0133937
0.0135747
0.0137557
0.0189367
0.0190724
0.0192082
0.0142534
0.0192082
0.0141177
0.0140046
0.0138688
0.0136878
0.0135068
0.0133258
0.00816746
0.0130317
0.017896
0.0127602
0.0126245
0.0124661
0.0121946
0.0118779
0.0165611
0.0163801
0.021448
0.0268779
0.0278733
0.0344344
0.0466742
0.0545702
0.0678733
0.0763801
0.0896606
0.0975339
0.10491
0.111697
0.122941
0.123688
0.134095
0.144299
0.144367
0.149389
0.144412
0.15448
0.154638
0.154864
0.155113
0.155385
0.160656
0.155905
0.166176
0.161448
0.166719
0.161991
0.167262
0.167557
0.162873
0.158213
0.153575
0.158937
0.149321
0.149729
0.150113
0.14552
0.14095
0.131425
0.1269
0.122398
0.122941
0.113462
0.108982
0.104457
0.0999547
0.0954977
0.0860634
0.086629
0.0772172
0.0728281
0.0634389
0.0640498
0.0597059
0.055362
0.0510407
0.0467195
0.0424208
0.0331448
0.0288462
0.0295701
0.0303167
0.026086
0.0169005
0.0177828
0.00864254
0.00452489
0.000384621
-0.00375565
-0.00789592
-0.00701357
-0.0111086
-0.010181
-0.0142308
-0.0183032
-0.0223529
-0.0214027
-0.0204299
-0.024457
-0.0234389
-0.0224208
-0.0313801
-0.0303393
-0.029276
-0.03319
-0.0321041
-0.0310407
-0.0299774
-0.0388914
-0.0378054
-0.0367421
-0.0406561
-0.0395928
-0.0435294
-0.0374887
-0.041448
-0.0404072
-0.0443665
-0.048371
-0.0473303
-0.051267
-0.0502262
-0.0492081
-0.04319
-0.0471946
-0.0461991
-0.050181
-0.0491855
-0.0481674
-0.0521041
-0.0460407
-0.05
-0.0488914
-0.0477602
-0.0515837
-0.0503846
-0.0541403
-0.0528733
-0.0515837
-0.0502941
-0.0539593
-0.0526244
-0.0512217
-0.0497964
-0.053371
-0.0519231
-0.0554977
-0.0490271
-0.0475566
-0.041086
-0.0446154
-0.0431222
-0.0416289
-0.0451584
-0.0436651
-0.0421719
-0.0406787
-0.0392081
-0.0377375
-0.0362669
-0.0397964
-0.043371
-0.0419683
-0.040543
-0.0391403
-0.0377376
-0.0363575
-0.04
-0.0386652
-0.0373756
-0.0411086
-0.0398417
-0.0385747
-0.0373756
-0.0311991
-0.0300453
-0.0338914
-0.0327828
-0.0317195
-0.0356561
-0.039638
-0.0386426
-0.0376923
-0.0417421
-0.0408145
-0.0399095
-0.0390272
-0.0381448
-0.0423077
-0.0315159
-0.0357466
-0.035
-0.0342308
-0.0334842
-0.0327602
-0.0320362
-0.0313349
-0.0306561
-0.0250227
-0.0244344
-0.0238688
-0.0233032
-0.0277602
-0.0272399
-0.0267195
-0.0312218
-0.0307693
-0.0303168
-0.0298417
-0.0343892
-0.0339593
-0.0385521
-0.0381901
-0.0428733
-0.0425566
-0.0422851
-0.0370136
-0.0317421
-0.0364706
-0.036267
-0.0361086
-0.0360408
-0.0360634
-0.0361313
-0.031267
-0.0314027
-0.0315837
-0.0317421
-0.0269231
-0.0321493
-0.032353
-0.0325792
-0.0277828
-0.0279412
-0.0229864
-0.0229638
-0.0228959
-0.0177602
-0.0175792
-0.0223756
-0.0221946
-0.011991
-0.0167873
-0.0165611
-0.0163348
-0.0161312
-0.0159276
-0.015724
-0.0154751
-0.0101358
-0.00975114
-0.00941178
-0.0142082
-0.00923079
-0.00966066
-0.0105883
-0.0121267
-0.0143439
-0.0171267
-0.0202036
-0.0232805
-0.0310407
-0.0283937
-0.0302036
-0.0264932
-0.0322624
-0.0276018
-0.0276471
-0.0225113
-0.0222851
-0.0270588
-0.0219004
-0.0218552
-0.0218778
-0.0269683
-0.0270588
-0.0221493
-0.0222398
-0.0223529
-0.022466
-0.0225792
-0.0277375
-0.0278733
-0.0230316
-0.02319
-0.0233258
-0.0284841
-0.0236877
-0.023914
-0.0241176
-0.0243665
-0.024638
-0.0249095
-0.025181
-0.0254977
-0.0258144
-0.0261312
-0.0314706
-0.0268325
-0.0272398
-0.0276018
-0.0229864
-0.0283484
-0.028733
-0.0341629
-0.0345927
-0.0400226
-0.0404751
-0.0359276
-0.0313575
-0.0317873
-0.0322398
-0.0327149
-0.0282127
-0.033733
-0.0342534
-0.029819
-0.0303846
-0.0359728
-0.0365611
-0.0321719
-0.0278054
-0.0284615
-0.0191403
-0.0198643
-0.0155882
-0.0163349
-0.0170588
-0.0177602
-0.0135068
-0.00425338
0.0149774
0.0292082
0.0384163
0.0476471
0.0519005
0.0561765
0.0504299
0.0497059
0.0539593
0.0481675
0.0473982
0.041629
0.0308824
0.0101131
-0.0106335
-0.0213801
-0.0421041
-0.0528054
-0.0585068
-0.0592308
-0.0599547
-0.0656335
-0.0713348
-0.0720136
-0.0726923
-0.0733937
-0.079095
-0.089819
-0.110543
-0.121244
-0.116946
-0.0876697
-0.0384842
0.0507466
0.154955
0.28914
0.433281
0.562376
0.626425
0.63043
0.554434
0.463371
0.34233
0.221244
0.105158
0.00900451
-0.0571493
-0.0983032
-0.11948
-0.120679
-0.1119
-0.0930996
-0.0793439
-0.0656109
-0.0669231
-0.068258
-0.0695928
-0.0709276
-0.0722399
-0.0735747
-0.0699096
-0.0762896
-0.0726471
-0.0740046
-0.075362
-0.0717195
-0.068077
-0.0643892
-0.070724
-0.0670588
-0.0684163
-0.0697285
-0.0710407
-0.0673303
-0.0685973
-0.0698643
-0.0661086
-0.0623756
-0.0585747
-0.0597285
-0.0608597
-0.0669231
-0.0629864
-0.0540045
-0.0550226
-0.0559955
-0.051991
-0.0529638
-0.0538914
-0.0547511
-0.0505656
-0.0463348
-0.0470588
-0.0427376
-0.0434163
-0.0390724
-0.0396833
-0.0352489
-0.0358145
-0.0363575
-0.0318552
-0.0323077
-0.0277376
-0.0230996
-0.0234389
-0.018733
-0.0190045
-0.019276
-0.0145023
-0.0147059
-0.009819
-0.00984163
-0.00477375
-0.00966063
-0.00950226
-0.0142986
-0.00904977
-0.0138009
-0.00355204
0.00171946
-0.0030543
-0.00282806
-0.00260181
0.00260181
0.00273755
0.0027828
-0.00219457
-0.00226244
-0.00237557
-0.00251132
-0.00264706
-0.00276018
-0.00289593
-0.0080543
-0.00819005
-0.0033258
-0.00346154
0.00138009
0.0011991
0.000950223
0.000633482
0.00536198
0.0202489
0.0153394
0.0208371
0.0268099
0.0383937
0.0506561
0.0634842
0.0766063
0.0797511
0.0925566
0.0949548
0.10681
0.113122
0.123914
0.129276
0.129344
0.139231
0.144027
0.143824
0.143665
0.153575
0.158575
0.163643
0.168733
0.173801
0.173891
0.168982
0.17405
0.17414
0.179253
0.174344
0.179457
0.17957
0.179683
0.174819
0.169977
0.175136
0.175271
0.18043
0.170588
0.170747
0.165905
0.161109
0.161312
0.156516
0.156719
0.146946
0.137172
0.132421
0.12267
0.117919
0.10819
0.103484
0.0937783
0.0940724
0.0893891
0.0846833
0.0749774
0.0652715
0.0555882
0.045905
0.0412217
0.0365611
0.0319004
0.0272624
0.0176018
0.0129864
0.00837103
0.00375564
-0.000859745
-0.00549775
-0.0101131
-0.0147059
-0.0193213
-0.0238914
-0.0234616
-0.0330317
-0.0325792
-0.0421267
-0.041629
-0.0461086
-0.0455656
-0.0450453
-0.0495023
-0.0539819
-0.0584389
-0.0579186
-0.0573756
-0.05181
-0.051267
-0.0557014
-0.0601358
-0.0645702
-0.0640045
-0.0684389
-0.0679186
-0.0673982
-0.0668778
-0.0663349
-0.0708145
-0.0702715
-0.0697285
-0.0742308
-0.073733
-0.0732353
-0.0727376
-0.0772172
-0.0816742
-0.0761312
-0.0805883
-0.0850227
-0.0794118
-0.0788236
-0.0781901
-0.077534
-0.0818326
-0.0761086
-0.0753394
-0.0745023
-0.0736652
-0.0728054
-0.0719457
-0.0710633
-0.0701357
-0.0691629
-0.06819
-0.0672172
-0.0661991
-0.065181
-0.0641629
-0.0581448
-0.0620814
-0.0609728
-0.0648642
-0.0587104
-0.0625339
-0.0613575
-0.0552262
-0.0590724
-0.0579186
-0.0567421
-0.0555882
-0.0544118
-0.0532127
-0.0520136
-0.0508597
-0.0447285
-0.0435747
-0.0423982
-0.0411991
-0.0400679
-0.0389593
-0.0428507
-0.0417648
-0.0406788
-0.0346155
-0.0335295
-0.0275114
-0.0315386
-0.0305883
-0.0346834
-0.0338237
-0.0280092
-0.0272173
-0.0264707
-0.0257467
-0.020068
-0.0194572
-0.0188916
-0.0183712
-0.0129187
-0.0125341
-0.0121721
-0.0118327
-0.0115612
-0.00635762
-0.0112897
-0.0112897
-0.0113576
-0.00649337
-0.00165174
-0.00185537
-0.0020816
0.00266953
-0.00257935
-0.00282821
-0.00305445
-0.00330331
-0.00350693
-0.00868793
-0.013801
-0.0138689
-0.0138915
-0.0188689
-0.0188463
-0.0188237
-0.0188463
-0.0138689
-0.0138915
-0.0138915
-0.0188915
-0.0188915
-0.0138689
-0.013801
-0.0137331
-0.00868788
-0.00877836
-0.00914036
-0.0149096
-0.0111992
-0.0180996
-0.0206335
-0.0187557
-0.0221494
-0.0205657
-0.0236878
-0.0263349
-0.0335294
-0.035181
-0.0363122
-0.0370136
-0.0324661
-0.0327376
-0.0378959
-0.038009
-0.0381448
-0.033371
-0.0336425
-0.0389593
-0.0393213
-0.0346833
-0.0350226
-0.0303393
-0.0356787
-0.0359954
-0.0313122
-0.0316289
-0.0319683
-0.0273077
-0.0276696
-0.0280317
-0.028371
-0.033733
-0.0291176
-0.0345249
-0.0349095
-0.0353393
-0.0307692
-0.0311991
-0.0316742
-0.0321493
-0.0326244
-0.0330995
-0.0385973
-0.039095
-0.0346154
-0.0351584
-0.0356561
-0.0411538
-0.0416742
-0.0371946
-0.0327149
-0.0382353
-0.0388235
-0.0394118
-0.04
-0.0455656
-0.0411312
-0.0416968
-0.0422851
-0.0428959
-0.0385521
-0.0392308
-0.0399095
-0.0405883
-0.036267
-0.0319457
-0.0226245
-0.0233032
-0.0240045
-0.0197059
-0.0153846
-0.016086
-0.0167873
-0.00751133
0.00174207
0.0210181
0.0302715
0.0395249
0.0487783
0.0480543
0.0523529
0.051629
0.050905
0.0452036
0.0394796
0.033733
0.0279864
0.0172398
0.00149321
-0.014276
-0.0300905
-0.0408824
-0.0516742
-0.0574887
-0.0633258
-0.0591855
-0.0600452
-0.060905
-0.0617421
-0.0626018
-0.0684615
-0.0793439
-0.0952036
-0.0960634
-0.0969231
-0.0677602
-0.00861991
0.0805204
0.194615
0.323733
0.462805
0.591855
0.645882
0.649864
0.583869
0.477828
0.371765
0.245633
0.13448
0.0332805
-0.0279864
-0.0642308
-0.0905204
-0.101833
-0.0982127
-0.0845928
-0.0709955
-0.0624208
-0.0538914
-0.0553846
-0.0618326
-0.0683258
-0.0647738
-0.0712896
-0.0727828
-0.0742534
-0.070724
-0.0721946
-0.0686425
-0.0700679
-0.0714932
-0.0728733
-0.069276
-0.0706335
-0.0720136
-0.0683937
-0.0697511
-0.0660634
-0.0623303
-0.0636199
-0.0648643
-0.066086
-0.0622851
-0.0634842
-0.0596606
-0.0557466
-0.0618099
-0.062828
-0.0588688
-0.0598416
-0.0607918
-0.0616742
-0.0525565
-0.0533937
-0.0542081
-0.055
-0.0557918
-0.0515385
-0.0522398
-0.0479185
-0.0435746
-0.0391855
-0.0347964
-0.0353394
-0.0358597
-0.0363348
-0.0317647
-0.0321493
-0.0275113
-0.0278733
-0.0281448
-0.0233936
-0.0236425
-0.0188688
-0.0140498
-0.0141855
-0.0142308
-0.0142308
-0.0141855
-0.0140724
-0.0139819
-0.00886876
-0.00875564
-0.0086199
-0.00850678
-0.0034389
-0.00337104
-0.00330316
-0.00328054
-0.00334842
0.00153846
-0.00364254
-0.00386877
-0.00414027
0.000588231
0.00529412
0.00504526
0.00979638
0.00454751
0.00932128
0.00409503
0.00884615
0.00855203
0.00819004
0.00785067
0.00751131
0.0123077
0.0123982
0.0178959
0.018914
0.0255204
0.0327602
0.0456109
0.0587104
0.0618326
0.0746606
0.0820136
0.093914
0.100226
0.111041
0.126425
0.126538
0.136493
0.136357
0.151199
0.151063
0.160995
0.165995
0.171063
0.176176
0.17129
0.18138
0.176471
0.186584
0.181674
0.181765
0.181855
0.181968
0.182081
0.177217
0.177376
0.167534
0.167692
0.162873
0.163032
0.163213
0.158416
0.15362
0.143846
0.149095
0.139367
0.134615
0.129887
0.125181
0.120475
0.105792
0.101154
0.0914932
0.0918552
0.0772398
0.0776018
0.0679864
0.063371
0.0537783
0.0492081
0.0446606
0.0401131
0.0355656
0.0260407
0.0215158
0.0169909
0.0125113
0.0130317
-0.00142536
-0.00588237
-0.0103168
-0.0147738
-0.0142082
-0.0186426
-0.0180317
-0.0324208
-0.03181
-0.0311765
-0.035543
-0.0348643
-0.0341629
-0.0334616
-0.0327376
-0.031991
-0.0362444
-0.0304978
-0.0297285
-0.0289367
-0.0331448
-0.0323756
-0.0266064
-0.0308145
-0.0350226
-0.0342308
-0.0284389
-0.0326471
-0.0318326
-0.0310634
-0.0302941
-0.0345249
-0.033733
-0.0379412
-0.0371493
-0.0363349
-0.0405656
-0.0397738
-0.0390045
-0.0382353
-0.0374435
-0.0416742
-0.040905
-0.0401358
-0.0443439
-0.0435747
-0.0428054
-0.0420136
-0.0411991
-0.0453846
-0.0445023
-0.0435747
-0.0426697
-0.0417421
-0.0457692
-0.0397511
-0.0387104
-0.0426244
-0.041448
-0.0402715
-0.0440724
-0.0478733
-0.046629
-0.0453846
-0.044095
-0.0477828
-0.046448
-0.0450905
-0.0437556
-0.0473982
-0.0460633
-0.0446832
-0.0433258
-0.0419683
-0.0406109
-0.0392534
-0.0378959
-0.0415611
-0.0402262
-0.0389366
-0.037647
-0.0313801
-0.0351357
-0.0338688
-0.0326244
-0.0313801
-0.030181
-0.0339819
-0.0278281
-0.0317195
-0.0306335
-0.0295702
-0.0285068
-0.0325114
-0.0315385
-0.0356109
-0.0346833
-0.0288236
-0.0329639
-0.0321494
-0.0263575
-0.0306109
-0.0348869
-0.0342082
-0.0335521
-0.0329186
-0.0323078
-0.0267195
-0.0311539
-0.0256109
-0.0250453
-0.0245702
-0.0291177
-0.0237105
-0.0233032
-0.022896
-0.0275114
-0.0271268
-0.02681
-0.0264933
-0.0261765
-0.0309051
-0.0306109
-0.0303394
-0.0350453
-0.0397512
-0.0394571
-0.0391856
-0.0439141
-0.0436426
-0.0433711
-0.0380996
-0.0378281
-0.037534
-0.0372625
-0.0370137
-0.0367422
-0.0364707
-0.0361992
-0.0309277
-0.0306562
-0.0303847
-0.0301585
-0.0249096
-0.024706
-0.0245024
-0.0192988
-0.0191178
-0.0189368
-0.0137558
-0.0185748
-0.0133938
-0.0132128
-0.0130544
-0.0129413
-0.00787343
-0.00280555
-0.0077603
-0.00771505
-0.0026698
-0.00762456
-0.00764719
-0.00273768
0.00208133
-0.00312229
-0.00339378
-0.0036879
-0.00398201
-0.00929876
-0.00963812
-0.00497749
-0.00533947
-0.000724092
-0.00110871
-0.00144807
-0.00171956
-0.00194581
-0.00208156
-0.00212681
0.00285056
0.00282794
0.00285056
0.00287319
0.00289582
0.00294106
0.00300893
0.00305419
0.00307681
0.00309943
0.00314468
0.00328042
0.00350668
0.00877817
0.00393654
0.00386867
-0.00158381
-0.00257929
0.000791751
-0.00158381
0.000497643
-0.00287339
-0.00628968
-0.014525
-0.0174209
-0.0198191
-0.0216743
-0.0229413
-0.0237331
-0.0241856
-0.0244571
-0.0246155
-0.0246607
-0.0247286
-0.0198643
-0.0200906
-0.0203621
-0.0256562
-0.0259503
-0.0261992
-0.0264707
-0.0317195
-0.0269458
-0.0271946
-0.0224661
-0.027715
-0.0279639
-0.0282353
-0.0285295
-0.0288236
-0.0291403
-0.029457
-0.0247512
-0.0300679
-0.0253846
-0.0307014
-0.0310634
-0.031448
-0.0318326
-0.0272398
-0.0276471
-0.0280543
-0.0334615
-0.0338462
-0.0342308
-0.0346154
-0.0350226
-0.0404525
-0.0358823
-0.0413122
-0.0417421
-0.0421719
-0.0426018
-0.0380316
-0.0434615
-0.0388914
-0.0393438
-0.0397737
-0.0402036
-0.0406334
-0.0410859
-0.0415158
-0.0419683
-0.0474208
-0.0428733
-0.0333258
-0.0287782
-0.0292307
-0.0246606
-0.0251131
-0.0255656
-0.0309954
-0.0164706
-0.00194568
0.0176018
0.022172
0.0316968
0.0412444
0.0407919
0.0403394
0.0448416
0.0443439
0.0438688
0.0433937
0.0429412
0.0324661
0.016991
0.00153847
-0.018914
-0.0393665
-0.044819
-0.0502489
-0.0606561
-0.0610633
-0.0614706
-0.0668552
-0.0722172
-0.0676018
-0.0629864
-0.068371
-0.0737557
-0.0941403
-0.114525
-0.11991
-0.100294
-0.0507014
0.0338688
0.153394
0.292873
0.452353
0.57681
0.671267
0.680724
0.640136
0.56448
0.448778
0.328054
0.192285
0.0864932
0.0156561
-0.0302036
-0.056086
-0.0770136
-0.0779638
-0.0689593
-0.0499095
-0.040905
-0.0369005
-0.0379638
-0.0440498
-0.0451584
-0.0463122
-0.0524661
-0.0486199
-0.0497511
-0.0508597
-0.051991
-0.0480995
-0.0492308
-0.0503167
-0.0464027
-0.0474434
-0.0534615
-0.0544344
-0.0554299
-0.0564027
-0.0523529
-0.0533032
-0.0542308
-0.0501584
-0.0560181
-0.0568552
-0.0576471
-0.0584615
-0.0592534
-0.0600226
-0.0557692
-0.0515158
-0.0522625
-0.0529186
-0.0535747
-0.0492082
-0.0497964
-0.050362
-0.0508597
-0.0463575
-0.04181
-0.0472398
-0.0426244
-0.0429864
-0.0383032
-0.0385973
-0.0388914
-0.0341629
-0.0344118
-0.0346154
-0.0347285
-0.029819
-0.0298869
-0.0298869
-0.0298643
-0.029819
-0.0247738
-0.0246606
-0.024457
-0.0241629
-0.0188235
-0.0234389
-0.0229864
-0.0225113
-0.0170588
-0.0165385
-0.0159955
-0.0154525
-0.0148869
-0.00932127
-0.00877829
-0.0133032
-0.0128733
-0.0125339
-0.0122851
-0.0120362
-0.0167873
-0.0165837
-0.0163575
-0.0211086
-0.0258824
-0.0206787
-0.0204525
-0.0202263
-0.02
-0.0197738
-0.019638
-0.019638
-0.0146607
-0.0145928
-0.00927604
-0.00357468
0.00769228
0.0145927
0.0222172
0.0304525
0.0341403
0.0478733
0.0614027
0.0745928
0.0822851
0.0944344
0.100973
0.112014
0.11776
0.123303
0.133733
0.139072
0.149412
0.144819
0.155317
0.155882
0.166471
0.172059
0.177624
0.18819
0.183733
0.189253
0.184819
0.185385
0.185973
0.181584
0.187217
0.177851
0.178484
0.16914
0.164796
0.160452
0.161086
0.161742
0.152398
0.153077
0.148756
0.149434
0.140136
0.135814
0.126493
0.127172
0.122851
0.118529
0.114231
0.114955
0.110679
0.0964253
0.092172
0.0879185
0.0786878
0.0744796
0.0652715
0.0610633
0.0568778
0.0527149
0.0435068
0.0393439
0.030181
0.0260407
0.0269004
0.0227602
0.0136199
0.00945701
0.000294114
0.00115385
-0.00298643
-0.0121041
-0.0162217
-0.020362
-0.0245023
-0.0236199
-0.0277376
-0.0268778
-0.0309728
-0.0300226
-0.034095
-0.0381674
-0.0322624
-0.0413348
-0.0454072
-0.044457
-0.0485294
-0.0476018
-0.0516289
-0.0506787
-0.0547285
-0.0538235
-0.0529185
-0.0570362
-0.0611312
-0.0602488
-0.0643891
-0.0685294
-0.0676923
-0.0669004
-0.0661086
-0.0603167
-0.0645475
-0.0687783
-0.068009
-0.0572624
-0.0565158
-0.0557466
-0.0599774
-0.0592081
-0.0634163
-0.0625792
-0.0617421
-0.0708823
-0.075
-0.0741176
-0.0682126
-0.0672624
-0.071267
-0.0702262
-0.0691403
-0.0630317
-0.0669004
-0.065724
-0.0645475
-0.0633484
-0.0621267
-0.0658597
-0.0646154
-0.068371
-0.067104
-0.0657692
-0.0644117
-0.0630543
-0.0566515
-0.0552714
-0.0588687
-0.0574886
-0.0611312
-0.0647737
-0.0634162
-0.0620587
-0.0607465
-0.0594343
-0.0581673
-0.061923
-0.0557013
-0.0594796
-0.0582578
-0.0570588
-0.0558823
-0.0547284
-0.0535972
-0.0524886
-0.0514027
-0.0503846
-0.0493438
-0.0483257
-0.0523303
-0.05138
-0.0454298
-0.0495022
-0.0486199
-0.0477827
-0.0469456
-0.0511538
-0.0503846
-0.0496832
-0.0490271
-0.048371
-0.0427375
-0.0471719
-0.0466289
-0.0461312
-0.0456334
-0.0451583
-0.0397058
-0.0343212
-0.0339592
-0.0386651
-0.0333936
-0.0381674
-0.0379864
-0.0328506
-0.0327601
-0.0327149
-0.0326696
-0.0276696
-0.0377375
-0.0428732
-0.0430769
-0.043371
-0.038733
-0.039095
-0.0395022
-0.0449321
-0.0403846
-0.0408597
-0.0463122
-0.0417646
-0.0472171
-0.0376696
-0.0380542
-0.0333483
-0.0385746
-0.0387329
-0.0338461
-0.0339592
-0.0340497
-0.0291402
-0.0242307
-0.0243212
-0.0193664
-0.0194343
-0.0195474
-0.0146379
-0.0146832
-0.0146606
-0.0145701
-0.00945693
-0.00938907
-0.00952482
-0.0049547
-0.00583704
-0.00737551
-0.00957009
-0.00751127
-0.0109276
-0.0145701
-0.0231221
-0.0262669
-0.0289592
-0.0260181
-0.0325339
-0.0284841
-0.0240271
-0.0242986
-0.0244117
-0.0244796
-0.0145475
-0.0196832
-0.0249321
-0.0252488
-0.0206335
-0.0210181
-0.0213574
-0.0216968
-0.0220588
-0.0174208
-0.0178054
-0.0232352
-0.0186877
-0.0191402
-0.0195927
-0.0200452
-0.0205203
-0.0210181
-0.0214932
-0.0219909
-0.0275113
-0.0230543
-0.0236199
-0.0191855
-0.0247737
-0.025362
-0.0209728
-0.0265837
-0.0271946
-0.0278054
-0.0234615
-0.0241176
-0.0247737
-0.0304525
-0.0261538
-0.0318778
-0.0326018
-0.033371
-0.0291403
-0.0249095
-0.0307014
-0.0314932
-0.0272851
-0.0280996
-0.0289141
-0.0347512
-0.0306109
-0.0315159
-0.0273983
-0.028258
-0.0241403
-0.0200453
-0.0159277
-0.0168326
-0.0127829
-0.00873309
-0.00470594
-0.00565618
-0.00162902
0.0124208
0.0214253
0.0354072
0.0493891
0.0583484
0.0623303
0.0612895
0.0602488
0.0641628
0.0630995
0.0570361
0.0509502
0.0498868
0.0437782
0.0277149
0.00665152
-0.0143892
-0.0354752
-0.0465611
-0.0526019
-0.0636426
-0.0646833
-0.0657014
-0.0666969
-0.072715
-0.0737105
-0.0697059
-0.0756788
-0.0766516
-0.0926245
-0.10862
-0.119638
-0.110634
-0.0716516
-0.00769234
0.0912669
0.225226
0.364163
0.528054
0.636923
0.685747
0.65957
0.568348
0.467104
0.330814
0.204502
0.0781222
-0.0132806
-0.0746833
-0.111131
-0.127579
-0.129072
-0.12052
-0.0970136
-0.0835294
-0.0700905
-0.0716742
-0.0782353
-0.079819
-0.0814027
-0.0830091
-0.0845475
-0.0811086
-0.0777149
-0.079276
-0.0808371
-0.082353
-0.0788688
-0.080362
-0.0818552
-0.0833484
-0.0797964
-0.076267
-0.0726697
-0.0740498
-0.070362
-0.0716968
-0.0679864
-0.0692308
-0.0704751
-0.0716968
-0.0678733
-0.0689819
-0.0650679
-0.0661086
-0.0621493
-0.0581222
-0.0590724
-0.055
-0.0558824
-0.0567195
-0.0524887
-0.0532579
-0.0490045
-0.0496833
-0.0503167
-0.0459276
-0.0415385
-0.0321041
-0.0326471
-0.0331222
-0.0285747
-0.0289819
-0.0293439
-0.0296606
-0.0199548
-0.0152036
-0.0104299
-0.0155882
-0.010724
-0.0108145
-0.0108145
-0.0107466
-0.0105882
-0.00536199
-0.00511312
0.000203628
0.000520367
0.00583711
0.00615385
0.00649321
0.00680995
0.00705883
0.0123303
0.0125792
0.0127828
0.0128959
0.0179185
0.0178507
0.0127602
0.0126471
0.0124661
0.0123077
0.0121719
0.0170362
0.0168778
0.0167194
0.0115837
0.0164253
0.0162896
0.021086
0.0258145
0.0254977
0.0302489
0.035181
0.0404072
0.0411312
0.0474434
0.0593891
0.0721041
0.0853167
0.0887557
0.0970814
0.105
0.117489
0.129367
0.140679
0.151425
0.156765
0.166855
0.166787
0.176652
0.176538
0.181471
0.181516
0.191629
0.20181
0.196991
0.202172
0.202353
0.207534
0.197715
0.202896
0.2081
0.203326
0.203552
0.193801
0.19405
0.189321
0.189593
0.189864
0.180136
0.18043
0.170769
0.166131
0.156493
0.156878
0.147262
0.142692
0.1381
0.133484
0.123891
0.114321
0.109751
0.100181
0.0956108
0.0860633
0.0765384
0.0720362
0.0625565
0.0580995
0.0486425
0.0441855
0.0396832
0.0302262
0.0207918
0.0163574
0.0119457
0.00757917
0.0032579
-0.006086
-0.0104073
-0.0147059
-0.0190272
-0.0233484
-0.0276697
-0.0319231
-0.0311539
-0.040362
-0.0445702
-0.0487783
-0.0529638
-0.0571493
-0.0613349
-0.0605204
-0.0546606
-0.0637783
-0.0628733
-0.0619457
-0.0559729
-0.0599774
-0.0589819
-0.0479864
-0.051991
-0.0509503
-0.0549095
-0.0538914
-0.0528733
-0.0518326
-0.0558145
-0.0548417
-0.0488688
-0.052896
-0.0569231
-0.0559276
-0.0549095
-0.0539141
-0.0529412
-0.051991
-0.0560408
-0.0550679
-0.0540951
-0.0530996
-0.0571041
-0.056086
-0.0550453
-0.0640272
-0.0580091
-0.0569684
-0.0608824
-0.0597512
-0.0585973
-0.0574435
-0.056267
-0.0600679
-0.0588462
-0.0575792
-0.0562443
-0.0548643
-0.0584842
-0.0570588
-0.0556335
-0.0591855
-0.0577375
-0.0562896
-0.0548416
-0.0533484
-0.05181
-0.0552715
-0.053733
-0.0521719
-0.0506109
-0.0491176
-0.0476018
-0.0460634
-0.0445249
-0.0479864
-0.0464932
-0.045
-0.0435294
-0.0420814
-0.0406561
-0.039276
-0.0428959
-0.0415384
-0.0402036
-0.0388914
-0.0376018
-0.0413801
-0.0351809
-0.0290045
-0.0328506
-0.0317647
-0.0307239
-0.0247058
-0.023733
-0.0227828
-0.0219004
-0.0260633
-0.0252262
-0.0294344
-0.0286652
-0.0229412
-0.0122398
-0.0165837
-0.0209955
-0.0204525
-0.0199548
-0.0244571
-0.023982
-0.0185294
-0.0231222
-0.0227376
-0.0173982
-0.0171041
-0.01681
-0.0215385
-0.0212896
-0.0210408
-0.0258371
-0.0206562
-0.0255204
-0.0254073
-0.0253168
-0.0252489
-0.030181
-0.0350905
-0.0350453
-0.0399774
-0.0449321
-0.0498643
-0.049819
-0.0497738
-0.0496833
-0.0545927
-0.0545249
-0.049457
-0.0494344
-0.0493891
-0.0443439
-0.0393212
-0.0392986
-0.0392533
-0.0392307
-0.0442533
-0.0442533
-0.0392533
-0.0342533
-0.0342533
-0.0292533
-0.034276
-0.0292986
-0.0292986
-0.0292986
-0.0293212
-0.0293438
-0.0194117
-0.0195475
-0.0196832
-0.0198416
-0.0200452
-0.0152488
-0.0154525
-0.0156787
-0.0159276
-0.0112443
-0.0116289
-0.0170814
-0.0175792
-0.0131221
-0.013733
-0.0143665
-0.00999998
-0.0106787
-0.00635748
-0.00703622
-0.00766969
-0.00825793
-0.0137783
-0.00927604
-0.0147059
-0.0100679
-0.005362
-0.00561088
-0.00581451
-0.0109955
-0.0111539
-0.0113349
-0.0115385
-0.0117873
-0.00701357
-0.00221718
-0.00242079
-0.00257916
-0.00764703
-0.00766964
-0.0127375
-0.00794112
-0.0034841
-0.00447957
-0.00606328
-0.0083031
-0.00631215
-0.00993206
-0.0138235
-0.0176696
-0.0211764
-0.0192533
-0.0217873
-0.0287782
-0.030181
-0.0311538
-0.0318326
-0.0323077
-0.0276244
-0.0229185
-0.0232579
-0.0186652
-0.0241629
-0.0247059
-0.0252263
-0.0257014
-0.0261991
-0.0216969
-0.0171494
-0.0226245
-0.0230996
-0.0235973
-0.0240951
-0.0245928
-0.0251358
-0.0206787
-0.0212443
-0.0218099
-0.0223756
-0.0229185
-0.0234842
-0.0240724
-0.0296833
-0.0253167
-0.0259728
-0.0266742
-0.0273529
-0.0280317
-0.0337104
-0.0294344
-0.0351357
-0.0258145
-0.0315384
-0.0322624
-0.0329638
-0.0336199
-0.034276
-0.0349547
-0.0306335
-0.0363348
-0.0370362
-0.0377376
-0.0384163
-0.0391177
-0.039819
-0.040543
-0.0462218
-0.0469231
-0.0476471
-0.0483711
-0.0391177
-0.0348417
-0.0305883
-0.0263123
-0.0220362
-0.0228055
-0.0235295
-0.0192761
-0.0150227
-0.00576927
0.00850675
0.0227828
0.0320135
0.0412669
0.0505203
0.0547737
0.0540497
0.0583484
0.0576697
0.0570135
0.0463574
0.0356787
0.02
0.00929861
-0.00638012
-0.0220815
-0.0377602
-0.0483937
-0.0590498
-0.0646833
-0.0703394
-0.0709955
-0.0666742
-0.0573303
-0.0629864
-0.0686199
-0.0692308
-0.0798416
-0.105475
-0.116176
-0.106878
-0.0776244
-0.00337105
0.0908823
0.225136
0.374367
0.538575
0.672783
0.731923
0.726018
0.650091
0.55414
0.433167
0.307172
0.176109
0.0750226
0.0088914
-0.0322851
-0.0584842
-0.0696833
-0.0658597
-0.0520588
-0.0332353
-0.029457
-0.0357014
-0.0419457
-0.0432127
-0.0444796
-0.050724
-0.0469457
-0.04819
-0.0494344
-0.0506787
-0.0519231
-0.0481674
-0.0444118
-0.0456109
-0.0467873
-0.0479638
-0.0541403
-0.0553168
-0.0564706
-0.0526245
-0.0537783
-0.0548869
-0.0509729
-0.0570136
-0.0580543
-0.0590272
-0.055
-0.0609276
-0.0618552
-0.0526923
-0.0535294
-0.0542987
-0.0600226
-0.0607014
-0.0563348
-0.0569457
-0.0575113
-0.0580769
-0.0535747
-0.0540498
-0.0495022
-0.0448869
-0.0452262
-0.050543
-0.0458597
-0.0411538
-0.0414027
-0.0366516
-0.0318099
-0.0269231
-0.0319909
-0.0319909
-0.0219457
-0.0269004
-0.0218326
-0.0216968
-0.0215158
-0.021267
-0.0209276
-0.0155203
-0.0200452
-0.0145249
-0.0139366
-0.0183031
-0.017647
-0.0219683
-0.021267
-0.020543
-0.0148416
-0.0141855
-0.0135746
-0.0129864
-0.0124434
-0.0119683
-0.0165611
-0.0111991
-0.0158823
-0.0155656
-0.0152715
-0.00997734
-0.0146606
-0.0142986
-0.0139366
-0.0135972
-0.0132353
-0.00789589
0.00233035
0.00248872
0.00769234
0.0130543
0.0187783
0.0199322
0.0266969
0.0341629
0.0423982
0.0612217
0.0753168
0.0843892
0.0931222
0.106425
0.114208
0.126425
0.133054
0.144208
0.155068
0.160747
0.166312
0.166855
0.172443
0.1731
0.178869
0.184661
0.18543
0.191154
0.1919
0.192647
0.193371
0.194118
0.194842
0.195588
0.196312
0.197036
0.19776
0.193529
0.189321
0.190113
0.190905
0.191674
0.187443
0.188213
0.184005
0.179796
0.175588
0.16638
0.167172
0.152964
0.148756
0.144548
0.140317
0.131109
0.126946
0.11276
0.103575
0.0943665
0.0851584
0.0809729
0.0767873
0.0726018
0.0584163
0.054276
0.0501357
0.0359955
0.0269004
0.0228054
0.0186651
0.0145249
0.00540723
0.00628958
-0.00282806
-0.00690046
-0.0109502
-0.0200226
-0.0241177
-0.0231674
-0.0272398
-0.0362896
-0.040362
-0.0444118
-0.0484389
-0.0474661
-0.0514932
-0.0505204
-0.0545249
-0.0585068
-0.0625113
-0.0615158
-0.0655204
-0.0695249
-0.0735294
-0.0725339
-0.0765611
-0.0805882
-0.0846154
-0.0836425
-0.0826697
-0.0817421
-0.0807918
-0.0848869
-0.0839819
-0.0830769
-0.0821493
-0.0812443
-0.085362
-0.0845023
-0.0886199
-0.0927376
-0.0918326
-0.085905
-0.0849774
-0.0890272
-0.0930543
-0.0920588
-0.091086
-0.0950905
-0.0990724
-0.0930317
-0.0919231
-0.0907692
-0.0895927
-0.0883936
-0.0921719
-0.0909276
-0.089638
-0.0833258
-0.0819683
-0.0805882
-0.0791855
-0.0827601
-0.0863348
-0.0848868
-0.0884389
-0.0869683
-0.0854977
-0.0790271
-0.0825113
-0.0809954
-0.0794796
-0.0779638
-0.0714479
-0.0749547
-0.0684615
-0.0669909
-0.0605203
-0.0640498
-0.0675792
-0.0661312
-0.0646832
-0.0632353
-0.0618099
-0.0604072
-0.0590271
-0.057647
-0.0562896
-0.0499547
-0.0536651
-0.0523756
-0.0511765
-0.045
-0.0438461
-0.0477149
-0.046629
-0.0405656
-0.0395701
-0.0386199
-0.0377149
-0.0368778
-0.036086
-0.0352941
-0.0345249
-0.0388461
-0.03819
-0.0326018
-0.0371041
-0.0366968
-0.0313348
-0.0260181
-0.025724
-0.0254525
-0.0202262
-0.0250905
-0.0250452
-0.0250905
-0.0202488
-0.0204977
-0.0207692
-0.0210633
-0.0164253
-0.02181
-0.0272172
-0.0276244
-0.0230317
-0.0284389
-0.0288235
-0.0341403
-0.0343891
-0.0345927
-0.0397285
-0.0398416
-0.0399547
-0.0350679
-0.030181
-0.0302941
-0.0304299
-0.0305882
-0.0307466
-0.025905
-0.0260407
-0.0211312
-0.0211765
-0.0211765
-0.0212217
-0.0214253
-0.0169004
-0.0128507
-0.0193439
-0.0214932
-0.0243213
-0.0226697
-0.0262896
-0.0297737
-0.0329864
-0.0357692
-0.0330543
-0.0347737
-0.0359955
-0.0368099
-0.0373077
-0.0375792
-0.0377375
-0.0378507
-0.033009
-0.0332579
-0.0336199
-0.034095
-0.0345928
-0.0300679
-0.030543
-0.0310181
-0.0315159
-0.0320136
-0.032534
-0.0330996
-0.0286652
-0.0292308
-0.0347738
-0.035362
-0.0359503
-0.0365611
-0.037172
-0.0327602
-0.0333937
-0.0290046
-0.0296154
-0.0302263
-0.0358597
-0.0365385
-0.0372172
-0.0379186
-0.0336199
-0.0343439
-0.0300905
-0.0358371
-0.0365837
-0.0373529
-0.0380769
-0.0388461
-0.034638
-0.0354298
-0.0362217
-0.0370136
-0.0378507
-0.0386878
-0.0395022
-0.0403167
-0.0411538
-0.0370361
-0.0329185
-0.0388461
-0.0397511
-0.0356787
-0.0366515
-0.0276244
-0.0235746
-0.0145701
-0.0105656
-0.00656103
-0.00755651
-0.013552
-0.00457007
0.00443445
0.0184164
0.0323982
0.0463575
0.0603168
0.0642761
0.0632353
0.0671946
0.0661765
0.0651358
0.0590724
0.0579865
0.0519231
0.0458371
0.0247512
0.00364256
-0.0124661
-0.0285747
-0.0396833
-0.0457919
-0.0519231
-0.0530317
-0.0591176
-0.060181
-0.061267
-0.0623529
-0.0634615
-0.0695475
-0.0806335
-0.0967194
-0.107805
-0.0988914
-0.0649773
-0.00610858
0.0927602
0.211629
0.350453
0.494231
0.607986
0.671742
0.640475
0.574186
0.472851
0.361493
0.235136
0.11871
0.0222398
-0.0442534
-0.0957692
-0.12233
-0.133914
-0.12552
-0.112127
-0.0887783
-0.0654525
-0.0571267
-0.0638235
-0.0654751
-0.0671493
-0.0688235
-0.0754977
-0.072172
-0.0688462
-0.070543
-0.0721719
-0.0738235
-0.0704525
-0.0720815
-0.0686878
-0.0702715
-0.0718552
-0.068371
-0.0698869
-0.0713575
-0.0678054
-0.0692308
-0.0656335
-0.0670136
-0.063371
-0.0647285
-0.0609955
-0.0572398
-0.0584163
-0.0595928
-0.055724
-0.0618099
-0.0578959
-0.0539367
-0.0549321
-0.0508824
-0.05181
-0.0476923
-0.0485294
-0.0493213
-0.0500679
-0.0457919
-0.0364932
-0.0371493
-0.0277602
-0.0333937
-0.0290045
-0.0245701
-0.0251131
-0.0255882
-0.0210634
-0.0214706
-0.0168552
-0.0121946
-0.0125339
-0.00789594
-0.00819005
-0.00841629
-0.00857466
-0.00366516
0.00131222
0.00135747
0.00144797
0.00153847
0.00167422
0.00180996
0.00196833
0.00710408
0.00723982
0.00737557
0.00748869
0.00751131
0.00746607
0.00737557
0.0022172
0.00201358
0.00678734
0.0065611
0.00633486
0.00108598
0.00585974
0.0056335
0.0104073
0.010181
0.00993215
0.0146607
0.0143213
0.0139367
0.0136199
0.0234616
0.0285973
0.0341629
0.0402715
0.0520136
0.0594344
0.0673756
0.0756109
0.0837104
0.0965158
0.103869
0.110724
0.127014
0.137805
0.14319
0.148303
0.15819
0.162964
0.167692
0.172489
0.182353
0.18733
0.187443
0.192602
0.187738
0.192873
0.193032
0.19319
0.193326
0.193484
0.198665
0.188846
0.194027
0.184208
0.184412
0.179638
0.174864
0.175091
0.165317
0.165588
0.160882
0.156176
0.151516
0.141855
0.137217
0.132579
0.132964
0.118348
0.113778
0.104253
0.0997059
0.090181
0.0806787
0.0811312
0.0716063
0.0671041
0.0576018
0.0531222
0.0436652
0.0342308
0.0247964
0.015362
0.010905
0.00647059
0.00208145
-0.00228506
-0.00160633
-0.0059276
-0.0102262
-0.0145023
-0.0188009
-0.0130995
-0.0173756
-0.016629
-0.0208597
-0.0200679
-0.019276
-0.0234842
-0.0276697
-0.0268552
-0.0260181
-0.0251584
-0.024276
-0.028371
-0.0274661
-0.0315611
-0.0306561
-0.0347511
-0.0338462
-0.0329412
-0.0370588
-0.0361991
-0.0353167
-0.039457
-0.0435973
-0.0427602
-0.0419683
-0.0411765
-0.045362
-0.0445475
-0.0437331
-0.0479186
-0.0471041
-0.0463122
-0.0454978
-0.0446833
-0.0488688
-0.0480543
-0.0472398
-0.0514254
-0.0506109
-0.0547738
-0.0489141
-0.0480543
-0.047172
-0.0512444
-0.0502941
-0.0493213
-0.0483484
-0.0473756
-0.0463575
-0.0453167
-0.044276
-0.0481674
-0.0520136
-0.0558597
-0.0546833
-0.0534842
-0.0522625
-0.0560407
-0.0547738
-0.0534616
-0.0571267
-0.0558145
-0.0544797
-0.0531674
-0.0568326
-0.0555204
-0.0542082
-0.0528959
-0.0515837
-0.0502489
-0.0489593
-0.0476471
-0.0463801
-0.0501357
-0.043914
-0.0427149
-0.0415158
-0.0453846
-0.0492308
-0.0481222
-0.0520588
-0.0510407
-0.0500452
-0.0490724
-0.0481222
-0.0471719
-0.0512896
-0.0554299
-0.0496154
-0.0538235
-0.0530769
-0.0473756
-0.0466742
-0.0460407
-0.0454298
-0.0448416
-0.049276
-0.0487556
-0.0483031
-0.0478959
-0.0425339
-0.0421945
-0.0418778
-0.0466063
-0.0463348
-0.0510859
-0.0508823
-0.0507013
-0.0455429
-0.0454072
-0.0452488
-0.0500905
-0.0499321
-0.0497963
-0.0496832
-0.0445701
-0.0494796
-0.0494117
-0.0543438
-0.0542533
-0.0541628
-0.0590723
-0.0590045
-0.0589366
-0.0588913
-0.0588461
-0.0588235
-0.0538009
-0.0487556
-0.043733
-0.0487103
-0.0436877
-0.0437329
-0.0388008
-0.0338913
-0.0340271
-0.0341628
-0.0343438
-0.0345248
-0.0397284
-0.0349547
-0.0302036
-0.0305203
-0.0309049
-0.0313574
-0.0268778
-0.0274434
-0.028009
-0.0286199
-0.0242307
-0.0248416
-0.0204298
-0.0209955
-0.0215385
-0.0220588
-0.0225113
-0.0178733
-0.0131674
-0.0133937
-0.0135747
-0.00873303
-0.00886878
-0.00902716
-0.00416292
-0.00432129
0.000497721
0.000316739
0.00513574
-4.52623e-05
-0.000180997
-0.000226252
0.00477374
0.00477374
0.00466062
0.00427601
0.00848415
0.0071267
0.00504524
0.0022172
-0.00131222
-0.005181
-0.0090724
-0.0128054
-0.0111086
-0.0140272
-0.0163122
-0.0180091
-0.0142081
-0.0200453
-0.0156787
-0.0111765
-0.00667421
-0.0121267
-0.0126244
-0.0131674
-0.0137783
-0.0143891
-0.0150226
-0.0156561
-0.016267
-0.0169005
-0.0175339
-0.0181448
-0.0137557
-0.0143665
-0.0199774
-0.0205882
-0.021267
-0.0169457
-0.0176244
-0.0183032
-0.0189819
-0.0196606
-0.015362
-0.0211086
-0.0168326
-0.0126018
-0.0133937
-0.0141855
-0.0149774
-0.0157692
-0.0215611
-0.0223756
-0.0232127
-0.0190498
-0.0199095
-0.020724
-0.0215837
-0.0224661
-0.028371
-0.0292986
-0.0302262
-0.0311991
-0.0321946
-0.0331674
-0.0341629
-0.035181
-0.0362217
-0.0422398
-0.0432353
-0.0442308
-0.0452715
-0.0362896
-0.0373077
-0.0333258
-0.0243213
-0.0253394
-0.0213575
-0.0223756
-0.0184163
-0.0195023
-0.015543
-0.0015837
0.0123756
0.0263349
0.0352941
0.0442987
0.0432806
0.0472625
0.0462217
0.0402263
0.0392308
0.0332806
0.0273303
0.0163801
0.000452505
-0.0204977
-0.0364027
-0.0523077
-0.06319
-0.0690724
-0.0749321
-0.0757692
-0.0866063
-0.0874208
-0.0832579
-0.0840724
-0.0848869
-0.0906787
-0.101493
-0.122308
-0.138122
-0.138937
-0.114751
-0.0555882
0.0285747
0.152738
0.311878
0.475996
0.630068
0.70414
0.708167
0.672172
0.576131
0.485113
0.34905
0.217919
0.106787
0.0206109
-0.0306108
-0.0618778
-0.0681221
-0.0793891
-0.0706787
-0.0619909
-0.0483258
-0.0496606
-0.0510181
-0.0573755
-0.0587556
-0.0601131
-0.0614932
-0.0628733
-0.0642307
-0.0655656
-0.0668778
-0.0682352
-0.0595701
-0.0608823
-0.0621493
-0.0633936
-0.0596153
-0.0608144
-0.0570135
-0.0531447
-0.0593438
-0.0554751
-0.0515837
-0.052647
-0.0486877
-0.0497058
-0.0507013
-0.0516968
-0.047647
-0.048552
-0.0443665
-0.0501583
-0.0459276
-0.0416289
-0.0423076
-0.0379638
-0.0386199
-0.0342081
-0.0297737
-0.0352941
-0.0307692
-0.0262217
-0.0216289
-0.0220135
-0.0223982
-0.0177601
-0.0130769
-0.0133936
-0.0136199
-0.0088235
-0.00895924
-0.00402711
-0.00409499
-0.00414024
0.000837132
0.00585976
0.000882387
0.00595026
0.00610863
0.00633488
0.00667425
0.00205886
0.00748874
0.00796385
0.0134842
0.00900459
0.00950232
0.00504531
0.00556567
0.00606341
0.0015159
0.00690051
0.00221726
0.00746612
0.00264712
0.00280549
0.00296386
-0.00190039
-0.00176466
-0.00167415
0.00343897
0.00359734
0.00375571
0.0039367
0.00409507
0.00420818
0.0042308
0.00918555
0.00914029
0.0142082
0.0145702
0.0203168
0.0266516
0.0337331
0.0465611
0.0500905
0.0639367
0.0728054
0.0865384
0.0898416
0.102738
0.120023
0.121742
0.137964
0.143801
0.159434
0.159932
0.170407
0.170837
0.176335
0.181878
0.182489
0.188122
0.188756
0.194366
0.189977
0.195588
0.196199
0.191833
0.192489
0.188145
0.193778
0.189412
0.18509
0.180792
0.176493
0.172217
0.167986
0.168756
0.159547
0.170362
0.161154
0.161991
0.152828
0.148665
0.144548
0.14043
0.136312
0.127217
0.118167
0.104118
0.100068
0.0960181
0.0819909
0.078009
0.0690045
0.0700226
0.0560633
0.0521267
0.0432127
0.0342534
0.0303168
0.0214027
0.0175113
0.0136199
0.00972851
0.000859737
0.00199096
-0.00685519
-0.0107013
-0.0195248
-0.0233258
-0.0221267
-0.0209276
-0.0247285
-0.0284841
-0.0272172
-0.0309728
-0.0346832
-0.0333936
-0.042104
-0.0408144
-0.0395249
-0.04819
-0.0518326
-0.0504298
-0.0490724
-0.0576923
-0.0563801
-0.0550679
-0.053733
-0.0524208
-0.0561086
-0.054819
-0.0535068
-0.0572172
-0.0609502
-0.0596833
-0.0584389
-0.0571946
-0.0609502
-0.0646833
-0.0634163
-0.0671719
-0.0659276
-0.0646833
-0.0634389
-0.0621946
-0.0609276
-0.0596606
-0.0633937
-0.0621041
-0.0657919
-0.0694796
-0.0681674
-0.06681
-0.0604298
-0.0589819
-0.0625339
-0.0610407
-0.0595475
-0.058009
-0.061448
-0.0598643
-0.0581901
-0.0614932
-0.0597511
-0.0580091
-0.0562217
-0.0594344
-0.0576244
-0.0557919
-0.0589593
-0.0571267
-0.0552715
-0.0533937
-0.0515611
-0.0497059
-0.0528733
-0.0560634
-0.0542534
-0.047466
-0.0456561
-0.0438461
-0.0470814
-0.0453393
-0.0485972
-0.0519004
-0.0502262
-0.048552
-0.046923
-0.0452488
-0.0486198
-0.0419909
-0.0404072
-0.0438687
-0.0423529
-0.0408597
-0.0443891
-0.0479864
-0.0466289
-0.0403393
-0.0440723
-0.0428506
-0.0466968
-0.0405429
-0.0394343
-0.0433484
-0.0423303
-0.0413348
-0.0354072
-0.0345248
-0.0336651
-0.0328506
-0.0320588
-0.0313122
-0.0305882
-0.0249094
-0.0292533
-0.0286425
-0.0280995
-0.032647
-0.0272171
-0.0268099
-0.0264253
-0.0311086
-0.0307692
-0.0304524
-0.0352262
-0.0351131
-0.0350904
-0.035181
-0.0403167
-0.0454524
-0.0506334
-0.0558371
-0.0510633
-0.0562895
-0.0465384
-0.0467873
-0.0520135
-0.0522171
-0.0473303
-0.0473755
-0.0473529
-0.0472624
-0.0421719
-0.0420588
-0.0419457
-0.0418099
-0.0416515
-0.0415158
-0.04138
-0.0362669
-0.0361764
-0.0360633
-0.0358823
-0.0356334
-0.0353393
-0.0351131
-0.0300678
-0.0353393
-0.0360633
-0.0324208
-0.029457
-0.0321493
-0.0402488
-0.0483936
-0.0464027
-0.0490724
-0.0513574
-0.0531222
-0.0443439
-0.0500452
-0.0553393
-0.0553846
-0.0502941
-0.0501131
-0.0499321
-0.049819
-0.0498416
-0.0499547
-0.0501357
-0.045362
-0.0505882
-0.0507918
-0.0459955
-0.0462217
-0.041448
-0.0416968
-0.041991
-0.0422851
-0.0425792
-0.0478733
-0.0431674
-0.0434842
-0.0488236
-0.0442082
-0.0446154
-0.0450227
-0.0454299
-0.0458372
-0.0462444
-0.0466743
-0.0471268
-0.0425792
-0.043077
-0.0435973
-0.0441177
-0.0396607
-0.0402263
-0.0408145
-0.0413801
-0.036991
-0.0376019
-0.0432353
-0.0438688
-0.0395023
-0.0401584
-0.0408371
-0.0365385
-0.0372399
-0.0379412
-0.0386426
-0.0393439
-0.0350453
-0.0357692
-0.0365158
-0.0322624
-0.0330543
-0.0238461
-0.014638
-0.0154525
-0.0112444
-0.00708149
0.00208142
-0.00880095
-0.00468329
0.00941174
0.0284841
0.0475566
0.0616063
0.0706561
0.0696833
0.0687104
0.0676923
0.0716516
0.0706335
0.0645928
0.0635973
0.0576018
0.0516064
0.0305883
0.00959278
-0.0064027
-0.0223982
-0.0283936
-0.0393665
-0.0403394
-0.0463122
-0.0522624
-0.0532353
-0.0592081
-0.055181
-0.0561312
-0.0620815
-0.0780317
-0.0940045
-0.105
-0.0909955
-0.051991
0.0120135
0.110973
0.244887
0.388801
0.532692
0.621584
0.635407
0.604186
0.522919
0.436606
0.320249
0.198846
0.0774661
-0.0139819
-0.0704525
-0.106968
-0.128484
-0.130045
-0.116629
-0.0932353
-0.0748643
-0.0614932
-0.0581448
-0.0597511
-0.0664027
-0.0680317
-0.0646606
-0.0662896
-0.0678959
-0.0645023
-0.066086
-0.0626697
-0.0642308
-0.0658371
-0.0674208
-0.0640045
-0.0606109
-0.0621946
-0.0637783
-0.0653394
-0.0669004
-0.0684389
-0.0699774
-0.0614932
-0.0629638
-0.0593892
-0.0557692
-0.0571267
-0.0584389
-0.0597059
-0.0559502
-0.057172
-0.0533484
-0.054457
-0.055543
-0.0516063
-0.0526471
-0.0535973
-0.0495475
-0.0454525
-0.0413122
-0.0421267
-0.0428959
-0.0436652
-0.0443891
-0.0400452
-0.0356561
-0.031267
-0.0268326
-0.0273756
-0.0278507
-0.0282579
-0.0286652
-0.0190045
-0.0192986
-0.0145475
-0.014819
-0.0100452
-0.010181
-0.0102262
-0.00513574
-0.00497737
-0.00475112
-0.00952487
-0.00427601
-0.00402714
-0.00375565
-0.00346152
-0.00316741
-0.00287329
-0.00757918
-0.00230768
-0.00210406
-0.00201357
-0.00194569
-0.00194569
-0.00196831
-0.00201356
-0.00205882
-0.00712669
-0.00221719
-0.00228506
-0.00237556
-0.00242081
-0.00248868
-0.00255655
0.00230769
0.0071267
0.00690046
0.00674209
0.0117647
0.0171041
0.0278959
0.0343213
0.046448
0.0492534
0.0624435
0.0707014
0.0888235
0.101584
0.113959
0.125814
0.132127
0.142919
0.143303
0.153439
0.158439
0.168348
0.173258
0.178235
0.183348
0.183552
0.188846
0.18414
0.189412
0.184683
0.189955
0.190272
0.190588
0.190928
0.18629
0.186629
0.181991
0.187353
0.187715
0.188077
0.188462
0.188869
0.189276
0.184683
0.185068
0.180475
0.180882
0.176312
0.166787
0.162262
0.15276
0.148281
0.138801
0.134299
0.129796
0.125294
0.115814
0.10638
0.101923
0.0924887
0.0880769
0.0736426
0.0741629
0.0647285
0.0603168
0.050905
0.0414932
0.0420815
0.0326697
0.0232579
0.0138462
0.0144344
0.0100679
0.005724
0.0013801
-0.00296379
-0.00230768
-0.0116516
-0.0159728
-0.0152941
-0.0195701
-0.0238461
-0.0280995
-0.0273529
-0.0365837
-0.0357918
-0.0399774
-0.0391629
-0.0433937
-0.0425792
-0.0417647
-0.0459502
-0.0501584
-0.0493665
-0.0535746
-0.0528054
-0.0570588
-0.0513122
-0.0605656
-0.0598416
-0.0591176
-0.0633937
-0.062647
-0.0619231
-0.0612217
-0.0654977
-0.0647738
-0.0690724
-0.0633484
-0.0676244
-0.0669005
-0.0711312
-0.070362
-0.0696154
-0.0688914
-0.0731222
-0.0723303
-0.0764932
-0.0856561
-0.0897511
-0.0838688
-0.0829412
-0.081991
-0.0809729
-0.0799095
-0.0788235
-0.0776923
-0.0815385
-0.0803394
-0.0791403
-0.0829186
-0.0816516
-0.0803394
-0.0790045
-0.0826471
-0.0812896
-0.0849095
-0.0785294
-0.072172
-0.0757919
-0.0744344
-0.0780543
-0.0766742
-0.0802941
-0.078914
-0.0725339
-0.0711538
-0.0697964
-0.0684389
-0.0670814
-0.065724
-0.0643665
-0.0630091
-0.0616516
-0.0552942
-0.0589593
-0.0576471
-0.0613349
-0.0600453
-0.058801
-0.0575793
-0.0564028
-0.0552716
-0.0491856
-0.0481222
-0.0420815
-0.046086
-0.0501358
-0.0442308
-0.0483258
-0.0474887
-0.0416743
-0.0309503
-0.0352489
-0.0346154
-0.0290272
-0.0285295
-0.0280996
-0.0276697
-0.0273077
-0.0220362
-0.0168326
-0.0216516
-0.0215159
-0.0214706
-0.0215159
-0.0216516
-0.0218326
-0.0170815
-0.0173982
-0.0226923
-0.0230091
-0.0233258
-0.0236652
-0.0290046
-0.0293666
-0.0347059
-0.0349774
-0.0301811
-0.0353168
-0.0353847
-0.0353847
-0.0303847
-0.0303621
-0.0303394
-0.0303621
-0.0203621
-0.0204073
-0.02043
-0.0154752
-0.0155205
-0.0155205
-0.0204526
-0.0152942
-0.0151132
-0.0150227
-0.0151585
-0.0106336
-0.0166517
-0.0182807
-0.0207015
-0.0288236
-0.0274888
-0.0262897
-0.024887
-0.0331675
-0.0359503
-0.0381902
-0.0348191
-0.0409503
-0.0366969
-0.037172
-0.0374888
-0.0376924
-0.0378508
-0.0330544
-0.0333259
-0.0336426
-0.0340046
-0.0343892
-0.0297512
-0.0351358
-0.0354978
-0.0358824
-0.036267
-0.0316742
-0.0370588
-0.0324887
-0.0329186
-0.0333484
-0.0338009
-0.0342534
-0.0347285
-0.0352036
-0.035724
-0.0412443
-0.0417647
-0.0423077
-0.0378506
-0.0384163
-0.0389819
-0.0395475
-0.0400905
-0.0406561
-0.0462443
-0.0418099
-0.0424208
-0.0430316
-0.0436651
-0.0442986
-0.0449321
-0.0455882
-0.0412443
-0.0419004
-0.0425339
-0.04319
-0.0388235
-0.0395022
-0.0402262
-0.0459276
-0.0416742
-0.0424434
-0.0382353
-0.0339819
-0.0297511
-0.0255203
-0.0162669
-0.0120362
-0.0128054
-0.00857464
0.000633508
0.00484166
0.00909503
0.0133032
0.0274887
0.0416742
0.0558824
0.0650679
0.0692308
0.0784163
0.0726018
0.0717873
0.0659502
0.0651131
0.064276
0.0584389
0.0525792
0.0316968
0.0158144
-0.00502266
-0.0208824
-0.0367421
-0.0426018
-0.0534163
-0.0542534
-0.0500905
-0.0559503
-0.0517647
-0.0525792
-0.0583711
-0.0591403
-0.0698869
-0.0906335
-0.111425
-0.117195
-0.0979638
-0.0537557
0.0204299
0.134615
0.273778
0.442896
0.596991
0.711018
0.740045
0.69405
0.623077
0.507036
0.385973
0.244864
0.12371
0.0325339
-0.0236878
-0.0599095
-0.0861538
-0.0974208
-0.0887104
-0.075
-0.0663122
-0.0626697
-0.0590272
-0.0654072
-0.0667647
-0.07319
-0.0696154
-0.0710407
-0.0725113
-0.0789593
-0.0754525
-0.0719004
-0.0683484
-0.0697511
-0.0711538
-0.0725566
-0.0739593
-0.0703394
-0.0716968
-0.0680996
-0.064457
-0.0658371
-0.062172
-0.0634842
-0.0647511
-0.0709955
-0.0672172
-0.0633937
-0.0645928
-0.060724
-0.0618326
-0.0628959
-0.063914
-0.0648869
-0.0608371
-0.0617647
-0.0626244
-0.0634615
-0.0592308
-0.0599774
-0.0556561
-0.0512896
-0.0518778
-0.0474887
-0.0430769
-0.0336199
-0.034095
-0.0345023
-0.0348869
-0.0352036
-0.0304751
-0.030724
-0.0309502
-0.0261538
-0.0212896
-0.0263801
-0.0214253
-0.0164253
-0.0163575
-0.0211765
-0.0159276
-0.0106109
-0.0102715
-0.00988688
-0.0145023
-0.00911765
-0.00873303
-0.00832579
-0.0129186
-0.0075113
-0.00712669
-0.00683257
-0.0115837
-0.0114253
-0.0113348
-0.0112896
-0.0162443
-0.0112443
-0.0112443
-0.00622171
-0.00619908
-0.00615384
-0.011086
-0.0110407
-0.0159728
-0.0159502
-0.0110407
-0.0111991
-0.0113801
-0.00642531
-0.00126695
0.00423079
0.00527152
0.0169457
0.0243892
0.037534
0.0461991
0.06
0.0636199
0.0769231
0.0847059
0.0969457
0.113552
0.114615
0.130294
0.130747
0.136041
0.141222
0.14638
0.151584
0.156833
0.167127
0.167443
0.172805
0.173167
0.183529
0.183869
0.184231
0.194593
0.194932
0.200272
0.195634
0.196041
0.186471
0.1869
0.187353
0.187783
0.183235
0.17871
0.184163
0.174661
0.180181
0.175724
0.171267
0.161833
0.157398
0.152919
0.143462
0.144005
0.13457
0.130158
0.120747
0.111335
0.101946
0.0975339
0.0931448
0.0837783
0.0794118
0.0650226
0.0606561
0.0512896
0.0419457
0.0326244
0.0333032
0.0339819
0.0246833
0.0154073
0.00615386
0.00690047
-0.0023303
-0.00156107
-0.000791839
-0.00502261
-0.004276
-0.00848415
-0.0126697
-0.0168326
-0.0209502
-0.0200679
-0.0291855
-0.0283258
-0.0324208
-0.0314706
-0.0304977
-0.0345023
-0.0335294
-0.0375113
-0.0415158
-0.040543
-0.0445928
-0.0435973
-0.0426018
-0.0466063
-0.0456109
-0.044638
-0.0486652
-0.0527149
-0.0517873
-0.0508371
-0.0498642
-0.0538688
-0.0528959
-0.0569231
-0.0559955
-0.0600679
-0.0591629
-0.0532805
-0.0573756
-0.0564706
-0.0655656
-0.064638
-0.0636878
-0.0676923
-0.0666968
-0.0656787
-0.064638
-0.063552
-0.0624434
-0.0663348
-0.0652036
-0.0640045
-0.0627828
-0.0615158
-0.0602036
-0.0638914
-0.0675339
-0.0661764
-0.0647963
-0.0683936
-0.0669683
-0.060543
-0.059095
-0.0576018
-0.0610859
-0.0645701
-0.0630316
-0.0614706
-0.0599095
-0.0583484
-0.0517647
-0.055181
-0.0535746
-0.0569683
-0.0553846
-0.0538235
-0.0572624
-0.050724
-0.0541855
-0.0526923
-0.0461991
-0.0496833
-0.0482127
-0.0517194
-0.0452489
-0.0488009
-0.0473982
-0.0410181
-0.0396606
-0.0333484
-0.0370362
-0.0357692
-0.0345023
-0.0333032
-0.0371719
-0.0311312
-0.0301131
-0.0341403
-0.0332353
-0.0273756
-0.0265837
-0.0258371
-0.0251584
-0.0245928
-0.0241403
-0.0187557
-0.0184389
-0.0132127
-0.0180769
-0.0179864
-0.0229186
-0.0228959
-0.0178733
-0.0178281
-0.0127828
-0.017715
-0.0176245
-0.0274887
-0.0322851
-0.0270136
-0.0266742
-0.0263349
-0.0309503
-0.035543
-0.0401584
-0.0447285
-0.0443213
-0.0489141
-0.0435521
-0.0382127
-0.0378507
-0.0424887
-0.0420362
-0.0415385
-0.046086
-0.0407919
-0.0407919
-0.036267
-0.0373077
-0.0390046
-0.0463123
-0.0491177
-0.0471946
-0.0501584
-0.0479186
-0.0502263
-0.0520589
-0.0483032
-0.0489141
-0.0491403
-0.0490272
-0.0487557
-0.0483711
-0.0529638
-0.0526471
-0.0474209
-0.0473077
-0.0472625
-0.0472399
-0.0371946
-0.042172
-0.0471493
-0.0471267
-0.0471041
-0.0420815
-0.0420588
-0.0370815
-0.0371267
-0.037172
-0.0372398
-0.0373303
-0.0324208
-0.0324887
-0.0325792
-0.0376697
-0.0328054
-0.0379638
-0.0331222
-0.0333032
-0.0335068
-0.0287104
-0.0288914
-0.029095
-0.0343439
-0.0296154
-0.0348869
-0.035181
-0.0305204
-0.0308597
-0.0262217
-0.0315837
-0.0319231
-0.0323077
-0.0326697
-0.0330995
-0.0335294
-0.0339819
-0.034457
-0.0349095
-0.0354072
-0.0358823
-0.0364027
-0.0419231
-0.0374887
-0.0330543
-0.0236651
-0.024276
-0.0198869
-0.0155203
-0.0111538
-0.0117873
-0.00742079
-0.00309953
0.0112217
0.0255656
0.0398869
0.0542308
0.0635747
0.0729412
0.0722625
0.0765838
0.0758598
0.0751358
0.0694344
0.0637331
0.0580543
0.0473756
0.0316969
0.0109502
-0.00981901
-0.025543
-0.0362443
-0.0469457
-0.0576697
-0.0534163
-0.0641855
-0.0649774
-0.0657692
-0.0615837
-0.0623756
-0.0681448
-0.073914
-0.0947285
-0.105543
-0.101403
-0.0673077
-0.00321269
0.0958597
0.214932
0.358982
0.493009
0.601968
0.655928
0.629864
0.578756
0.477624
0.366471
0.235271
0.0990045
0.00773754
-0.0686199
-0.115023
-0.141448
-0.147873
-0.134367
-0.115882
-0.0923756
-0.0788914
-0.0754073
-0.0819457
-0.0834389
-0.0849774
-0.0865159
-0.0880769
-0.0896833
-0.0912444
-0.0878054
-0.0893439
-0.090905
-0.0874434
-0.0889819
-0.0905204
-0.0920136
-0.0884842
-0.0899095
-0.0863348
-0.0877149
-0.0891176
-0.0854751
-0.0817873
-0.0830543
-0.0842534
-0.0854299
-0.0765611
-0.0776923
-0.0787783
-0.0748869
-0.0709729
-0.066991
-0.0679864
-0.068914
-0.0698416
-0.065724
-0.0715837
-0.0624208
-0.0582127
-0.0589819
-0.0547285
-0.0554299
-0.046086
-0.0467421
-0.0423756
-0.0429638
-0.033552
-0.034095
-0.0295928
-0.0250226
-0.0254299
-0.0257919
-0.0261312
-0.0214253
-0.0217195
-0.0119683
-0.0121946
-0.0173303
-0.0123756
-0.0123303
-0.0121946
-0.0120136
-0.00676471
-0.00649322
-0.0011991
-0.000904987
-0.000610868
-0.000294125
-7.45058e-09
-0.00472852
-0.00450227
0.000656098
0.000746597
-0.00427603
-0.00932127
-0.00938915
-0.00950227
-0.00966064
-0.00979638
-0.00997738
-0.0101584
-0.0103167
-0.0104525
-0.0105882
-0.010724
-0.00590498
-0.00617648
0.00352941
0.00825791
0.0131448
0.0183484
0.0240045
0.0302262
0.0371267
0.0495928
0.0525566
0.0657692
0.0788914
0.0917873
0.0992308
0.111199
0.132579
0.133348
0.153688
0.16371
0.168529
0.168258
0.177941
0.182692
0.182534
0.187489
0.187511
0.192557
0.192602
0.197647
0.192692
0.19776
0.207828
0.202896
0.202964
0.203054
0.208145
0.203213
0.203326
0.203439
0.198552
0.19371
0.183869
0.179027
0.174208
0.174389
0.16957
0.159774
0.15
0.140226
0.135475
0.125724
0.120995
0.116267
0.116538
0.111855
0.102195
0.0975792
0.0879638
0.0833258
0.0736878
0.0690724
0.0644344
0.054819
0.0502488
0.0456787
0.0361312
0.0265837
0.0270588
0.0225339
0.013009
0.00850676
0.00404975
-0.000407262
-0.00484166
-0.00925342
-0.0136652
-0.0131222
-0.0175792
-0.0170136
-0.0214027
-0.0207693
-0.0251131
-0.029457
-0.0337783
-0.0380996
-0.0374208
-0.0417195
-0.0459955
-0.0452489
-0.0444797
-0.0437104
-0.0529638
-0.0522398
-0.0515159
-0.0508145
-0.0501131
-0.0543892
-0.0486652
-0.0579638
-0.0622851
-0.061629
-0.0609729
-0.0603167
-0.0596833
-0.0590724
-0.0634615
-0.0628507
-0.0622398
-0.066629
-0.0610181
-0.0603846
-0.0647738
-0.0641177
-0.0634163
-0.0677149
-0.0669683
-0.0711991
-0.0754072
-0.0646154
-0.0637783
-0.0629412
-0.0670815
-0.0661765
-0.0652263
-0.0692534
-0.0682127
-0.0671267
-0.0610407
-0.0648869
-0.0636652
-0.0674208
-0.0611765
-0.0598869
-0.0585747
-0.0572625
-0.0559502
-0.054638
-0.0583258
-0.056991
-0.0556335
-0.0592986
-0.0579185
-0.0565158
-0.0551131
-0.0537556
-0.0523529
-0.0459502
-0.0495701
-0.0481674
-0.0467873
-0.0554298
-0.049095
-0.047828
-0.0465837
-0.0453394
-0.044095
-0.0428733
-0.0416968
-0.0405656
-0.0444796
-0.0434162
-0.0373982
-0.0364027
-0.0354298
-0.0394343
-0.0384615
-0.0425339
-0.0416289
-0.0357692
-0.0349547
-0.0342081
-0.0334615
-0.0277375
-0.0320814
-0.0314479
-0.0308144
-0.0302262
-0.0246832
-0.0241629
-0.0186651
-0.0232126
-0.0227828
-0.0223982
-0.0220135
-0.0216289
-0.0212896
-0.0109954
-0.0107013
-0.0104072
-0.0201357
-0.0148868
-0.0196606
-0.0244796
-0.0243439
-0.024276
-0.0242307
-0.0292307
-0.0292307
-0.034276
-0.0343439
-0.034457
-0.029638
-0.0249321
-0.0252941
-0.0256787
-0.0260859
-0.0264932
-0.0269457
-0.0273982
-0.0278733
-0.023371
-0.0238688
-0.0243439
-0.0197511
-0.0150905
-0.015362
-0.0155656
-0.0157013
-0.0157918
-0.0158823
-0.015905
-0.0109276
-0.0109728
-0.0160181
-0.0110633
-0.0161312
-0.0161991
-0.0162443
-0.0112669
-0.0111538
-0.0109955
-0.00590497
-0.00601809
-0.0064932
-0.00744343
-0.0140045
-0.00631221
-0.00934388
-0.00789591
-0.0166968
-0.0203394
-0.0237104
-0.0265611
-0.0288688
-0.030543
-0.0266516
-0.0273529
-0.0227828
-0.0280543
-0.0282353
-0.028371
-0.033552
-0.0288009
-0.0341403
-0.0245249
-0.0349095
-0.0302941
-0.0306561
-0.0360407
-0.0314027
-0.0317647
-0.0321946
-0.0276018
-0.028009
-0.0334389
-0.0338688
-0.0343212
-0.0347737
-0.0352036
-0.0356335
-0.0361086
-0.0366063
-0.0370588
-0.0375339
-0.0430317
-0.043552
-0.0440724
-0.0446154
-0.045181
-0.040724
-0.0362896
-0.0418552
-0.0424434
-0.038009
-0.0386199
-0.0442308
-0.0448416
-0.0454525
-0.0410633
-0.0416742
-0.0422624
-0.0428733
-0.0384841
-0.0441176
-0.0497737
-0.0454299
-0.0411086
-0.0417421
-0.0473982
-0.0430543
-0.0437783
-0.0395022
-0.0352715
-0.031086
-0.0219004
-0.0227149
-0.0135294
-0.0193891
-0.0152715
-0.0111991
-0.00212672
0.0119457
0.0260181
0.0400905
0.0441629
0.0482579
0.0473303
0.0514027
0.0554977
0.0495701
0.0486425
0.0477375
0.0418326
0.0259276
0.0100678
-0.00576927
-0.0266064
-0.0424435
-0.0532806
-0.0591403
-0.0700227
-0.0708824
-0.0717195
-0.0725566
-0.073439
-0.0742761
-0.0751358
-0.0860181
-0.0969005
-0.117783
-0.128643
-0.114525
-0.0753846
0.00373302
0.107851
0.236946
0.400973
0.560045
0.679072
0.728122
0.692127
0.626086
0.515
0.393869
0.252738
0.126561
0.0353846
-0.0258371
-0.0670362
-0.0883032
-0.0995928
-0.0959276
-0.0823303
-0.063733
-0.055181
-0.0565837
-0.0580543
-0.0595023
-0.0609729
-0.0674661
-0.068914
-0.065362
-0.06681
-0.0682353
-0.064638
-0.066086
-0.0625339
-0.0639367
-0.0703167
-0.0716968
-0.0680769
-0.0644344
-0.0707919
-0.0671041
-0.0634163
-0.0647285
-0.0660181
-0.0672851
-0.063552
-0.0647964
-0.0609729
-0.0621267
-0.0582579
-0.0593665
-0.0554072
-0.0564253
-0.0574434
-0.0584163
-0.0543891
-0.0552941
-0.0561765
-0.0570136
-0.0578281
-0.0535747
-0.0492987
-0.0500453
-0.045724
-0.0463575
-0.0419457
-0.0425339
-0.0380543
-0.033552
-0.0290272
-0.0244797
-0.0248869
-0.0252036
-0.0254978
-0.0207466
-0.0160181
-0.0112444
-0.0114254
-0.0115837
-0.0066516
-0.00165161
-0.00158373
-0.00649323
-0.00135748
-0.00122173
-0.00606336
-0.000859737
-0.00067874
-0.000497743
-0.000294127
-9.05097e-05
-0.00495476
-0.00488689
-0.00486426
-0.00490952
-0.00502263
-0.000181012
0.00463799
-0.000565641
-0.000769258
-0.000972867
0.00382351
-0.00135747
-0.00153847
0.00330316
0.00309953
0.00787329
0.00255654
0.00719455
0.00692306
0.0118552
0.0121719
0.0179638
0.0293439
0.0314706
0.0443439
0.0477828
0.056448
0.0699548
0.0831674
0.0958824
0.0980543
0.109593
0.115566
0.126154
0.126471
0.136606
0.141674
0.151697
0.161742
0.166855
0.172081
0.172353
0.177624
0.177896
0.18319
0.183484
0.178756
0.179027
0.179321
0.179615
0.17491
0.180226
0.180566
0.170928
0.16629
0.166629
0.166991
0.162376
0.162805
0.15319
0.153597
0.149027
0.14448
0.139955
0.140407
0.135882
0.12638
0.1269
0.117421
0.112964
0.103529
0.0991177
0.0947059
0.0852941
0.085905
0.0765385
0.0721493
0.0627828
0.0584389
0.049095
0.0397738
0.0404525
0.0311312
0.0268326
0.0175566
0.0132806
0.00402715
-0.000203611
0.00056562
0.00135748
-0.00282804
-0.0119909
-0.0161538
-0.0153167
-0.0144344
-0.0185294
-0.0226018
-0.0166742
-0.0207466
-0.0197737
-0.0187556
-0.0177375
-0.0217421
-0.0207013
-0.0196606
-0.0236425
-0.0226244
-0.0216063
-0.0255656
-0.0295249
-0.0285068
-0.0274887
-0.0314706
-0.0354525
-0.034457
-0.0334615
-0.0324434
-0.0364253
-0.0354298
-0.0344344
-0.0334615
-0.037466
-0.0365158
-0.0405656
-0.0396154
-0.0436651
-0.0426923
-0.0417421
-0.0457918
-0.049819
-0.0538235
-0.0528507
-0.0518552
-0.0508144
-0.0547737
-0.0587104
-0.057647
-0.0565837
-0.0554751
-0.0543439
-0.0531674
-0.0519909
-0.0507466
-0.0545022
-0.0532127
-0.0519231
-0.0555882
-0.0542534
-0.0528733
-0.051448
-0.055
-0.053552
-0.0520815
-0.0505882
-0.054095
-0.0525792
-0.0510634
-0.0495701
-0.0480769
-0.0465837
-0.0450905
-0.0436199
-0.0471041
-0.0456109
-0.0441855
-0.0427828
-0.0463801
-0.0449774
-0.0485747
-0.0421946
-0.0408598
-0.0395249
-0.0432127
-0.0469457
-0.0407014
-0.0394344
-0.0431901
-0.041991
-0.0407919
-0.0396606
-0.043552
-0.0424887
-0.0414479
-0.0404072
-0.0444117
-0.0434389
-0.0375113
-0.0416063
-0.0457466
-0.0449095
-0.044095
-0.0383257
-0.0375565
-0.0368552
-0.0411764
-0.0355656
-0.0399773
-0.0394344
-0.033914
-0.0334163
-0.0328959
-0.0373982
-0.0369457
-0.0365611
-0.0411312
-0.0407014
-0.0403167
-0.0399547
-0.0395701
-0.0442081
-0.0488461
-0.0484615
-0.0480769
-0.0526923
-0.0523077
-0.0519457
-0.0466063
-0.046267
-0.0509276
-0.0506109
-0.0452941
-0.0499774
-0.0496606
-0.0493665
-0.044095
-0.0438235
-0.043552
-0.0382579
-0.0379864
-0.0377376
-0.0324887
-0.0322625
-0.0270815
-0.0269683
-0.0218778
-0.0217873
-0.0217194
-0.0216742
-0.0166516
-0.0217195
-0.0218778
-0.0171493
-0.0174661
-0.0178054
-0.0181674
-0.013552
-0.0139593
-0.00936653
-0.00977377
-0.00518101
-0.00556564
-0.00592764
-0.0112444
-0.00647063
-0.00662901
-0.00669687
-0.00671951
-0.00171951
-0.00171951
-0.00167426
-0.00162902
0.0033936
-0.0016064
-0.00158378
-0.00156116
-0.00158378
-0.00156116
-0.00147066
-0.00128966
-0.00106341
-0.000882417
-0.00085979
-0.0061539
-0.001991
0.00153841
-0.000678785
-0.00359733
-0.0070815
-0.0158824
-0.0145702
-0.0179186
-0.0207693
-0.0230543
-0.0197512
-0.020905
-0.0266064
-0.0270362
-0.0273077
-0.0274887
-0.0226471
-0.0228507
-0.0231448
-0.0235294
-0.0289367
-0.0293665
-0.0247964
-0.0252036
-0.0256109
-0.0260407
-0.0265158
-0.031991
-0.0324887
-0.0329412
-0.0284163
-0.0288914
-0.0243665
-0.024819
-0.0253167
-0.0258371
-0.0213122
-0.0267873
-0.0272624
-0.0277828
-0.0183032
-0.0288235
-0.0293891
-0.0249547
-0.0255204
-0.026086
-0.0266742
-0.0272851
-0.0328959
-0.0335294
-0.0391855
-0.0398642
-0.035543
-0.0362217
-0.0368778
-0.0375565
-0.0382579
-0.0439819
-0.0446832
-0.0454298
-0.0461764
-0.046923
-0.047647
-0.048371
-0.0541402
-0.0548642
-0.0506108
-0.0513801
-0.0471493
-0.0429185
-0.0286878
-0.029457
-0.0302036
-0.0309728
-0.0267194
-0.0224661
-0.00821267
0.00599548
0.0252036
0.0344344
0.0386425
0.0428959
0.0421493
0.0414253
0.0406787
0.0399774
0.039276
0.0335747
0.0278959
0.0172398
-0.00343892
-0.024095
-0.0447511
-0.0554073
-0.066086
-0.0667421
-0.0773982
-0.0780317
-0.0786652
-0.074276
-0.0799095
-0.0805656
-0.0762444
-0.0869005
-0.102557
-0.123213
-0.133869
-0.124525
-0.090181
-0.0208824
0.0933484
0.232602
0.396878
0.551131
0.670362
0.73957
0.70871
0.637851
0.526946
0.401018
0.265045
0.139072
0.0430543
-0.0180091
-0.059095
-0.0802263
-0.0863801
-0.0775566
-0.0637557
-0.0449774
-0.0412217
-0.0375113
-0.0438009
-0.0500679
-0.0463349
-0.0476018
-0.0438688
-0.0451358
-0.0414027
-0.0477149
-0.0440045
-0.0452489
-0.0514706
-0.0526697
-0.0488462
-0.0450226
-0.0511991
-0.0523077
-0.0534389
-0.0495249
-0.0506109
-0.051629
-0.0476923
-0.048733
-0.0497285
-0.050724
-0.0466742
-0.0476244
-0.053552
-0.0494796
-0.0453846
-0.046267
-0.0471493
-0.0479412
-0.048733
-0.0444796
-0.0452036
-0.0408823
-0.0415611
-0.0372172
-0.0378281
-0.0383937
-0.038914
-0.0394118
-0.0298869
-0.035362
-0.0308371
-0.026267
-0.0216742
-0.0220362
-0.0173303
-0.0175566
-0.0177602
-0.0129186
-0.0180543
-0.0181674
-0.0132353
-0.00819005
-0.00807692
-0.00785068
-0.00257919
-0.0122625
-0.0119231
-0.0115611
-0.00619911
-0.0108145
-0.0104299
-0.00502263
-0.00963802
-0.0142534
-0.0138914
-0.0136199
-0.0134389
-0.0133484
-0.00828055
-0.00825792
-0.0082353
-0.0132579
-0.0132805
-0.0133032
-0.0133258
-0.00837103
-0.00339365
-0.00837103
-0.00839366
-0.00846154
-0.00859729
-0.00877828
-0.00893665
0.00106335
0.0113801
0.0121946
0.0136878
0.0209276
0.0288688
0.0373756
0.0511765
0.0598416
0.07319
0.0810633
0.0933937
0.100113
0.111267
0.116991
0.122443
0.132715
0.137873
0.148009
0.153213
0.158484
0.163869
0.169276
0.169728
0.170158
0.170543
0.17095
0.17138
0.171833
0.167308
0.177805
0.173303
0.168801
0.164299
0.164774
0.160271
0.160792
0.161335
0.151855
0.152398
0.142941
0.143507
0.139072
0.139638
0.135226
0.130837
0.131448
0.122081
0.122738
0.118394
0.114027
0.109683
0.100362
0.101041
0.0866968
0.0873756
0.0780543
0.0737783
0.0644796
0.060181
0.0558823
0.0466289
0.0373756
0.0281222
0.0238688
0.019638
0.0154299
0.0161991
0.0119683
0.00776017
0.00355202
-0.0056335
-0.00479639
-0.00895929
-0.0181448
-0.0223077
-0.0214932
-0.0257014
-0.0348643
-0.0339819
-0.0380769
-0.0371493
-0.0412217
-0.0403394
-0.044457
-0.0435747
-0.0476697
-0.0467873
-0.050905
-0.05
-0.054095
-0.0582353
-0.0573982
-0.0565611
-0.055724
-0.0599095
-0.059095
-0.0582806
-0.0574661
-0.0566742
-0.0559276
-0.050181
-0.0494344
-0.0536652
-0.0578733
-0.0571041
-0.0613122
-0.065543
-0.0647738
-0.0590271
-0.0582579
-0.0574434
-0.0515837
-0.060724
-0.0598642
-0.0590045
-0.0631448
-0.0572624
-0.0563122
-0.0553394
-0.0593213
-0.0633032
-0.0622398
-0.0611538
-0.06
-0.0588235
-0.057647
-0.0514253
-0.050181
-0.053914
-0.0526018
-0.0562443
-0.0548643
-0.0584842
-0.0571041
-0.0507466
-0.0493891
-0.0530317
-0.0516742
-0.0552941
-0.0539367
-0.0575566
-0.0512217
-0.0499095
-0.0486199
-0.0523303
-0.0510634
-0.0497738
-0.0484842
-0.0522398
-0.0510181
-0.0498417
-0.0486878
-0.047534
-0.0463801
-0.0502489
-0.0491177
-0.0529865
-0.0519005
-0.0508371
-0.0497738
-0.048733
-0.0477149
-0.0467195
-0.0407466
-0.0448416
-0.0439366
-0.0480769
-0.0422398
-0.0364479
-0.0356787
-0.0399321
-0.0392307
-0.0385973
-0.0380316
-0.0424886
-0.0369457
-0.0364253
-0.0309276
-0.0304524
-0.0250226
-0.0296153
-0.0292986
-0.0290045
-0.0237782
-0.0235973
-0.0234389
-0.0183031
-0.0232126
-0.0281674
-0.0331448
-0.0382126
-0.0333484
-0.0335746
-0.0338688
-0.0342081
-0.0345701
-0.0349773
-0.035362
-0.0357692
-0.0411764
-0.0366063
-0.0320361
-0.0324434
-0.0328054
-0.0280769
-0.0232805
-0.0233936
-0.0234389
-0.0234389
-0.0134162
-0.0133936
-0.0133258
-0.0132352
-0.0131447
-0.0130995
-0.0180542
-0.0130316
-0.013009
-0.00794113
-0.0127828
-0.0126018
-0.0124886
-0.0125565
-0.0130316
-0.00895921
-0.00552028
-0.00773748
-0.0155203
-0.018733
-0.021923
-0.019932
-0.0225565
-0.0247058
-0.0313574
-0.0323981
-0.0279637
-0.0282126
-0.0282126
-0.0230768
-0.0278732
-0.0326696
-0.0325565
-0.0275564
-0.0276696
-0.0228053
-0.0229637
-0.0231221
-0.0233031
-0.0284841
-0.0287103
-0.0239366
-0.0191854
-0.0194343
-0.0197058
-0.0199999
-0.0203166
-0.025656
-0.0259728
-0.0263121
-0.0216741
-0.0220361
-0.0173981
-0.0228054
-0.0232126
-0.0236198
-0.0290497
-0.0295248
-0.0300226
-0.0255203
-0.0310407
-0.0315611
-0.0321041
-0.0376471
-0.0332127
-0.0337783
-0.0343892
-0.035
-0.0356335
-0.0362444
-0.0368326
-0.0374435
-0.038077
-0.0337331
-0.0294118
-0.0301131
-0.0358598
-0.0365611
-0.0322851
-0.0329865
-0.0286878
-0.0293892
-0.0201358
-0.0158824
-0.00665163
-0.00739823
-0.00814484
-0.00391408
0.000339322
-0.000452533
0.00373299
0.0178506
0.031923
0.0460407
0.0601357
0.0642307
0.0683258
0.0724434
0.0665384
0.0656108
0.0646832
0.063733
0.0578054
0.0519004
0.0409954
0.0200904
-0.000814531
-0.0216969
-0.0375792
-0.048439
-0.0542987
-0.0551132
-0.0609277
-0.0667421
-0.0725566
-0.0683711
-0.0692082
-0.0700453
-0.0758598
-0.0866743
-0.102489
-0.108348
-0.0942082
-0.0500905
0.0290045
0.128077
0.267149
0.406244
0.535294
0.629299
0.623281
0.577262
0.486222
0.380136
0.269004
0.132805
0.0265837
-0.0446607
-0.095905
-0.127195
-0.148484
-0.149842
-0.136244
-0.112647
-0.0940724
-0.0904977
-0.0819231
-0.0833258
-0.0847285
-0.0861312
-0.0825792
-0.0840498
-0.0854751
-0.0819005
-0.0783032
-0.0747059
-0.0761086
-0.0725113
-0.0789593
-0.0753846
-0.07681
-0.0781674
-0.0795249
-0.0708371
-0.0721493
-0.0734389
-0.0747059
-0.0659729
-0.0671946
-0.0683937
-0.0645249
-0.0656787
-0.0617873
-0.0628733
-0.0589593
-0.0549774
-0.0509729
-0.0519231
-0.0528507
-0.053733
-0.0545928
-0.0504299
-0.0512443
-0.0470588
-0.0428281
-0.0385294
-0.0342081
-0.0398869
-0.035543
-0.0361312
-0.0366968
-0.0322398
-0.0277602
-0.0282127
-0.0236199
-0.0239593
-0.024276
-0.0195928
-0.0198643
-0.0151131
-0.0153394
-0.00554299
-0.000656113
-0.00570137
-0.00065612
-0.000520371
-0.000339374
-0.00511314
0.000135738
0.00536198
0.00558823
0.00581447
0.00606334
0.00628959
0.00651583
0.00669683
0.0117873
0.0117873
0.0116968
0.00653847
0.00635747
0.00615385
0.00597285
0.00579185
0.00558823
0.00533937
0.0101131
0.0049095
0.0047285
0.00452489
0.00927602
0.0139819
0.0136652
0.0183937
0.0233258
0.0286199
0.0343891
0.0357918
0.047828
0.0554751
0.063552
0.0666063
0.0794344
0.0918552
0.103824
0.115294
0.121154
0.131538
0.131629
0.141471
0.146176
0.155792
0.160407
0.160091
0.16991
0.169819
0.174729
0.169729
0.169706
0.169683
0.174661
0.179661
0.174661
0.179638
0.174661
0.174706
0.174774
0.174842
0.179932
0.175
0.175068
0.165158
0.165249
0.160362
0.155498
0.150633
0.145792
0.14095
0.131154
0.126357
0.116561
0.11681
0.107059
0.102308
0.0975566
0.0878054
0.0830995
0.073371
0.0686199
0.0588688
0.0541629
0.049457
0.0447738
0.0450905
0.0404299
0.0307918
0.0261538
0.0215385
0.0169004
0.00730769
0.0026923
0.00305429
-0.00156109
-0.00615385
-0.0107466
-0.0153168
-0.0198869
-0.0194796
-0.0240724
-0.0236425
-0.0281674
-0.0276697
-0.0321267
-0.0315611
-0.0359955
-0.0404072
-0.0447964
-0.0491855
-0.0485973
-0.0479638
-0.0473303
-0.0466968
-0.0510634
-0.0504299
-0.0547964
-0.0541629
-0.0535747
-0.0529638
-0.0523529
-0.0517421
-0.0561765
-0.0556109
-0.0600453
-0.0645023
-0.0639593
-0.0584163
-0.0578733
-0.0623077
-0.0667647
-0.0662217
-0.0656787
-0.0701131
-0.0695249
-0.0639593
-0.063371
-0.0627602
-0.0671267
-0.0664706
-0.0658145
-0.0701131
-0.0693891
-0.0686652
-0.0629638
-0.0622172
-0.0664027
-0.065543
-0.064638
-0.0637104
-0.0677376
-0.0617647
-0.0607692
-0.0597511
-0.0586652
-0.0575566
-0.0614706
-0.0603394
-0.0541855
-0.0630543
-0.0569231
-0.0558145
-0.0546833
-0.0535521
-0.0523982
-0.046267
-0.0500905
-0.0489366
-0.0478054
-0.0466742
-0.045543
-0.0443891
-0.0382579
-0.0421267
-0.0410407
-0.0449774
-0.0389367
-0.0379186
-0.0419231
-0.0409502
-0.0400226
-0.0391403
-0.0383032
-0.0424661
-0.041629
-0.0358597
-0.0351131
-0.0293665
-0.0336651
-0.023009
-0.0173982
-0.0168099
-0.0262669
-0.0257692
-0.0252941
-0.024819
-0.0243439
-0.023914
-0.0185294
-0.0181674
-0.017828
-0.0225113
-0.0172398
-0.0120136
-0.0117647
-0.0115384
-0.0113348
-0.0111538
-0.0109955
-0.00583708
-0.000678703
-0.00556559
-0.0104525
-0.0153846
-0.0152941
-0.0152262
-0.0201584
-0.0201357
-0.0251584
-0.0252488
-0.0253846
-0.0305203
-0.0256787
-0.0258597
-0.0260407
-0.0262443
-0.0264932
-0.0268552
-0.0172624
-0.0177375
-0.0182353
-0.0187556
-0.0142986
-0.0148642
-0.0154525
-0.0110407
-0.0116516
-0.0122398
-0.0127828
-0.0132805
-0.013733
-0.0141403
-0.014457
-0.0147285
-0.0149547
-0.0101584
-0.0103167
-0.0104525
-0.0105656
-0.0107014
-0.0108371
-0.0109728
-0.0111312
-0.00628959
-0.0014027
-0.00142533
-0.00635745
-0.0063122
-0.00633483
-0.0065837
-0.00719456
-0.00832578
-0.00506786
-0.00755655
-0.0156787
-0.019276
-0.0179412
-0.021448
-0.0295927
-0.0222172
-0.0293665
-0.0258597
-0.0318778
-0.0275339
-0.0279864
-0.0283031
-0.0335068
-0.0337104
-0.0289819
-0.0293212
-0.0297058
-0.0300905
-0.0304751
-0.0308371
-0.0311991
-0.0265611
-0.0269683
-0.0273303
-0.0276923
-0.0280769
-0.0234615
-0.0238688
-0.019276
-0.0296832
-0.0300905
-0.0255203
-0.0259276
-0.0313348
-0.0317194
-0.0271267
-0.0274887
-0.027828
-0.02819
-0.0235973
-0.0240271
-0.029457
-0.0298869
-0.0253167
-0.0257466
-0.0261765
-0.0265837
-0.0270136
-0.0274661
-0.0228959
-0.0283032
-0.0287104
-0.0291403
-0.0295701
-0.03
-0.0354299
-0.0358597
-0.0312896
-0.0317647
-0.0272398
-0.0327602
-0.0333032
-0.0338462
-0.0294118
-0.0249774
-0.0155882
-0.0111991
-0.0118326
-0.00748868
-0.00309954
-0.00373302
-0.0043665
0.00502264
0.0244118
0.0337783
0.0481901
0.0526018
0.0570136
0.0614254
0.0608371
0.0652489
0.0596606
0.059095
0.0535294
0.0479638
0.0374208
0.0218778
0.00633485
-0.0141855
-0.0247059
-0.0402489
-0.0457919
-0.0513122
-0.05681
-0.0623303
-0.0628281
-0.0633258
-0.0638462
-0.0643665
-0.0648869
-0.0753846
-0.0908597
-0.111312
-0.111787
-0.0973077
-0.0478054
0.0316742
0.141154
0.280611
0.445068
0.584502
0.688891
0.703258
0.662624
0.581968
0.471267
0.355566
0.214819
0.109072
0.0282805
-0.0175339
-0.0483484
-0.0691855
-0.0750453
-0.0609502
-0.0468326
-0.0377602
-0.0387104
-0.039638
-0.0405883
-0.0465385
-0.0475113
-0.0434616
-0.049457
-0.0504751
-0.0514932
-0.0524887
-0.0484616
-0.0494118
-0.0503394
-0.0562896
-0.0522172
-0.0531222
-0.0540272
-0.0549321
-0.0558145
-0.0566516
-0.0574661
-0.0532353
-0.0540045
-0.0497511
-0.0504751
-0.0511765
-0.0518552
-0.0524887
-0.0480995
-0.0536652
-0.0492081
-0.0497511
-0.0502715
-0.0507466
-0.0511991
-0.046629
-0.0470362
-0.0473982
-0.0477376
-0.0430769
-0.0383937
-0.0336425
-0.0388688
-0.0340272
-0.0292081
-0.0293665
-0.0295023
-0.0295701
-0.0245928
-0.0245475
-0.0194344
-0.0192986
-0.0241403
-0.018914
-0.0186651
-0.023371
-0.023009
-0.0175339
-0.0170136
-0.0164027
-0.0157466
-0.0150452
-0.00929864
-0.00852941
-0.00773756
-0.0069457
-0.00617648
-0.00540724
-0.00963802
-0.00889141
-0.00821267
-0.0126018
-0.0120588
-0.00656109
-0.0061086
-0.00567874
-0.0102262
-0.00477376
-0.00934389
-0.0088914
-0.00341629
-0.00291856
-0.00244345
-0.0019457
-0.00147059
-0.00604073
-0.00570136
0.00463801
4.52437e-05
0.00567873
0.0066742
0.0131674
0.0203167
0.0282353
0.0367647
0.0457918
0.0548869
0.0638235
0.0723982
0.0854977
0.0930769
0.100023
0.106516
0.117624
0.118552
0.124344
0.125068
0.135747
0.136493
0.14733
0.153235
0.14914
0.155045
0.15595
0.161833
0.162715
0.17362
0.179525
0.18043
0.176312
0.177195
0.1731
0.174027
0.169955
0.16586
0.166765
0.167692
0.16362
0.15957
0.15552
0.151493
0.142466
0.143462
0.144434
0.14043
0.131471
0.127511
0.123529
0.119548
0.110588
0.106606
0.107647
0.10371
0.0997738
0.0908371
0.0869005
0.0829864
0.074095
0.070181
0.066267
0.0623529
0.0534842
0.049638
0.0407692
0.0419457
0.0381222
0.0342986
0.0254525
0.0216063
0.0177602
0.00891403
0.00509051
0.00626698
-0.00257918
-0.0064027
-0.0152036
-0.0190498
-0.0228733
-0.0216516
-0.0254072
-0.0291629
-0.0328959
-0.036629
-0.040362
-0.039095
-0.0428507
-0.0366063
-0.0403394
-0.0440724
-0.0478281
-0.0465837
-0.045362
-0.0491855
-0.0480317
-0.0518552
-0.0506787
-0.0595023
-0.0633484
-0.0621719
-0.0660407
-0.0699095
-0.0737783
-0.0676471
-0.0715385
-0.0754525
-0.0793665
-0.0783032
-0.0772172
-0.0761086
-0.0750452
-0.0739593
-0.0728507
-0.0767195
-0.0805656
-0.0744118
-0.0782353
-0.0770362
-0.0808371
-0.079638
-0.0834389
-0.0821493
-0.0808371
-0.0845023
-0.0781448
-0.0817647
-0.0803846
-0.0840045
-0.0776244
-0.0761991
-0.0797737
-0.0833032
-0.08181
-0.0803167
-0.0788009
-0.0772851
-0.0757692
-0.0742534
-0.0776923
-0.0761086
-0.0695249
-0.0679638
-0.0664027
-0.0698869
-0.0683711
-0.0668779
-0.0603846
-0.0638914
-0.0624209
-0.0659503
-0.0645023
-0.068077
-0.0666969
-0.0653621
-0.0590272
-0.0576924
-0.0663802
-0.0651132
-0.0588463
-0.057602
-0.0563802
-0.0552264
-0.0540952
-0.057964
-0.056878
-0.0558146
-0.0547739
-0.0537558
-0.0577604
-0.0518328
-0.0509504
-0.0450681
-0.0492083
-0.0483938
-0.047602
-0.0518328
-0.0460635
-0.0453396
-0.0396608
-0.0390273
-0.0334165
-0.0328282
-0.0323079
-0.0317875
-0.0312672
-0.030792
-0.0353848
-0.0300228
-0.0346834
-0.0393667
-0.0440726
-0.0438463
-0.0486653
-0.0485296
-0.0434617
-0.043439
-0.0384164
-0.0383938
-0.0433938
-0.0434843
-0.0436879
-0.043982
-0.0393666
-0.0347513
-0.0302037
-0.0306562
-0.0311313
-0.0316064
-0.0321268
-0.0326697
-0.0281901
-0.0286878
-0.0241403
-0.0245249
-0.0197964
-0.0150227
-0.0152263
-0.0154072
-0.0205882
-0.0157466
-0.010905
-0.0110634
-0.0161991
-0.0163575
-0.0165611
-0.0117873
-0.0119231
-0.0120362
-0.00708143
-0.00214931
0.00269233
-0.00771493
-0.00855201
-0.00993213
-0.0119909
-0.00970587
-0.0129638
-0.0114706
-0.0149321
-0.0180317
-0.0207466
-0.0229638
-0.0247059
-0.0309276
-0.0317647
-0.0322851
-0.0276019
-0.0278281
-0.0280091
-0.028258
-0.0285973
-0.0290272
-0.0295476
-0.0251132
-0.0257241
-0.0262897
-0.0318553
-0.0324209
-0.0280091
-0.0335974
-0.0342308
-0.034887
-0.0305657
-0.0312671
-0.0319684
-0.0326471
-0.0333485
-0.0340951
-0.0398643
-0.0406335
-0.0414254
-0.0371946
-0.0379639
-0.0387557
-0.0345702
-0.0353847
-0.0412217
-0.0421041
-0.0429864
-0.0388914
-0.0347738
-0.0406561
-0.0415158
-0.0424208
-0.0433484
-0.0492986
-0.0502941
-0.0462669
-0.0422624
-0.0432353
-0.0442081
-0.0451583
-0.0411312
-0.047104
-0.0480995
-0.0491402
-0.0401809
-0.0412443
-0.0423076
-0.0434162
-0.0395474
-0.0307239
-0.026923
-0.0231447
-0.0143665
-0.0105655
-0.0117873
-0.0179864
-0.00920812
0.00454753
0.0232806
0.0370136
0.0557466
0.0545023
0.0632806
0.0620589
0.0608371
0.0596154
0.0583937
0.057172
0.0509276
0.0397059
0.0234616
0.00226247
-0.0189366
-0.0351131
-0.046267
-0.0573982
-0.058552
-0.0647285
-0.0658598
-0.0669684
-0.073077
-0.0692082
-0.0653394
-0.0664933
-0.0826471
-0.0938009
-0.109977
-0.111131
-0.0922851
-0.0434389
0.050362
0.16914
0.312873
0.461561
0.575271
0.628937
0.612624
0.536267
0.449887
0.333439
0.221946
0.10543
0.0188461
-0.0527376
-0.0993665
-0.120973
-0.132624
-0.124276
-0.105996
-0.0827602
-0.0645249
-0.0562896
-0.0530317
-0.0647964
-0.0665611
-0.0633711
-0.065181
-0.066991
-0.0638236
-0.0606335
-0.0624208
-0.0591855
-0.0609728
-0.0627149
-0.0594344
-0.0611312
-0.0578054
-0.0544796
-0.0511086
-0.0577149
-0.0592534
-0.0557918
-0.057285
-0.058733
-0.0551583
-0.0465611
-0.0479411
-0.049276
-0.0505656
-0.0517873
-0.0529864
-0.0491629
-0.0453167
-0.0414479
-0.0375792
-0.0386651
-0.0346832
-0.0356335
-0.0365384
-0.0373982
-0.0332353
-0.0340498
-0.0298642
-0.0206335
-0.0213801
-0.0220588
-0.0177376
-0.013371
-0.0139819
-0.00959275
-0.00513573
-0.00563347
-0.00608596
-0.00649321
-0.00187782
-0.00223981
0.00237557
0.0020362
0.00674208
0.00658371
0.00649321
0.00651584
0.00653846
0.011629
0.0117195
0.0117873
0.0118552
0.0119457
0.0170362
0.0171041
0.0221493
0.0171267
0.0169909
0.0167873
0.0165158
0.0112217
0.015905
0.0155882
0.0102715
0.00995475
0.00966063
0.00932127
0.00900452
0.013733
0.0184615
0.0181448
0.0227828
0.0223529
0.0269457
0.0316289
0.0315384
0.0368552
0.0477375
0.059276
0.0614932
0.0742534
0.0772851
0.0902489
0.0978507
0.115091
0.12681
0.133032
0.143756
0.144095
0.154118
0.153959
0.16371
0.163416
0.178167
0.188032
0.188009
0.188077
0.188213
0.193371
0.193484
0.198597
0.198733
0.203891
0.204072
0.199276
0.194502
0.194728
0.199977
0.190226
0.185452
0.180747
0.176041
0.171357
0.161697
0.157081
0.147466
0.147828
0.138235
0.133643
0.129072
0.119525
0.115023
0.105543
0.101063
0.0915837
0.0820815
0.0776018
0.0731674
0.068733
0.0643213
0.0549321
0.0455656
0.0361991
0.0268552
0.0174887
0.0131448
0.0138235
0.00950227
0.000203624
-0.00404977
-0.00828054
-0.00753393
-0.0167647
-0.0209728
-0.015181
-0.0193439
-0.0234842
-0.0276471
-0.0267873
-0.025905
-0.03
-0.029095
-0.0281674
-0.0222172
-0.0312444
-0.0302715
-0.034276
-0.0332806
-0.0372851
-0.0362896
-0.0302941
-0.0292987
-0.0333032
-0.0323077
-0.0313122
-0.0353168
-0.0342987
-0.0283032
-0.0323303
-0.0313349
-0.035362
-0.0394118
-0.0384389
-0.0424661
-0.0415385
-0.0456109
-0.0397059
-0.0388009
-0.0428959
-0.0419683
-0.0460181
-0.0450679
-0.0441177
-0.0481674
-0.0472398
-0.046267
-0.0402715
-0.044276
-0.0432353
-0.0421719
-0.0461086
-0.0500226
-0.0489367
-0.042828
-0.0466968
-0.0454751
-0.0442308
-0.0479638
-0.0466742
-0.0453846
-0.0490724
-0.0477602
-0.0464253
-0.0450905
-0.0486878
-0.0472398
-0.0458145
-0.0494118
-0.0479864
-0.0465611
-0.0451584
-0.0437104
-0.0472624
-0.0508145
-0.0493665
-0.0479412
-0.0465158
-0.0450905
-0.0436652
-0.0372851
-0.0459276
-0.0445928
-0.0432805
-0.0420136
-0.0457692
-0.0495702
-0.0434389
-0.0473077
-0.0462217
-0.0501584
-0.0491177
-0.0481222
-0.052172
-0.051267
-0.0504299
-0.044638
-0.0488914
-0.0531448
-0.0474209
-0.0467421
-0.0460634
-0.0504299
-0.0448417
-0.0493439
-0.0438688
-0.0484616
-0.048077
-0.0476697
-0.0472851
-0.0469457
-0.051629
-0.0463575
-0.046086
-0.0458598
-0.0456335
-0.0503846
-0.0501584
-0.0449548
-0.0497738
-0.0546154
-0.0544571
-0.0543439
-0.0542308
-0.0590951
-0.0589593
-0.0588688
-0.0637783
-0.0636878
-0.0635973
-0.0585521
-0.0585068
-0.0584389
-0.0583484
-0.0582806
-0.0532127
-0.0531448
-0.053077
-0.0530317
-0.0479638
-0.0529186
-0.0478733
-0.0478733
-0.0479412
-0.0480317
-0.0431675
-0.0433258
-0.0385294
-0.0387104
-0.0388914
-0.0391403
-0.039457
-0.0398643
-0.0353167
-0.0358145
-0.0263801
-0.0319683
-0.0375566
-0.0331222
-0.0336878
-0.0292534
-0.0297964
-0.0253394
-0.0258824
-0.0213801
-0.0217647
-0.0271041
-0.022353
-0.0225566
-0.0177828
-0.0179638
-0.0131448
-0.0133711
-0.0085973
-0.00882354
-0.00904979
-0.00929865
-0.00452489
0.000294112
-0.00484163
0.000113122
0.00506788
-6.78748e-05
-0.000429861
0.00382354
0.0024887
0.000497758
-0.00726242
-0.0107466
-0.00966061
-0.0137556
-0.0176244
-0.0211764
-0.0242081
-0.0216516
-0.0285068
-0.0248416
-0.0208371
-0.0215837
-0.0221946
-0.0227376
-0.0233032
-0.0239367
-0.0196154
-0.0203846
-0.0111765
-0.0119683
-0.0127149
-0.0184841
-0.0192534
-0.015
-0.0207692
-0.0215158
-0.0223077
-0.0130995
-0.0189366
-0.0147511
-0.0155882
-0.0214253
-0.0222624
-0.0231221
-0.0239819
-0.0198868
-0.0207692
-0.0216742
-0.0275565
-0.0284615
-0.0293891
-0.0303393
-0.0312669
-0.0272398
-0.0282579
-0.024276
-0.0252715
-0.0312896
-0.0273303
-0.0283937
-0.0294796
-0.0355882
-0.0367194
-0.0328733
-0.0340045
-0.0351584
-0.0413122
-0.0424887
-0.0436651
-0.0448416
-0.0510633
-0.047285
-0.0485294
-0.0497511
-0.0509954
-0.0472398
-0.0384841
-0.0347511
-0.0310181
-0.027285
-0.023552
-0.0247964
-0.0260181
-0.0172624
-0.0035294
0.0102036
0.0189367
0.0276923
0.0364253
0.0402036
0.0389593
0.0377149
0.0314706
0.0302262
0.0240271
0.0178054
0.0116063
0.000407228
-0.0207692
-0.0369457
-0.0581448
-0.0692987
-0.0704525
-0.0815837
-0.082715
-0.0788236
-0.0799321
-0.0810181
-0.0821041
-0.0831674
-0.0892308
-0.100272
-0.11629
-0.137353
-0.138371
-0.119389
-0.0704073
0.00855202
0.132511
0.276471
0.445385
0.604253
0.698077
0.7369
0.690679
0.609457
0.49319
0.3619
0.230611
0.109231
0.0278507
-0.0235521
-0.0599548
-0.0763801
-0.0778507
-0.0643439
-0.0558824
-0.0423756
-0.0389367
-0.0404525
-0.046991
-0.0485068
-0.0550679
-0.056629
-0.0531448
-0.0597059
-0.0562444
-0.0528055
-0.0492987
-0.0508145
-0.0522851
-0.0537557
-0.0552715
-0.0517195
-0.0531675
-0.0495928
-0.0509955
-0.047353
-0.0537104
-0.0500905
-0.0514254
-0.0477149
-0.0489593
-0.045181
-0.0413349
-0.0424661
-0.0485068
-0.0445249
-0.045543
-0.0414706
-0.037353
-0.0381674
-0.0340272
-0.0298417
-0.0306109
-0.0263349
-0.0270362
-0.022715
-0.0233711
-0.0190045
-0.00961541
-0.0102489
-0.00583714
-0.00638011
-0.00690047
-0.00237558
-0.00280544
0.00183256
0.00149319
0.00619908
0.00597283
0.00579184
0.000633456
0.00549772
0.0104298
0.0104298
0.0104977
0.0106108
0.0157918
0.0160633
0.0163801
0.0117194
0.0170588
0.0173982
0.0127375
0.0180769
0.0183936
0.0187104
0.0190045
0.0192307
0.0193891
0.0144344
0.0144796
0.0145249
0.0145475
0.0145701
0.014638
0.0147059
0.0147737
0.00984162
0.0099095
0.00997736
0.0100226
0.0149774
0.00986424
0.0147737
0.00979637
0.0150226
0.0206108
0.0217647
0.0335973
0.0411991
0.0545249
0.0633032
0.0772624
0.0810407
0.094457
0.102376
0.109729
0.126493
0.132715
0.143575
0.144253
0.149751
0.160181
0.165611
0.176109
0.171652
0.187262
0.187919
0.193575
0.189231
0.194887
0.195543
0.191222
0.1969
0.192557
0.198235
0.193959
0.194706
0.190452
0.191199
0.196946
0.182715
0.183484
0.179276
0.18009
0.170928
0.171787
0.172624
0.163507
0.154412
0.145339
0.141267
0.132217
0.128235
0.114253
0.110249
0.106267
0.0923077
0.083371
0.069457
0.075543
0.0666742
0.062828
0.0539819
0.0501357
0.0413348
0.0375792
0.0338009
0.0300226
0.0313122
0.0276244
0.0189366
0.0152488
0.00656106
0.00289589
-0.000769265
0.000565577
-0.00307696
-0.0116969
-0.0152941
-0.0188914
-0.0224887
-0.0260407
-0.0245702
-0.0230996
-0.0216516
-0.0251584
-0.0336199
-0.0370588
-0.0404751
-0.0389367
-0.042353
-0.0407919
-0.044276
-0.0427828
-0.0462444
-0.0497059
-0.0531674
-0.051629
-0.0451358
-0.0536652
-0.0522172
-0.0557693
-0.0543213
-0.0578507
-0.0564027
-0.0549548
-0.0535068
-0.0520815
-0.0556788
-0.0592987
-0.0528733
-0.0564254
-0.06
-0.0635521
-0.0571493
-0.055724
-0.0542987
-0.0578733
-0.0564254
-0.0549321
-0.0583937
-0.0568552
-0.0602715
-0.0586878
-0.0620588
-0.0654299
-0.0637783
-0.0620588
-0.0603167
-0.0685294
-0.0617421
-0.0599321
-0.0580769
-0.0562217
-0.0543213
-0.0524434
-0.0554977
-0.053552
-0.0565837
-0.054638
-0.0576697
-0.060724
-0.0538009
-0.0518552
-0.0499321
-0.053009
-0.0511086
-0.0491855
-0.047285
-0.0454072
-0.0485294
-0.0417194
-0.0449094
-0.0430995
-0.0462895
-0.0445248
-0.0427375
-0.0459728
-0.0492533
-0.0475791
-0.0459502
-0.0443439
-0.0527601
-0.051199
-0.0497058
-0.0482353
-0.0518099
-0.0504525
-0.0491629
-0.0478959
-0.0516063
-0.0503619
-0.0491402
-0.0429638
-0.0518099
-0.0557239
-0.0496832
-0.0436425
-0.0476018
-0.0515837
-0.0455882
-0.044638
-0.0437104
-0.0428506
-0.0420362
-0.0362443
-0.0404525
-0.0396606
-0.043914
-0.04319
-0.0474886
-0.0518099
-0.0511538
-0.0505203
-0.0448868
-0.0542307
-0.0586199
-0.0630769
-0.0675339
-0.0620588
-0.0666289
-0.0612443
-0.0558597
-0.0454977
-0.0551583
-0.0548642
-0.0545927
-0.0543891
-0.044276
-0.0442307
-0.0392986
-0.0394117
-0.0395701
-0.0447511
-0.0399321
-0.0401131
-0.0402941
-0.0404977
-0.0357013
-0.0308823
-0.0410633
-0.0411085
-0.0410859
-0.0409954
-0.0358371
-0.0356334
-0.0304072
-0.0301583
-0.0248868
-0.0295927
-0.0292986
-0.0240271
-0.0237556
-0.0235067
-0.0232352
-0.0179185
-0.0175565
-0.0171266
-0.0167194
-0.0164705
-0.0165384
-0.0170588
-0.0182352
-0.0151131
-0.0177149
-0.0208597
-0.0242533
-0.0276244
-0.0305882
-0.0330995
-0.0349999
-0.0313347
-0.0321492
-0.0325112
-0.0326017
-0.0275112
-0.0273302
-0.032104
-0.031923
-0.0268551
-0.0218778
-0.0219683
-0.0220814
-0.0272171
-0.0273529
-0.0275113
-0.0326696
-0.0278506
-0.0280769
-0.0283257
-0.0285746
-0.0288235
-0.034095
-0.0343891
-0.0346832
-0.035
-0.0303393
-0.030724
-0.0261312
-0.0365384
-0.0369231
-0.0373529
-0.0377828
-0.0382353
-0.0386878
-0.0341855
-0.0297059
-0.0352262
-0.040724
-0.036267
-0.0368326
-0.0374208
-0.0380317
-0.0336425
-0.0292534
-0.0298869
-0.0304751
-0.0361086
-0.0367647
-0.0374434
-0.0381674
-0.0389367
-0.0397512
-0.0355656
-0.0363801
-0.0421946
-0.0380543
-0.0339593
-0.0398869
-0.0308598
-0.0218326
-0.0178281
-0.0188009
-0.0197738
-0.0157014
-0.0116742
-0.0126697
-0.0037104
0.0152489
0.0342534
0.0482579
0.0572851
0.0612896
0.0652715
0.0592308
0.05819
0.0571493
0.0611086
0.0600905
0.0490724
0.0430769
0.0170362
-0.00400452
-0.0250452
-0.046086
-0.0521041
-0.0581222
-0.064095
-0.0750679
-0.0810181
-0.0819909
-0.0829638
-0.0839366
-0.0849321
-0.090905
-0.106878
-0.122851
-0.138846
-0.134842
-0.10086
-0.0419004
0.0620136
0.205905
0.359774
0.51862
0.637466
0.691244
0.68
0.58871
0.482376
0.345995
0.21457
0.0931448
-0.00332581
-0.0647964
-0.106312
-0.132828
-0.144389
-0.135973
-0.112579
-0.0941855
-0.0857693
-0.077353
-0.0789367
-0.0805656
-0.0821946
-0.0838462
-0.080543
-0.0771946
-0.0788462
-0.0804751
-0.0820815
-0.0786652
-0.0852941
-0.0869231
-0.0835294
-0.0800905
-0.0766063
-0.0730996
-0.0745249
-0.0809729
-0.0773756
-0.0787783
-0.0751584
-0.0714932
-0.0727828
-0.0740045
-0.070181
-0.0713349
-0.0674887
-0.0685747
-0.059638
-0.0556561
-0.056629
-0.0575339
-0.0533711
-0.0591855
-0.0549548
-0.0507466
-0.0515159
-0.0422851
-0.0380091
-0.0337104
-0.0344118
-0.0350679
-0.0307014
-0.0313349
-0.0269457
-0.0275113
-0.0230769
-0.018552
-0.0189593
-0.0193439
-0.0146833
-0.015
-0.0152715
-0.0105204
-0.000769228
-0.000950227
-0.00106335
-0.00104072
-0.000950223
0.00423077
0.00945702
0.00968327
0.0149095
0.0151358
0.0154072
0.010724
0.0160407
0.0163348
0.0166063
0.0167647
0.0168552
0.0168552
0.0167873
0.0167195
0.0116516
0.0115611
0.011448
0.0113122
0.0111765
0.0160407
0.0209502
0.0158597
0.0157466
0.0205882
0.025362
0.0250679
0.0297512
0.0346154
0.0447512
0.0503846
0.0566742
0.0686878
0.0714254
0.0897285
0.0982805
0.111787
0.124887
0.137534
0.149593
0.156086
0.167036
0.167557
0.177805
0.182851
0.192783
0.192692
0.19767
0.20276
0.202919
0.203145
0.203416
0.208688
0.208937
0.214208
0.21948
0.214751
0.215068
0.210385
0.205724
0.201063
0.206403
0.206719
0.202059
0.192421
0.187805
0.183235
0.17371
0.169163
0.15957
0.16
0.155453
0.145928
0.136448
0.126968
0.122489
0.113054
0.108597
0.0991629
0.0947059
0.0853168
0.0759503
0.0665837
0.0572172
0.0528733
0.0435068
0.0441403
0.039819
0.0404978
0.0312217
0.026991
0.0277828
0.0235747
0.0193439
0.0151358
0.015905
0.0117421
0.00757921
-0.00156107
-0.00567871
-0.00479636
-0.013914
-0.0180543
-0.0221719
-0.021267
-0.0203393
-0.0243665
-0.0183936
-0.0273982
-0.0264027
-0.0353846
-0.0393665
-0.0333031
-0.0372398
-0.0361765
-0.0451131
-0.0490498
-0.048009
-0.0519683
-0.0509276
-0.0499095
-0.0538688
-0.052828
-0.0567873
-0.0607466
-0.0647285
-0.063733
-0.0677375
-0.0667647
-0.0657918
-0.064819
-0.0738461
-0.0728507
-0.0718552
-0.0758823
-0.0748869
-0.0738688
-0.0628507
-0.0668099
-0.0657466
-0.069638
-0.0685294
-0.0723756
-0.0711991
-0.0750452
-0.0738235
-0.0725792
-0.0712896
-0.0749321
-0.0785294
-0.0821041
-0.0806561
-0.0791855
-0.0777375
-0.0712669
-0.0697511
-0.07319
-0.0766289
-0.0750226
-0.0684163
-0.0718099
-0.0702262
-0.0686425
-0.0620135
-0.065362
-0.0636877
-0.0570135
-0.0603393
-0.0586651
-0.0620135
-0.0604072
-0.0538235
-0.0521945
-0.0555882
-0.0540045
-0.052466
-0.0559502
-0.0594796
-0.0530542
-0.0466741
-0.0453167
-0.0489592
-0.0476244
-0.0513348
-0.0501131
-0.0489139
-0.0527601
-0.0466741
-0.0455882
-0.0395474
-0.0435293
-0.0425565
-0.0416289
-0.0407466
-0.0399321
-0.0391629
-0.0334389
-0.0376923
-0.0369909
-0.0362896
-0.0406108
-0.0399547
-0.0393212
-0.033733
-0.0331674
-0.0276244
-0.037104
-0.0366063
-0.0361086
-0.0356561
-0.0352262
-0.034819
-0.024457
-0.0291402
-0.0338461
-0.033552
-0.0332579
-0.0329638
-0.0376696
-0.0374434
-0.0422171
-0.0370361
-0.0418777
-0.041742
-0.0366515
-0.0365836
-0.0365836
-0.0366289
-0.0316967
-0.0318325
-0.0269456
-0.032104
-0.0323528
-0.0326922
-0.0330995
-0.0285972
-0.0291628
-0.0297284
-0.0252941
-0.0258597
-0.0264253
-0.0219683
-0.0225565
-0.0281448
-0.0236878
-0.0241855
-0.0245701
-0.0248642
-0.0250452
-0.025181
-0.0252941
-0.0204072
-0.0255203
-0.0206561
-0.0157918
-0.0159502
-0.0160859
-0.0162217
-0.0213574
-0.0214479
-0.0164932
-0.0165158
-0.011561
-0.00676465
-0.0022624
-0.00816739
-0.00968322
-0.0119457
-0.0200226
-0.0188009
-0.0228959
-0.0219909
-0.0258145
-0.0342081
-0.0421041
-0.0443665
-0.0410633
-0.0471945
-0.0479864
-0.048552
-0.0440045
-0.0444118
-0.0497964
-0.0452489
-0.0458145
-0.0464253
-0.0470588
-0.0427149
-0.0433936
-0.0390045
-0.0445927
-0.045181
-0.0457918
-0.0464027
-0.0420588
-0.0477375
-0.0433936
-0.0390724
-0.0447285
-0.0454072
-0.0460859
-0.0467873
-0.0474887
-0.0482127
-0.0439819
-0.0397285
-0.0404977
-0.0462443
-0.0420136
-0.0428054
-0.0485973
-0.0494344
-0.0452715
-0.0411086
-0.041923
-0.0427375
-0.0385294
-0.0393891
-0.0452488
-0.0461312
-0.0470361
-0.0429411
-0.0438461
-0.0397058
-0.0406334
-0.0415837
-0.0425565
-0.0485294
-0.0445249
-0.0405656
-0.0416063
-0.0426697
-0.043733
-0.0348416
-0.0309502
-0.0270588
-0.0231901
-0.0193665
-0.0155204
-0.00665158
-0.0128054
-0.00393664
0.0098869
0.0287104
0.037534
0.0513349
0.0601584
0.0589819
0.0528281
0.0516742
0.050543
0.0443891
0.0432579
0.0421041
0.0309276
0.0147737
-0.0113801
-0.0325113
-0.0486425
-0.0647738
-0.070905
-0.0770362
-0.0781675
-0.0793439
-0.0804752
-0.0816064
-0.087715
-0.0888236
-0.0899095
-0.106018
-0.122149
-0.133281
-0.129434
-0.0955656
-0.0316969
0.0621945
0.196041
0.354864
0.528643
0.68233
0.756041
0.749729
0.688394
0.591991
0.485543
0.339027
0.212466
0.0908823
0.00923076
-0.0424208
-0.0741177
-0.0858145
-0.087534
-0.074276
-0.0560407
-0.0478281
-0.044638
-0.046448
-0.0482353
-0.0600453
-0.06181
-0.0636199
-0.0654299
-0.0672625
-0.0640724
-0.0608371
-0.0676244
-0.0693665
-0.0711086
-0.0678281
-0.0645249
-0.0661991
-0.0678733
-0.0645249
-0.0561312
-0.0627149
-0.0592308
-0.0607014
-0.0621493
-0.058552
-0.0599321
-0.0563122
-0.0576697
-0.0589593
-0.0602036
-0.0614027
-0.0625792
-0.0586878
-0.0597964
-0.0559276
-0.0520362
-0.0530996
-0.054095
-0.0550679
-0.0459955
-0.0469005
-0.0427828
-0.0436425
-0.0395475
-0.035362
-0.0361312
-0.0368552
-0.0325792
-0.0282579
-0.0288688
-0.024457
-0.0199774
-0.0104751
-0.015905
-0.016267
-0.0115611
-0.0118778
-0.00714931
-0.00733031
-0.00742082
-0.00246606
-0.00242081
-0.00230769
-0.00717195
-0.0020362
-0.00690047
-0.00176471
-0.00165159
0.00348415
0.00364252
0.00375564
0.00382353
-0.00122171
-0.00135745
-0.00153846
-0.00180995
-0.00210405
0.0025792
0.00728509
0.00201359
0.0067421
0.0014706
0.0011991
-0.00404976
-0.00429863
0.000407256
0.00504528
0.00966066
0.00929867
0.014095
0.0141855
0.0197059
0.0258371
0.0376923
0.055362
0.0587104
0.0674208
0.0811086
0.0995249
0.107534
0.12009
0.131991
0.143303
0.154095
0.154525
0.164751
0.169842
0.174887
0.174932
0.185045
0.190249
0.195498
0.195792
0.196086
0.20138
0.196629
0.2019
0.202172
0.207421
0.202692
0.197986
0.198303
0.193597
0.198891
0.189208
0.184525
0.179887
0.180249
0.175611
0.166018
0.166493
0.156968
0.147466
0.137986
0.133484
0.129027
0.12457
0.120136
0.110724
0.106312
0.0969231
0.0925339
0.0831222
0.083733
0.0843665
0.0800453
0.0707466
0.0614254
0.0571041
0.0528054
0.048552
0.0442987
0.0400679
0.0458371
0.031629
0.0274434
0.0182579
0.0190724
0.00990951
0.00574661
0.00656109
-0.00257918
-0.00169682
-0.0107692
-0.0198642
-0.0239593
-0.0230317
-0.0221041
-0.0261538
-0.0252036
-0.0242534
-0.0282805
-0.0322624
-0.0362443
-0.0402489
-0.0392308
-0.0382579
-0.0372851
-0.0412896
-0.0452941
-0.0442986
-0.0483258
-0.0473529
-0.0463801
-0.0504525
-0.0445249
-0.0436199
-0.0427149
-0.0467873
-0.0508371
-0.0499095
-0.0489593
-0.0530543
-0.0571719
-0.0563122
-0.0604525
-0.0595701
-0.0636652
-0.0627376
-0.06181
-0.0608824
-0.0599774
-0.0590724
-0.0581448
-0.062172
-0.0561312
-0.0600905
-0.0590498
-0.0579412
-0.0617647
-0.0655883
-0.0643665
-0.0580996
-0.0617647
-0.0604073
-0.0640498
-0.0626471
-0.0612217
-0.0597738
-0.0583484
-0.0568778
-0.0553846
-0.0588688
-0.0573303
-0.0557919
-0.0542308
-0.0576923
-0.0561312
-0.0495927
-0.0530316
-0.0514932
-0.0499773
-0.0484615
-0.0469683
-0.0504525
-0.0439819
-0.0475339
-0.0461086
-0.0446606
-0.0482353
-0.0518552
-0.0554525
-0.0541176
-0.0578054
-0.0515611
-0.0553167
-0.054095
-0.0528959
-0.056742
-0.0556108
-0.0594796
-0.0583936
-0.0523756
-0.0513801
-0.0553846
-0.0593891
-0.0584163
-0.0524887
-0.0516064
-0.0557466
-0.0549095
-0.0540951
-0.0532806
-0.0524661
-0.0516516
-0.050905
-0.0501584
-0.0494571
-0.0487557
-0.0430996
-0.0374887
-0.0418553
-0.041267
-0.0406788
-0.0401358
-0.0396381
-0.039163
-0.0386878
-0.038258
-0.0378734
-0.0374888
-0.0371268
-0.0468327
-0.0465385
-0.046267
-0.0460182
-0.0408145
-0.0356788
-0.0406335
-0.0356788
-0.0357919
-0.0309503
-0.0311313
-0.0363349
-0.0265385
-0.0267648
-0.0219458
-0.0221041
-0.0222399
-0.022353
-0.0224209
-0.0223756
-0.0172625
-0.0121041
-0.0119231
-0.0116969
-0.011448
-0.0111991
-0.0109729
-0.0107466
-0.00552036
-0.000316739
0.00490951
0.005181
0.00552037
0.00590498
0.0063801
0.0118326
0.00717195
0.00723983
0.0118326
0.0108145
0.00909505
0.00167423
0.00359731
0.000158399
-0.00332575
-0.00658367
-0.00936648
-0.0066063
-0.00816738
-0.00911761
-0.00957009
-0.0147511
-0.0147285
-0.0145701
-0.0143438
-0.0141402
-0.00898183
-0.0088687
-0.00884607
-0.00886871
