ekg
0
0
0.000999998
0.00285714
-0.00055556
0.000454538
-0.00423077
-0.004
-0.00294117
-0.00236841
-0.00119047
0.0002174
0.006
0.00666668
0.00241379
-0.0016129
-0.00030303
0.00585715
0.00189189
-0.00205129
-0.000975624
-0.00500001
-0.00433333
0.00138298
0.00224489
0.00323529
0.00424529
0.00527273
0.00140351
0.00245763
-0.00155739
-0.0057143
-0.00492311
-0.00417913
-0.00355073
-0.00323945
-0.0030822
-0.00293335
-0.00779221
-0.00759494
-0.00746915
-0.00734941
-0.00747058
-0.00275862
-0.00303371
-0.00335165
-0.00860215
-0.00894737
-0.0146907
-0.0206061
-0.0165842
-0.0232039
-0.0252381
-0.027243
-0.0339908
-0.0356306
-0.0422124
-0.0386087
-0.0448291
-0.0460504
-0.0422727
-0.0434553
-0.0446
-0.0458268
-0.0469767
-0.0474427
-0.0479323
-0.0518518
-0.0585401
-0.0724101
-0.0868085
-0.0996154
-0.0995862
-0.10085
-0.106409
-0.106788
-0.102026
-0.107
-0.106783
-0.106321
-0.100714
-0.105061
-0.0993636
-0.0935928
-0.0877811
-0.0820175
-0.0813584
-0.0807429
-0.0801695
-0.0746927
-0.0793094
-0.0789344
-0.0786487
-0.0784225
-0.0683069
-0.0582984
-0.0483161
-0.0434103
-0.0436802
-0.0441457
-0.0348756
-0.0158374
0.00292683
0.0114251
0.019689
0.0177725
0.0107747
0.00367442
-0.00324885
-0.00490867
-0.006267
-0.00717197
-0.00805433
-0.0138688
-0.0196154
-0.0253394
-0.0259955
-0.0266516
-0.0222625
-0.0228733
-0.0234616
-0.0240046
-0.0245475
-0.0250227
-0.0254751
-0.0209276
-0.0164027
-0.0168779
-0.0273304
-0.0528055
-0.0783032
-0.0837783
-0.0442534
0.0652715
0.269819
0.549344
0.863891
1.12344
1.33299
1.35751
1.24706
1.02161
0.716109
0.435633
0.215136
0.089638
0.0341629
0.0137104
0.00825789
-0.00223985
-0.00269234
-0.00814482
-0.0185973
-0.0290272
-0.0394344
-0.0448417
-0.0552489
-0.0656561
-0.0760634
-0.081448
-0.0868552
-0.0872398
-0.0926245
-0.0930091
-0.0983711
-0.103756
-0.104118
-0.10948
-0.109796
-0.110136
-0.105475
-0.100815
-0.101176
-0.101516
-0.0968552
-0.097172
-0.0974887
-0.0927828
-0.0880769
-0.0833711
-0.0836425
-0.0838914
-0.0841403
-0.0793665
-0.0745701
-0.0747738
-0.0699774
-0.0651584
-0.060362
-0.0555656
-0.0507692
-0.0509276
-0.0511086
-0.046267
-0.0414027
-0.0315158
-0.0216063
-0.0117194
-0.00183256
0.0130543
0.0279865
0.0379186
0.0528733
0.0678281
0.0827602
0.0977376
0.112738
0.127783
0.137851
0.152941
0.158032
0.16819
0.168439
0.183778
0.184186
0.174638
0.165091
0.150543
0.140973
0.121357
0.111719
0.0920815
0.0874434
0.0728054
0.0581448
0.0484842
0.0338235
0.0291403
0.0194344
0.0197511
0.0150679
0.00533937
0.00561086
-0.00411764
-0.00886877
-0.0136199
-0.013371
-0.0131222
-0.0128733
-0.0126697
-0.0125566
-0.0175339
-0.0225339
-0.0223529
-0.0217194
-0.0152036
-0.017466
-0.0133258
-0.00800905
-0.00171945
-0.000339382
0.000497731
0.0102715
0.00861991
0.0156787
0.0167873
0.0123529
0.00769231
0.00798643
0.0132806
0.00355204
0.00384616
0.00411765
-0.000656107
-0.000429861
-0.000226242
2.32831e-09
-0.00479638
-0.00463801
-0.0145249
-0.0144344
-0.0143665
-0.0192986
-0.019276
-0.0242534
-0.0242534
-0.0292986
-0.0343213
-0.0393213
-0.0392308
-0.0390272
-0.0336652
-0.0282805
-0.0331674
-0.0335747
-0.0399321
-0.0425339
-0.0514253
-0.056448
-0.0571493
-0.0629186
-0.0681674
-0.0724208
-0.0754073
-0.0821041
-0.0878054
-0.0879864
-0.0878959
-0.0876923
-0.0874435
-0.0871493
-0.0917873
-0.0914254
-0.0910181
-0.0905204
-0.0899548
-0.0893213
-0.0835747
-0.0827602
-0.0818778
-0.0859276
-0.0899095
-0.0938235
-0.0926697
-0.0864253
-0.0851131
-0.078733
-0.0772624
-0.075724
-0.079095
-0.0773756
-0.0806109
-0.0787783
-0.0769231
-0.08
-0.0780769
-0.0761765
-0.0793213
-0.0775339
-0.0708145
-0.0641629
-0.0625566
-0.0610407
-0.0595475
-0.0581674
-0.0618552
-0.0656335
-0.059457
-0.0533258
-0.0522398
-0.0511991
-0.0402263
-0.0392987
-0.0384163
-0.0326244
-0.0319005
-0.0262443
-0.0206335
-0.0200679
-0.0195701
-0.0241403
-0.0287783
-0.0284842
-0.0282806
-0.0181222
-0.00803168
0.00203619
0.00703619
0.0069457
0.00180995
0.00660633
0.0163575
0.0260407
0.035724
0.040362
0.0300226
0.0247285
0.019457
0.00920814
0.00402714
-0.00106336
-0.00613123
-0.00613123
-0.00606336
-0.0159729
-0.0208145
-0.0306109
-0.035362
-0.0351131
-0.034819
-0.0345249
-0.0342082
-0.0338462
-0.0284842
-0.0280996
-0.0277376
-0.022353
-0.0269683
-0.0366063
-0.0562217
-0.0808371
-0.11043
-0.11
-0.0495475
0.0658823
0.281312
0.556742
0.842172
1.0976
1.25305
1.27355
1.15905
0.939525
0.660023
0.380498
0.165973
0.0514253
-0.00309955
-0.0226018
-0.0270815
-0.0315611
-0.0410407
-0.040543
-0.0500452
-0.0645249
-0.0739819
-0.0784163
-0.0928507
-0.0972624
-0.101674
-0.101086
-0.10052
-0.104955
-0.104412
-0.108869
-0.108303
-0.107738
-0.112172
-0.111606
-0.121041
-0.12552
-0.129977
-0.13448
-0.138959
-0.138439
-0.137919
-0.142398
-0.141878
-0.141403
-0.135905
-0.140407
-0.139819
-0.139208
-0.13862
-0.128032
-0.127443
-0.116878
-0.121312
-0.115724
-0.115113
-0.104502
-0.0938688
-0.0932127
-0.0825792
-0.0719457
-0.061267
-0.0506109
-0.0399095
-0.0291629
-0.0134389
0.0023077
0.0180091
0.0287104
0.0443892
0.0550679
0.0707919
0.0815385
0.0923303
0.1131
0.123869
0.13957
0.145271
0.155995
0.161765
0.167579
0.168416
0.159208
0.149955
0.140679
0.126312
0.1119
0.0974435
0.0829186
0.0683711
0.0587783
0.0441177
0.0344118
0.0246154
0.0197059
0.00975114
-0.000226229
-0.0052036
-0.0151584
-0.0200679
-0.0249321
-0.0247964
-0.029638
-0.0344344
-0.0342308
-0.0440498
-0.0439367
-0.048914
-0.0490045
-0.049095
-0.048914
-0.0482127
-0.0515385
-0.0486199
-0.0494344
-0.0491176
-0.0480995
-0.0420135
-0.0314479
-0.0318551
-0.0234841
-0.0262895
-0.0249773
-0.0292307
-0.0340497
-0.0396832
-0.04138
-0.0444343
-0.0488687
-0.0543664
-0.0655882
-0.0766741
-0.0870135
-0.0911538
-0.0939818
-0.0957013
-0.0967194
-0.0973529
-0.102783
-0.103145
-0.103439
-0.103733
-0.104027
-0.0993212
-0.0996606
-0.0999321
-0.0952036
-0.100475
-0.0957466
-0.101041
-0.10138
-0.106765
-0.107149
-0.107534
-0.102896
-0.108235
-0.103552
-0.118891
-0.124208
-0.119502
-0.119796
-0.120045
-0.120317
-0.125566
-0.125837
-0.126086
-0.126335
-0.131561
-0.126742
-0.121946
-0.122127
-0.127285
-0.122398
-0.127511
-0.132579
-0.127602
-0.132557
-0.127466
-0.132376
-0.127262
-0.127127
-0.126991
-0.12181
-0.121606
-0.111403
-0.111154
-0.100905
-0.0956109
-0.0903167
-0.0900452
-0.089819
-0.0896154
-0.089457
-0.0843891
-0.0844344
-0.0745927
-0.0699095
-0.0653393
-0.0559276
-0.0516289
-0.042466
-0.0383936
-0.034457
-0.0256561
-0.00692303
0.00176474
0.00542989
0.00407242
-0.0022398
-0.013552
-0.019819
-0.0210633
-0.0272398
-0.033371
-0.039457
-0.0454751
-0.0514932
-0.0574208
-0.0633032
-0.0641403
-0.0649321
-0.0656787
-0.0664027
-0.0671041
-0.0627828
-0.0584616
-0.0591403
-0.054819
-0.0554978
-0.0611539
-0.07181
-0.0924434
-0.1131
-0.103733
-0.0343892
0.124955
0.354299
0.648643
0.942986
1.17735
1.32672
1.28106
1.10538
0.834683
0.529004
0.278326
0.11767
0.0320135
-0.0136426
-0.0343213
-0.0499774
-0.0556335
-0.0562896
-0.0569457
-0.0526018
-0.0682806
-0.0789367
-0.0845702
-0.0902037
-0.0908145
-0.086448
-0.0770815
-0.0777376
-0.0833937
-0.0890498
-0.0946607
-0.0952941
-0.0959276
-0.101606
-0.107308
-0.107986
-0.108688
-0.104367
-0.100068
-0.100792
-0.101516
-0.10224
-0.0979638
-0.098733
-0.094457
-0.0901584
-0.0858371
-0.0865385
-0.0772172
-0.0779412
-0.0786878
-0.0794118
-0.0751584
-0.0608824
-0.056629
-0.047353
-0.0380769
-0.0337783
-0.029457
-0.0201358
-0.0107692
-0.00140272
0.00298642
0.00739818
0.0218326
0.036267
0.0457014
0.0551584
0.0645928
0.0790271
0.0934615
0.112941
0.122443
0.141968
0.151538
0.166154
0.175837
0.190543
0.210249
0.214977
0.219796
0.214615
0.209457
0.194276
0.184027
0.168688
0.158281
0.142805
0.12724
0.111629
0.0959729
0.0852941
0.0645702
0.0487783
0.0378959
0.0269231
0.0159276
0.00993215
-0.0010407
-0.00696831
-0.0128507
-0.0186878
-0.0245022
-0.0252715
-0.0260407
-0.0318099
-0.0326018
-0.0334615
-0.0393665
-0.0402036
-0.0457013
-0.0504977
-0.0492307
-0.0466516
-0.0477375
-0.0427602
-0.0371041
-0.0316516
-0.0270136
-0.0285973
-0.0265611
-0.0306109
-0.0302941
-0.0302715
-0.0304299
-0.0358145
-0.0367421
-0.0385294
-0.0415385
-0.0409276
-0.0415611
-0.0534163
-0.0606335
-0.0726471
-0.0787783
-0.083552
-0.0869683
-0.0891177
-0.0905656
-0.0916742
-0.0976697
-0.0986426
-0.0945701
-0.100475
-0.101357
-0.10224
-0.0980769
-0.103869
-0.0996154
-0.100294
-0.100905
-0.101493
-0.102059
-0.0975792
-0.1031
-0.103597
-0.10905
-0.10948
-0.10991
-0.105294
-0.105679
-0.106041
-0.106403
-0.106765
-0.107059
-0.10733
-0.107557
-0.11276
-0.112941
-0.1131
-0.113235
-0.113348
-0.108416
-0.108484
-0.108529
-0.108507
-0.108416
-0.113303
-0.108145
-0.102964
-0.102738
-0.102511
-0.10224
-0.101946
-0.101584
-0.106222
-0.110837
-0.110385
-0.10491
-0.0993439
-0.0988235
-0.0882806
-0.0878054
-0.0823982
-0.0721041
-0.0619005
-0.0518326
-0.0369005
-0.0221041
-0.0174661
-0.0129638
-0.0135747
-0.00927602
-6.78822e-05
0.0140498
0.0331448
0.0372172
0.0362896
0.0303846
0.0194796
0.0136425
0.0078733
0.00217194
-0.00348417
-0.00407241
-0.00959276
-0.0150679
-0.0204977
-0.0308824
-0.0362217
-0.0415385
-0.0368326
-0.0421267
-0.0373982
-0.0376244
-0.0378733
-0.0380996
-0.0383032
-0.0335068
-0.0336878
-0.0338462
-0.0440045
-0.0641855
-0.0843665
-0.0895023
-0.0596154
0.0452489
0.230136
0.500023
0.804932
1.08486
1.33982
1.40977
1.35973
1.15966
0.859593
0.564548
0.294502
0.13948
0.059457
0.0294344
0.0194118
0.00938915
0.00443441
-0.00552035
-0.0104751
-0.0204299
-0.0303393
-0.0352715
-0.045181
-0.0600679
-0.0649547
-0.069819
-0.0746606
-0.0744796
-0.0743212
-0.0791629
-0.0790271
-0.0788914
-0.078733
-0.0785294
-0.0833258
-0.0830995
-0.0778733
-0.0776244
-0.0773982
-0.0771493
-0.0718778
-0.071629
-0.0713575
-0.066086
-0.0608145
-0.0605656
-0.0552941
-0.0550226
-0.0547285
-0.0544344
-0.0491403
-0.0488688
-0.043552
-0.03819
-0.0228507
-0.0125113
-0.00717194
-0.00180995
0.00855204
0.018914
0.0142534
0.0245928
0.0249774
0.0403846
0.0407919
0.0512443
0.0616968
0.0721719
0.0826923
0.0982806
0.118891
0.13457
0.155294
0.171018
0.181742
0.192443
0.193167
0.198914
0.194728
0.190633
0.181584
0.172534
0.163462
0.144344
0.125226
0.106086
0.091923
0.0777149
0.0634841
0.0492081
0.0398868
0.030543
0.0161086
0.0116289
0.00208143
-0.00246609
-0.00705885
-0.0166516
-0.0162444
-0.0208597
-0.025543
-0.0252941
-0.0300679
-0.0398416
-0.0395701
-0.0393213
-0.0391403
-0.0490272
-0.053914
-0.0536425
-0.0578733
-0.0562444
-0.0583711
-0.0540951
-0.0484842
-0.0466969
-0.0396154
-0.0327602
-0.02681
-0.0272172
-0.0239593
-0.0269005
-0.025543
-0.0245701
-0.0287557
-0.0279864
-0.0372625
-0.0414932
-0.0406561
-0.0397285
-0.0438235
-0.0431674
-0.0430543
-0.0488914
-0.051086
-0.0596833
-0.0695701
-0.0754299
-0.0814932
-0.0871946
-0.0919231
-0.0953394
-0.102443
-0.108394
-0.10871
-0.113756
-0.113688
-0.118552
-0.113416
-0.118281
-0.1231
-0.122828
-0.127511
-0.127127
-0.126652
-0.121109
-0.120543
-0.119932
-0.124321
-0.123688
-0.123032
-0.12233
-0.126606
-0.130837
-0.125045
-0.124186
-0.123281
-0.12733
-0.126357
-0.130294
-0.129186
-0.1281
-0.131968
-0.130837
-0.129615
-0.128394
-0.127127
-0.125837
-0.124502
-0.128145
-0.121697
-0.120158
-0.113575
-0.106923
-0.100226
-0.0935068
-0.0917647
-0.085
-0.0832127
-0.0814253
-0.0846833
-0.0830091
-0.0814027
-0.0798869
-0.0835068
-0.0822624
-0.0811538
-0.0751584
-0.0692986
-0.0635294
-0.0578959
-0.0573756
-0.0469683
-0.0416968
-0.0314932
-0.0264027
-0.0213801
-0.0164253
-0.0165837
-0.0117873
0.00294118
0.0176244
0.0273077
0.0269683
0.0166063
0.0113122
0.00608597
0.000904977
-0.00423077
-0.00932127
-0.0143665
-0.0193665
-0.0242986
-0.0292081
-0.044095
-0.048914
-0.0437104
-0.0434615
-0.04319
-0.0428733
-0.0425339
-0.0471946
-0.0468326
-0.041448
-0.0360634
-0.0356787
-0.0352941
-0.0499321
-0.0745701
-0.0992081
-0.103824
-0.0584615
0.0569005
0.257262
0.542602
0.847941
1.12826
1.33855
1.38387
1.30421
1.08457
0.794932
0.505294
0.250634
0.11095
0.0462896
0.0216063
0.0119457
0.0122624
0.0126018
0.00294118
-0.0117421
-0.0214253
-0.0361086
-0.0507692
-0.0604299
-0.0650453
-0.069638
-0.0692534
-0.0738914
-0.0785747
-0.0832353
-0.0878959
-0.0925566
-0.0922172
-0.0918326
-0.091448
-0.096086
-0.0957014
-0.105317
-0.104955
-0.104593
-0.104231
-0.103869
-0.108529
-0.108167
-0.107828
-0.102489
-0.102149
-0.0967873
-0.101425
-0.101041
-0.0956561
-0.0902489
-0.084819
-0.0793891
-0.0739593
-0.0785294
-0.0780995
-0.0826923
-0.0773077
-0.0719683
-0.066629
-0.0563122
-0.0460181
-0.0357466
-0.0254977
-0.0152036
0.00011313
0.0054525
0.0207919
0.0361539
0.0515159
0.0669005
0.0773077
0.0927828
0.103281
0.113824
0.129389
0.139955
0.150498
0.156086
0.156697
0.15733
0.152919
0.138439
0.123937
0.114389
0.0947964
0.0800905
0.0703167
0.0554751
0.0405882
0.0307013
0.0258145
0.010905
0.000972852
-0.0088914
-0.013733
-0.023552
-0.0333258
-0.0330769
-0.0428054
-0.0474887
-0.047104
-0.0516968
-0.0512896
-0.0559049
-0.0605882
-0.0604072
-0.065362
-0.0653393
-0.0651357
-0.0644118
-0.0628054
-0.0599095
-0.0555882
-0.0499095
-0.0481674
-0.0461312
-0.0445023
-0.039276
-0.0361086
-0.0355204
-0.0375113
-0.0465611
-0.051991
-0.0631222
-0.0691177
-0.0743892
-0.0834163
-0.0861765
-0.0876923
-0.0933937
-0.0987104
-0.0988688
-0.103982
-0.109072
-0.104163
-0.104231
-0.0942987
-0.0993665
-0.0993892
-0.104389
-0.109389
-0.114344
-0.114276
-0.109163
-0.119072
-0.118937
-0.118824
-0.11871
-0.118552
-0.123416
-0.118235
-0.123077
-0.117919
-0.117738
-0.117534
-0.122308
-0.127081
-0.126855
-0.126652
-0.126425
-0.126199
-0.12095
-0.115701
-0.115452
-0.110226
-0.105
-0.0997964
-0.0946153
-0.0943891
-0.0891855
-0.0839592
-0.0837104
-0.0784615
-0.08819
-0.0878959
-0.0875565
-0.0822398
-0.0818778
-0.0815158
-0.0761312
-0.0757239
-0.0803167
-0.0798869
-0.0844796
-0.0840724
-0.0836425
-0.0732352
-0.067828
-0.0574434
-0.0520814
-0.0417647
-0.0365158
-0.03638
-0.0313348
-0.0264027
-0.00658367
0.00314484
0.0128055
0.0174209
0.011991
0.00656114
-0.0038461
-0.00427596
-0.0146832
-0.0200904
-0.0254977
-0.0358597
-0.0411991
-0.0514932
-0.061742
-0.0719683
-0.0721493
-0.0723303
-0.0674887
-0.0676244
-0.0627601
-0.0578506
-0.0579411
-0.053009
-0.0530995
-0.0481447
-0.04819
-0.0582352
-0.0782352
-0.103235
-0.123235
-0.113258
-0.0233031
0.141652
0.421606
0.736561
1.05152
1.29143
1.42133
1.38124
1.22115
0.946063
0.65595
0.365815
0.175679
0.0755204
0.025362
0.00520363
-0.00495475
-0.0101357
-0.0152715
-0.0204072
-0.0254977
-0.0406109
-0.0507013
-0.0557692
-0.0658597
-0.0709729
-0.081086
-0.0811765
-0.0913123
-0.096448
-0.0966064
-0.106765
-0.1019
-0.112059
-0.112195
-0.112353
-0.117489
-0.117647
-0.122805
-0.117986
-0.12319
-0.118371
-0.118552
-0.113733
-0.113914
-0.10905
-0.104163
-0.104299
-0.104412
-0.104502
-0.0945702
-0.0995928
-0.0896154
-0.0846154
-0.0795928
-0.0695702
-0.0645475
-0.0595702
-0.0545928
-0.0446154
-0.039638
-0.0246833
-0.0147511
-0.00481901
0.00509049
0.0149548
0.029819
0.0396154
0.0494344
0.0642534
0.0741403
0.0840498
0.0889819
0.0989141
0.108824
0.118733
0.123597
0.138462
0.143326
0.148258
0.15319
0.148077
0.142919
0.132692
0.122443
0.112149
0.0969005
0.086629
0.0813575
0.0610634
0.0457466
0.0354525
0.0151358
0.00481904
-0.00552033
-0.0108144
-0.0161086
-0.0264027
-0.0316742
-0.041923
-0.0471493
-0.0523755
-0.0475791
-0.0577828
-0.0579864
-0.0582126
-0.0685067
-0.0688914
-0.0743212
-0.0747285
-0.0749321
-0.0747285
-0.0740497
-0.0727375
-0.0711086
-0.0645022
-0.0632126
-0.0675339
-0.0676018
-0.0682127
-0.0692082
-0.0653168
-0.0663801
-0.067172
-0.0726245
-0.0729186
-0.0781448
-0.0783485
-0.0835521
-0.0837783
-0.0840272
-0.0842987
-0.0896154
-0.0999548
-0.100249
-0.100566
-0.100882
-0.101222
-0.101538
-0.1019
-0.0972851
-0.097647
-0.103077
-0.103462
-0.103914
-0.104367
-0.104796
-0.100249
-0.100679
-0.101176
-0.101652
-0.107172
-0.10767
-0.10819
-0.108665
-0.114163
-0.114638
-0.110113
-0.110588
-0.111086
-0.111606
-0.117081
-0.117579
-0.118054
-0.118552
-0.119072
-0.11457
-0.115068
-0.115588
-0.116086
-0.111584
-0.107081
-0.102579
-0.0980542
-0.0935294
-0.0890271
-0.0895248
-0.0799773
-0.0854524
-0.0859275
-0.09138
-0.0918552
-0.0873529
-0.0828732
-0.0684162
-0.0639592
-0.0545022
-0.0500904
-0.0456334
-0.041199
-0.031742
-0.0122624
0.00221724
0.0116969
0.0111539
0.0106335
0.000135794
-0.00536193
-0.0108597
-0.0113122
-0.0168099
-0.0273529
-0.0328733
-0.0434389
-0.0489819
-0.0595248
-0.0600452
-0.0555429
-0.0610859
-0.0616289
-0.0622171
-0.0628054
-0.0633936
-0.0639366
-0.0595022
-0.0550452
-0.0505882
-0.051199
-0.0667873
-0.0924208
-0.128054
-0.128688
-0.0693212
0.0700679
0.31448
0.633914
0.943371
1.20783
1.33226
1.29172
1.10118
0.835656
0.535181
0.284706
0.109231
0.0237104
-0.0117873
-0.027285
-0.0327602
-0.0332579
-0.0337556
-0.0342308
-0.0397285
-0.0452262
-0.0607692
-0.0663122
-0.0718552
-0.0773982
-0.0829412
-0.0834841
-0.0840271
-0.0895475
-0.0850679
-0.0906109
-0.0861312
-0.0866516
-0.0921719
-0.0926923
-0.0981901
-0.0886652
-0.0891403
-0.0846154
-0.0851131
-0.0805882
-0.0860407
-0.081448
-0.0818778
-0.0773077
-0.0777149
-0.0731448
-0.0685747
-0.0689819
-0.0694118
-0.064819
-0.0552263
-0.0456335
-0.0410634
-0.0364253
-0.0267873
-0.0271493
-0.0175113
-0.0128281
0.0018552
0.00656109
0.016267
0.0309502
0.0406335
0.0453167
0.0600453
0.0697511
0.0794344
0.0940724
0.108688
0.118326
0.132964
0.14267
0.152398
0.167217
0.172081
0.181968
0.1819
0.181878
0.176923
0.172036
0.167217
0.152398
0.137557
0.122647
0.112715
0.0977376
0.0877149
0.0826697
0.0675792
0.0574661
0.0422851
0.0320362
0.0216742
0.011267
0.0108597
0.0054751
0.00513573
-0.000181005
-0.0054525
-0.0106561
-0.0158145
-0.0209276
-0.0209955
-0.0160407
-0.0210634
-0.0161086
-0.0162444
-0.0165158
-0.0167647
-0.0217421
-0.026086
-0.0293439
-0.0261539
-0.0215611
-0.0157692
-0.0144118
-0.00821267
-0.00787331
-0.0087104
-0.00583711
-0.00395928
0.00223982
-0.00196833
-0.00662896
-0.0120588
-0.0135747
-0.0164027
-0.0255882
-0.0257919
-0.0366516
-0.0423529
-0.0473756
-0.0512896
-0.053914
-0.0554299
-0.0561538
-0.0564706
-0.0565837
-0.0566516
-0.0566742
-0.0617195
-0.0617421
-0.0617647
-0.0617647
-0.0617195
-0.0666516
-0.0665158
-0.0663575
-0.0661539
-0.070905
-0.0756335
-0.0853394
-0.085
-0.0846606
-0.084276
-0.0788914
-0.0784842
-0.0830543
-0.0825792
-0.0870814
-0.0865611
-0.0859955
-0.0803846
-0.0897511
-0.0891176
-0.0884163
-0.0877149
-0.0919457
-0.0861538
-0.0853167
-0.079457
-0.0685973
-0.0626697
-0.0617195
-0.0607466
-0.0597285
-0.0536878
-0.0476018
-0.0414706
-0.0403167
-0.0341403
-0.0329412
-0.0317195
-0.0404751
-0.0442081
-0.0429412
-0.0466516
-0.0453846
-0.0391403
-0.0379638
-0.0418326
-0.0407692
-0.034819
-0.0290045
-0.0283032
-0.0226923
-0.0122172
-0.0118552
-0.0115611
-0.0113801
-0.00626697
0.00375566
0.018733
0.0287104
0.0336878
0.0236878
0.013733
0.00882352
-0.00101811
-0.0158371
-0.0255882
-0.0302715
-0.0349321
-0.0345249
-0.0390498
-0.048552
-0.0530091
-0.0573982
-0.0617421
-0.0610407
-0.0603394
-0.0546606
-0.0539819
-0.0532805
-0.0525339
-0.0517873
-0.0560181
-0.0552263
-0.059457
-0.0736652
-0.102873
-0.127059
-0.121244
-0.0554299
0.100362
0.336131
0.626946
0.92776
1.15357
1.29439
1.2552
1.09104
0.8419
0.55276
0.303597
0.124457
0.0353394
-0.00875567
-0.0228733
-0.026991
-0.0261086
-0.0252263
-0.0242987
-0.0333484
-0.0423756
-0.0513801
-0.0553846
-0.0593891
-0.063371
-0.0723303
-0.0713122
-0.0803168
-0.0843439
-0.0833484
-0.0873529
-0.0863575
-0.0853394
-0.0842986
-0.0932806
-0.0972398
-0.0961991
-0.095181
-0.0941403
-0.0930769
-0.0870588
-0.0910407
-0.0900226
-0.0939819
-0.0929638
-0.0869005
-0.0858597
-0.0747738
-0.0736425
-0.0674661
-0.0663122
-0.0601358
-0.0539367
-0.0527376
-0.0464932
-0.0352489
-0.0290045
-0.0177828
-0.0115611
-0.00533938
0.00583709
0.0119683
0.0180769
0.0241629
0.0302262
0.0413348
0.0474208
0.0584842
0.0695249
0.0855656
0.0966289
0.107692
0.123801
0.139932
0.151041
0.162127
0.168167
0.174186
0.175226
0.166312
0.157421
0.153552
0.13957
0.130475
0.11129
0.102014
0.0826923
0.063371
0.0540724
0.0397737
0.0304977
0.0211991
0.0168552
0.00251131
-0.00683258
-0.0161991
-0.0205204
-0.019819
-0.0240951
-0.0283711
-0.0376245
-0.0368779
-0.0461539
-0.0504299
-0.0497059
-0.0590272
-0.0583937
-0.0629186
-0.0575566
-0.062172
-0.0614028
-0.0598191
-0.0671268
-0.063258
-0.0634164
-0.0533485
-0.0537331
-0.0556788
-0.059706
-0.0607467
-0.0585521
-0.0671042
-0.0755657
-0.0831675
-0.0796155
-0.0801132
-0.0800227
-0.0846155
-0.0940725
-0.0984616
-0.102896
-0.107353
-0.111901
-0.111471
-0.116041
-0.120634
-0.120226
-0.119796
-0.124389
-0.128982
-0.128552
-0.128145
-0.127738
-0.132353
-0.131991
-0.136652
-0.141358
-0.136063
-0.140792
-0.140498
-0.140249
-0.14
-0.139774
-0.144548
-0.144321
-0.149118
-0.143891
-0.14871
-0.148507
-0.153326
-0.148145
-0.152986
-0.157806
-0.152602
-0.157443
-0.152263
-0.152082
-0.141923
-0.141765
-0.141606
-0.141448
-0.136267
-0.131086
-0.130928
-0.125769
-0.130656
-0.125566
-0.12552
-0.120475
-0.115453
-0.115407
-0.115362
-0.120339
-0.115294
-0.110249
-0.105204
-0.095181
-0.085181
-0.0802263
-0.0752942
-0.0704525
-0.0706787
-0.0559728
-0.0413575
-0.0267873
-0.0172851
-0.0228055
-0.0333484
-0.043914
-0.049457
-0.055
-0.0555204
-0.0560181
-0.0614932
-0.0669909
-0.0674661
-0.0779186
-0.083371
-0.0837783
-0.0841855
-0.0895927
-0.0900226
-0.0854298
-0.0908597
-0.0913122
-0.0867194
-0.0921493
-0.0875565
-0.0879864
-0.0883936
-0.108801
-0.134185
-0.14457
-0.115023
-0.0304751
0.144027
0.383552
0.688054
0.982557
1.17704
1.27652
1.19102
0.990498
0.709955
0.409412
0.183869
0.0483032
-0.0222624
-0.052828
-0.0684389
-0.0690724
-0.0747511
-0.0654525
-0.0661991
-0.0719457
-0.0726923
-0.0834842
-0.0892534
-0.0950453
-0.10086
-0.106697
-0.107534
-0.108371
-0.104208
-0.100068
-0.10595
-0.101833
-0.10276
-0.0986652
-0.104615
-0.095543
-0.0914706
-0.0924208
-0.0933711
-0.0993665
-0.095362
-0.0964254
-0.0874435
-0.0834842
-0.0795249
-0.0755882
-0.071629
-0.0726697
-0.073733
-0.0647511
-0.0658145
-0.0568552
-0.047896
-0.0389141
-0.0349322
-0.0309503
-0.0269684
-0.0229638
-0.0139367
-0.00993214
0.00409502
0.0181222
0.0321719
0.0412217
0.0552715
0.0643439
0.0734163
0.0875113
0.0965837
0.110656
0.119751
0.133846
0.142986
0.157149
0.161335
0.17052
0.174706
0.183891
0.188145
0.187443
0.181765
0.176086
0.160317
0.144457
0.128529
0.112557
0.0965385
0.0804977
0.0694118
0.0582353
0.0419457
0.0256335
0.019276
0.0078959
0.00156107
-0.00475115
-0.0110634
-0.0173756
-0.0236426
-0.0249095
-0.0361765
-0.0423982
-0.0486199
-0.049819
-0.0510181
-0.0572172
-0.0635294
-0.0649774
-0.0614706
-0.0628507
-0.0588235
-0.0590272
-0.0581674
-0.0609502
-0.0573982
-0.0529864
-0.0480996
-0.0434842
-0.0396606
-0.0420814
-0.0360181
-0.0314932
-0.0335746
-0.0422172
-0.0474887
-0.0541629
-0.05681
-0.064819
-0.0673077
-0.0738462
-0.0839819
-0.0827376
-0.0904751
-0.0875113
-0.0892534
-0.0908824
-0.0924661
-0.0940045
-0.095543
-0.0970362
-0.0935068
-0.0999547
-0.0963122
-0.0976018
-0.0938235
-0.100023
-0.101131
-0.0972172
-0.0982805
-0.0943439
-0.0954299
-0.0864706
-0.0925113
-0.0935068
-0.0945023
-0.0954525
-0.0964027
-0.10233
-0.103281
-0.109253
-0.105181
-0.106154
-0.107081
-0.102964
-0.103824
-0.104683
-0.10552
-0.106357
-0.107195
-0.102986
-0.103778
-0.109502
-0.110204
-0.110882
-0.106538
-0.107172
-0.107783
-0.113394
-0.113959
-0.109502
-0.110023
-0.105543
-0.106041
-0.101538
-0.102036
-0.0975339
-0.0930543
-0.0935747
-0.0941176
-0.089638
-0.0802262
-0.0708823
-0.0566063
-0.0474661
-0.0434163
-0.0395023
-0.0357014
-0.0320136
-0.0234389
-0.00995475
0.00848417
0.0119005
0.0102489
0.00866516
-0.00294117
-0.00947963
-0.0160181
-0.0175339
-0.0240045
-0.0304299
-0.0317647
-0.0380996
-0.0443892
-0.0457014
-0.0469457
-0.0481448
-0.0443439
-0.0405204
-0.0416742
-0.0377602
-0.0438236
-0.0398417
-0.0358371
-0.0318326
-0.0328507
-0.0288688
-0.0348869
-0.060905
-0.0869005
-0.092896
-0.0588914
0.0551131
0.27414
0.548145
0.877127
1.17113
1.38511
1.45914
1.35319
1.14226
0.826335
0.520385
0.284457
0.123484
0.0525566
0.021629
0.00572401
-0.00515835
-0.00601807
-0.0118552
-0.0127149
-0.0235294
-0.0393665
-0.0551584
-0.0659276
-0.0766516
-0.0873755
-0.0880995
-0.0938009
-0.0944796
-0.0951131
-0.100747
-0.101335
-0.101946
-0.0975339
-0.1031
-0.0986878
-0.0992308
-0.0947964
-0.0903394
-0.090905
-0.0814253
-0.0819457
-0.0824887
-0.0779864
-0.0734841
-0.0739819
-0.0694796
-0.0649547
-0.0654298
-0.0608823
-0.0613122
-0.0517647
-0.0422171
-0.0376696
-0.0280995
-0.0235294
-0.0139592
-0.00941171
-0.00486419
0.00470593
0.0142987
0.0239141
0.0335521
0.0481901
0.0528281
0.0675114
0.0722172
0.0869231
0.086629
0.101358
0.111131
0.120928
0.135792
0.140701
0.155656
0.165634
0.175634
0.185656
0.195724
0.195837
0.186041
0.186267
0.166516
0.161765
0.141991
0.137217
0.127421
0.112624
0.0978281
0.0779865
0.0681448
0.0532806
0.0533711
0.0384389
0.0284616
0.0234842
0.0135068
0.00855207
-0.0014253
-0.00642531
-0.0114932
-0.0166063
-0.0167647
-0.016923
-0.0170814
-0.0171945
-0.0173077
-0.0225339
-0.0228506
-0.02819
-0.023371
-0.023009
-0.0166742
-0.0140724
-0.0149773
-0.00450224
-0.00305427
-0.00124434
0.00509047
0.0104751
0.0144118
0.0169457
0.0234163
0.0191403
0.0195249
0.0147738
0.00995475
0.00511312
0.000339366
0.00567874
0.00110861
0.00144798
-0.00357465
-0.00938914
-0.0163348
-0.0246833
-0.0295249
-0.0356561
-0.0475792
-0.0595701
-0.0658597
-0.0710634
-0.0747964
-0.0822625
-0.0886878
-0.0845475
-0.0951131
-0.095543
-0.100905
-0.101176
-0.106425
-0.106561
-0.101652
-0.106697
-0.106652
-0.106538
-0.106403
-0.111199
-0.11095
-0.110679
-0.115362
-0.115023
-0.114615
-0.11414
-0.113665
-0.113145
-0.112602
-0.112014
-0.11138
-0.110747
-0.115023
-0.114253
-0.118462
-0.112647
-0.111765
-0.115882
-0.114955
-0.114004
-0.112986
-0.111991
-0.110928
-0.104842
-0.103733
-0.102579
-0.106425
-0.105226
-0.103982
-0.102692
-0.101357
-0.0949773
-0.0935972
-0.092285
-0.0960181
-0.0948642
-0.0987782
-0.102805
-0.101923
-0.101154
-0.10552
-0.100023
-0.0997059
-0.0995022
-0.0944344
-0.0894117
-0.0795249
-0.0797737
-0.0751131
-0.0755656
-0.071086
-0.0617421
-0.0524434
-0.03819
-0.0239593
-0.0197285
-0.0205204
-0.026267
-0.0319909
-0.0326471
-0.0382579
-0.0387783
-0.0392308
-0.0446154
-0.0399095
-0.0451584
-0.045362
-0.055543
-0.0556561
-0.0607692
-0.0608824
-0.0609502
-0.0559955
-0.0509955
-0.0509955
-0.0459502
-0.0409276
-0.040905
-0.040905
-0.0459276
-0.0609276
-0.0909502
-0.110928
-0.100928
-0.035905
0.124072
0.364027
0.663982
0.983937
1.26889
1.43885
1.4538
1.29871
1.0536
0.728529
0.448462
0.223394
0.0933258
0.0333032
0.0032353
-0.00680995
-0.0218778
-0.0269231
-0.041991
-0.0520588
-0.0620814
-0.0771267
-0.0871493
-0.0921946
-0.102217
-0.107262
-0.112308
-0.11733
-0.122376
-0.127421
-0.132489
-0.127557
-0.127647
-0.127715
-0.127783
-0.132851
-0.127896
-0.137964
-0.138032
-0.1331
-0.128213
-0.128326
-0.123439
-0.118575
-0.118688
-0.118801
-0.113891
-0.113982
-0.109072
-0.10414
-0.0992081
-0.0942534
-0.0892986
-0.0893665
-0.0894118
-0.0894796
-0.0895701
-0.0896606
-0.0847511
-0.0748416
-0.0699547
-0.0600452
-0.0551583
-0.0402941
-0.0254072
-0.0105203
0.00434393
0.0242308
0.0391177
0.0540046
0.0639141
0.0788236
0.0987783
0.113733
0.128733
0.138756
0.158801
0.163891
0.169027
0.169231
0.169502
0.174796
0.165091
0.160339
0.145566
0.130815
0.111041
0.091267
0.0814933
0.0616969
0.0569231
0.0471268
0.0373304
0.0274888
0.0226245
0.0177602
0.007896
0.00303175
-0.00678727
-0.00660627
-0.0114253
-0.0112217
-0.0109954
-0.0107465
-0.0104977
-0.0202715
-0.0200904
-0.0250226
-0.0250452
-0.0300226
-0.0247285
-0.023733
-0.0266968
-0.0283258
-0.023552
-0.0174661
-0.0156336
-0.00375572
0.00733026
0.00221714
0.00556554
0.00260175
-0.00135752
-0.00588242
-0.00563353
-0.0104751
-0.0103394
-0.0152489
-0.0152036
-0.0152263
-0.0202941
-0.0203846
-0.0255204
-0.0206561
-0.0257919
-0.0259955
-0.0262217
-0.0314706
-0.0317421
-0.0320136
-0.0273077
-0.0276245
-0.0229412
-0.0282579
-0.0285973
-0.0289367
-0.0342308
-0.0293892
-0.0344344
-0.0343892
-0.0294571
-0.0249322
-0.0263123
-0.0289367
-0.0378507
-0.0431901
-0.0544118
-0.0609955
-0.0671946
-0.0723304
-0.0762218
-0.0837105
-0.0901358
-0.0858824
-0.0913123
-0.0866064
-0.0818327
-0.0770136
-0.077172
-0.0772851
-0.0773078
-0.0822852
-0.0821494
-0.0819458
-0.0866064
-0.0861313
-0.0855657
-0.0849095
-0.0841403
-0.0832806
-0.0823303
-0.0763349
-0.0752489
-0.0740498
-0.0777602
-0.0813801
-0.0799322
-0.0783937
-0.0768326
-0.0752263
-0.0735973
-0.0719457
-0.0702489
-0.0635973
-0.061991
-0.0654525
-0.0640045
-0.0626471
-0.0613801
-0.0601584
-0.0590498
-0.0580091
-0.0570588
-0.0561765
-0.0503846
-0.0546606
-0.0539819
-0.0533937
-0.0578281
-0.0523303
-0.0519005
-0.0515158
-0.0511765
-0.0558824
-0.0556561
-0.0554751
-0.0603846
-0.065362
-0.0654072
-0.0655204
-0.0607014
-0.0559276
-0.0461991
-0.0415611
-0.0319909
-0.0374661
-0.0329864
-0.0285747
-0.00918552
0.0102036
0.0245023
0.0338462
0.0281674
0.0225113
0.0119005
0.00135748
-0.00411763
-0.0095475
-0.00490949
-0.00522623
-0.0054751
-0.0106787
-0.0158145
-0.0258823
-0.0308823
-0.0258597
-0.0258145
-0.0257466
-0.0256787
-0.0305656
-0.0304072
-0.030181
-0.0249095
-0.0246154
-0.0193213
-0.0190271
-0.0337104
-0.0583937
-0.0930317
-0.112692
-0.0823529
0.0130317
0.213439
0.493869
0.784321
1.09977
1.29525
1.38072
1.2962
1.06667
0.797172
0.492692
0.263213
0.11871
0.0492534
0.0197964
0.005362
-0.00402715
-0.00837103
-0.0127149
-0.0220588
-0.0264027
-0.0407692
-0.0501131
-0.0644344
-0.0787556
-0.0830769
-0.0873756
-0.0916742
-0.0959502
-0.100204
-0.0994344
-0.103643
-0.107828
-0.111991
-0.116176
-0.120362
-0.119548
-0.11871
-0.122873
-0.127014
-0.131131
-0.135249
-0.134367
-0.128462
-0.127557
-0.121674
-0.120769
-0.119842
-0.118914
-0.112964
-0.102014
-0.0910407
-0.0850679
-0.074095
-0.0630995
-0.0571041
-0.0461086
-0.0450905
-0.0390724
-0.0230317
-0.0169683
-0.00590496
0.00518101
0.0212444
0.0323077
0.0433937
0.059457
0.0704978
0.0865385
0.0975792
0.11362
0.124706
0.140837
0.151991
0.163213
0.174412
0.185634
0.196878
0.203213
0.214638
0.206131
0.20767
0.199208
0.185724
0.172217
0.15371
0.145181
0.126652
0.118145
0.104661
0.0911539
0.0776697
0.0591855
0.0506561
0.0421041
0.0385294
0.0349321
0.0313349
0.0227376
0.0141177
0.00547513
-0.0031674
-0.0017873
-0.00540721
-0.00398187
-0.00755654
-0.0112217
-0.0150226
-0.0140045
-0.0131448
-0.0171719
-0.0157918
-0.0184841
-0.0199548
-0.0201584
-0.0190045
-0.0170362
-0.00968327
-0.00273757
-0.00178733
-0.00205883
-0.00366515
-0.0012896
-0.00454751
-0.00809955
-0.00676471
-0.0104525
-0.0141629
-0.0128733
-0.0116063
-0.010362
-0.00914026
-0.0129864
-0.0168552
-0.0208145
-0.0198416
-0.023914
-0.023009
-0.0271493
-0.0313122
-0.0354525
-0.0345249
-0.0385068
-0.0423982
-0.041267
-0.045362
-0.0449774
-0.0505203
-0.052285
-0.0604298
-0.0697511
-0.0748642
-0.0801357
-0.0849321
-0.0886652
-0.0911538
-0.0973077
-0.102579
-0.102262
-0.106629
-0.105837
-0.109955
-0.109027
-0.108054
-0.107036
-0.110995
-0.109887
-0.113665
-0.117421
-0.116109
-0.119729
-0.118303
-0.121855
-0.120339
-0.118733
-0.122059
-0.120294
-0.118484
-0.116606
-0.114706
-0.107738
-0.110724
-0.108665
-0.106516
-0.109344
-0.107081
-0.104774
-0.102421
-0.100045
-0.0976244
-0.0951357
-0.0926923
-0.0952488
-0.0928507
-0.0955203
-0.10328
-0.101131
-0.10405
-0.102081
-0.105158
-0.0983483
-0.106652
-0.110045
-0.108552
-0.107172
-0.095837
-0.0895927
-0.0884388
-0.0873528
-0.0863574
-0.0804524
-0.0796605
-0.0789592
-0.0783257
-0.0827827
-0.0823076
-0.076923
-0.0716289
-0.0664026
-0.0512216
-0.0461311
-0.0411312
-0.046199
-0.0363348
-0.0265384
-0.0117873
0.00294122
0.00266972
0.00746611
-0.00269227
-0.00280538
-0.0128733
-0.0178959
-0.0228507
-0.0277602
-0.0326244
-0.0424434
-0.0472398
-0.0520136
-0.0517421
-0.056448
-0.0561086
-0.055724
-0.060362
-0.0549774
-0.0545928
-0.0492081
-0.0488688
-0.0434842
-0.0431222
-0.0527828
-0.0674209
-0.0920815
-0.116742
-0.126425
-0.081086
0.0292533
0.234593
0.504909
0.805226
1.06054
1.23084
1.26115
1.15647
0.926787
0.652104
0.362398
0.167692
0.0379637
-0.0317422
-0.0614481
-0.0711313
-0.0708372
-0.0755431
-0.0752716
-0.0700001
-0.0797513
-0.0945023
-0.0992535
-0.10905
-0.108846
-0.113665
-0.108484
-0.113303
-0.1181
-0.122896
-0.132738
-0.127557
-0.132398
-0.122262
-0.127104
-0.121923
-0.121765
-0.126584
-0.12138
-0.131177
-0.130973
-0.130769
-0.125566
-0.130385
-0.135204
-0.135
-0.134819
-0.134661
-0.134502
-0.129389
-0.129321
-0.124253
-0.119208
-0.119163
-0.10914
-0.0991177
-0.0941404
-0.0892082
-0.0742761
-0.074344
-0.0593892
-0.0443892
-0.0344118
-0.0244344
-0.0144797
0.000475094
0.0104072
0.025362
0.0403394
0.0552715
0.0702036
0.0851357
0.0950905
0.105068
0.125136
0.140226
0.155317
0.165362
0.175407
0.18052
0.180679
0.175928
0.161154
0.151403
0.136561
0.121697
0.10681
0.0919231
0.0770362
0.0621267
0.0522172
0.0422398
0.0322172
0.0221041
0.0169457
0.00671948
-0.00352937
-0.00377823
-0.014095
-0.019457
-0.0198868
-0.0153393
-0.0257692
-0.0261538
-0.0264932
-0.0368551
-0.0322624
-0.0377601
-0.0383483
-0.0439818
-0.0493891
-0.0492986
-0.0482805
-0.0460407
-0.0474434
-0.0426923
-0.0421945
-0.0365837
-0.0315159
-0.0275113
-0.0197738
-0.0233711
-0.0228507
-0.0279185
-0.0333032
-0.0387783
-0.0391855
-0.0395022
-0.0348868
-0.0355882
-0.036923
-0.0394343
-0.0483257
-0.0485972
-0.0550678
-0.0620588
-0.0689818
-0.0800226
-0.0899095
-0.0935067
-0.0909502
-0.0976696
-0.0939366
-0.0900452
-0.0960633
-0.0970588
-0.098009
-0.103937
-0.109864
-0.115701
-0.116538
-0.11733
-0.118077
-0.113801
-0.114502
-0.120204
-0.11586
-0.116538
-0.117172
-0.112805
-0.113416
-0.114004
-0.114593
-0.115181
-0.115792
-0.111335
-0.111832
-0.107308
-0.10776
-0.108167
-0.103597
-0.108959
-0.104253
-0.104502
-0.0997059
-0.0948869
-0.0900226
-0.0951584
-0.100249
-0.0953168
-0.0953394
-0.0903168
-0.0902263
-0.0901131
-0.0949548
-0.0947285
-0.0894797
-0.0841856
-0.0738688
-0.0785521
-0.0732353
-0.0779638
-0.0727376
-0.0726471
-0.0626245
-0.0577376
-0.0629865
-0.0683711
-0.0738914
-0.074525
-0.0802942
-0.0761766
-0.0721947
-0.0583033
-0.0495249
-0.0408372
-0.0372851
-0.0388009
-0.0303394
-0.0169231
-0.00350679
0.0049095
-0.00162895
-0.00819007
-0.0196833
-0.0261312
-0.0325566
-0.0388688
-0.0451358
-0.0463348
-0.0525113
-0.0536651
-0.054819
-0.0559276
-0.056991
-0.0580317
-0.0540497
-0.0500452
-0.0360181
-0.0319683
-0.0278959
-0.0238009
-0.0247059
-0.0255882
-0.0264932
-0.037466
-0.0634615
-0.084457
-0.0754751
-0.00649318
0.137489
0.386493
0.675498
0.974502
1.22853
1.34256
1.32161
1.13066
0.869683
0.578688
0.317692
0.146719
0.0507014
0.00972852
-0.00122169
-0.0121719
-0.0181222
-0.0240724
-0.0300452
-0.0460407
-0.0570362
-0.0680317
-0.0790271
-0.0800226
-0.0910181
-0.0970136
-0.108032
-0.104027
-0.115023
-0.115996
-0.116946
-0.122896
-0.118846
-0.114819
-0.110769
-0.116742
-0.117647
-0.118552
-0.119434
-0.115294
-0.111177
-0.112036
-0.112919
-0.113778
-0.114638
-0.110453
-0.106222
-0.0969684
-0.092715
-0.0834842
-0.0792082
-0.0749548
-0.0756562
-0.0713575
-0.0720588
-0.0677828
-0.0584842
-0.0541629
-0.0498416
-0.0404525
-0.0360634
-0.0266742
-0.0223077
-0.00789595
-0.00348419
0.0109502
0.0254072
0.039819
0.0542081
0.0635973
0.0779864
0.0923756
0.111765
0.121176
0.135611
0.150091
0.169638
0.174231
0.178846
0.178529
0.173281
0.173122
0.168032
0.162919
0.14776
0.137557
0.122308
0.102036
0.0867647
0.0714706
0.0611764
0.0508823
0.0505882
0.0402715
0.0299547
0.0196606
0.0143665
0.00411763
-0.00110862
-0.00626699
-0.0113801
-0.0114706
-0.0165385
-0.021629
-0.0217195
-0.0118326
-0.011991
-0.0122851
-0.00769231
-0.00305431
-0.00312218
-0.00753395
-0.00581449
-0.00780544
-0.00341631
0.00212666
0.00319001
0.00916289
0.014276
0.01819
0.0208144
0.0222624
0.0279185
0.0231221
0.0231221
0.0180316
0.0178507
0.017647
0.0173982
0.0171267
0.0117421
0.0112443
0.0106335
0.00995476
0.0142987
0.0136199
0.0129412
0.0122625
0.011629
0.00597285
0.00531673
0.00466061
0.00400449
0.00839363
0.00280538
0.00723977
-0.00334847
-0.00395933
-0.00459282
-0.0102489
-0.0058824
-0.00651588
-0.007172
-0.00785072
-0.00855207
-0.0142761
-0.0199548
-0.020543
-0.0259503
-0.0262218
-0.0314706
-0.0269684
-0.0331448
-0.035362
-0.0390272
-0.0440724
-0.0553847
-0.0623304
-0.0641856
-0.0752715
-0.0850679
-0.0834389
-0.0855204
-0.0917195
-0.0923982
-0.0878733
-0.0882127
-0.0834616
-0.0836426
-0.0887104
-0.0887104
-0.0935973
-0.0883711
-0.0880091
-0.077534
-0.0769684
-0.0812896
-0.0854751
-0.0896154
-0.0936878
-0.0927376
-0.0967874
-0.100815
-0.0998417
-0.0938688
-0.0929638
-0.0870815
-0.086267
-0.0905204
-0.0898417
-0.0892308
-0.0936878
-0.0931901
-0.087715
-0.0872851
-0.0919231
-0.091629
-0.0963575
-0.0961313
-0.0959277
-0.100792
-0.100701
-0.100656
-0.0956562
-0.095724
-0.0908145
-0.0908824
-0.0859729
-0.0811086
-0.081267
-0.0764254
-0.0766516
-0.0769231
-0.0722625
-0.0776697
-0.0781448
-0.0786652
-0.0792761
-0.0799548
-0.0757014
-0.0815385
-0.0824435
-0.0784163
-0.0744571
-0.0705883
-0.0617647
-0.0530543
-0.0544571
-0.050905
-0.0524209
-0.0439593
-0.030543
-0.0171041
-0.0136426
-0.0201584
-0.0265838
-0.0330091
-0.0443666
-0.0506788
-0.0569005
-0.058077
-0.0591856
-0.0652263
-0.0711991
-0.0720589
-0.0729186
-0.0737104
-0.0695249
-0.0653168
-0.061086
-0.0618552
-0.0575566
-0.0532579
-0.0489593
-0.0446607
-0.0403394
-0.0460181
-0.0616968
-0.092353
-0.118032
-0.11371
-0.0543891
0.0999548
0.329299
0.65362
0.957941
1.24226
1.39158
1.37591
1.21027
0.934615
0.623937
0.348281
0.157624
0.0569457
0.0162896
0.00065612
-0.00499999
-0.00563348
-0.0162896
-0.0219683
-0.0326244
-0.0432805
-0.053914
-0.0695249
-0.0750905
-0.0856561
-0.0962443
-0.101878
-0.112534
-0.11819
-0.123846
-0.129525
-0.135226
-0.140928
-0.141606
-0.147285
-0.147919
-0.153575
-0.154253
-0.154932
-0.150588
-0.15129
-0.146991
-0.147692
-0.143394
-0.139118
-0.139819
-0.140543
-0.141267
-0.131946
-0.127647
-0.118371
-0.114095
-0.104796
-0.10052
-0.0962217
-0.0919004
-0.0825565
-0.0731674
-0.0688009
-0.0544117
-0.0500452
-0.0356787
-0.0262896
-0.011923
-0.00255653
0.01181
0.0261765
0.0405204
0.0598869
0.0742082
0.0885295
0.107896
0.122262
0.131652
0.151086
0.175566
0.185045
0.199548
0.204072
0.208643
0.203281
0.197986
0.192738
0.177466
0.177195
0.1619
0.151584
0.131244
0.115882
0.10052
0.0851584
0.0697512
0.049276
0.0437783
0.0332806
0.0277602
0.0222625
0.01681
0.0113801
0.000950232
0.000565618
0.00018099
-0.000158377
-0.00549775
-0.0108145
-0.0161312
-0.0215385
-0.0220815
-0.0227602
-0.0284163
-0.028801
-0.0334842
-0.0271493
-0.0243439
-0.0201357
-0.019638
-0.0134615
-0.0123529
-0.00699093
-0.00287332
-0.000135768
0.00135745
0.0019683
-0.00287333
-0.00294121
0.00190043
0.00167418
0.00647056
0.00619907
0.000859711
-0.00459278
-0.00518102
-0.0108371
-0.0115611
-0.0122625
-0.0130091
-0.0087783
-0.00954753
-0.015362
-0.0161991
-0.0170588
-0.0179412
-0.0188462
-0.0197285
-0.0206109
-0.0265159
-0.0224208
-0.0233711
-0.0243213
-0.0302715
-0.0261991
-0.027172
-0.0231448
-0.0241177
-0.0250679
-0.0309955
-0.0318552
-0.0325792
-0.0431674
-0.0435973
-0.039095
-0.0399774
-0.0416516
-0.0395249
-0.0437104
-0.054276
-0.0608823
-0.0728506
-0.074457
-0.080181
-0.0795022
-0.0825339
-0.0843439
-0.0853846
-0.0860407
-0.0864706
-0.0867647
-0.0819457
-0.0820362
-0.0770136
-0.0768778
-0.0816516
-0.0762444
-0.075724
-0.0750905
-0.0742987
-0.0733485
-0.0723304
-0.0762218
-0.0750227
-0.0737783
-0.0725113
-0.0762444
-0.0749774
-0.0787783
-0.0775792
-0.0814254
-0.0803168
-0.079276
-0.0783032
-0.0773982
-0.0715611
-0.0608145
-0.0551584
-0.0545475
-0.0490045
-0.0485068
-0.0530543
-0.0526244
-0.0522398
-0.0569005
-0.0515837
-0.0562444
-0.0509502
-0.0507014
-0.0555204
-0.050362
-0.0502715
-0.0452036
-0.045181
-0.0452036
-0.0452715
-0.0404073
-0.0405656
-0.0457692
-0.0459955
-0.0463122
-0.0466516
-0.0470588
-0.0475113
-0.053009
-0.0535747
-0.0491855
-0.0498642
-0.0405882
-0.0363801
-0.0271946
-0.0330769
-0.0289819
-0.0199321
-0.00592759
0.0130543
0.0170362
0.0160407
0.00509051
0.00420815
-0.0015837
-0.00726244
-0.0078733
-0.00843891
-0.00893664
-0.00936651
-0.0097285
-0.0200226
-0.0202489
-0.0204298
-0.0206109
-0.0157013
-0.0157466
-0.0157466
-0.015724
-0.0056561
-0.000542976
-0.000407219
-0.000248849
-9.04799e-05
-0.0149321
-0.0447511
-0.0745475
-0.0993665
-0.0791629
0.0160407
0.196244
0.471448
0.766697
1.07697
1.31222
1.40249
1.33276
1.14305
0.848371
0.56871
0.31405
0.154412
0.0847738
0.0451584
0.030543
0.0209276
0.0163349
0.0117647
0.00221723
-0.00230766
-0.0218552
-0.0313801
-0.0459049
-0.0604298
-0.0699547
-0.074457
-0.0789366
-0.0934163
-0.0978959
-0.107353
-0.11181
-0.116244
-0.115679
-0.115113
-0.119547
-0.11905
-0.123575
-0.123077
-0.122557
-0.122014
-0.116425
-0.115769
-0.110068
-0.104389
-0.0986878
-0.0929638
-0.0922624
-0.0865158
-0.0857692
-0.0800452
-0.0842986
-0.0735746
-0.0678054
-0.0570136
-0.0562217
-0.0454072
-0.0395475
-0.0286651
-0.0227828
-0.0119231
-0.00106333
0.00979639
0.0206561
0.0265385
0.0424208
0.0483258
0.0592308
0.0701584
0.081086
0.096991
0.107919
0.123891
0.129864
0.145905
0.156991
0.173122
0.184231
0.195362
0.201539
0.202805
0.204186
0.195611
0.187036
0.173439
0.154819
0.136176
0.122534
0.108891
0.0952263
0.0815385
0.0678733
0.0542082
0.0405204
0.0318326
0.0281448
0.0144797
0.00583712
-0.0027828
-0.0114253
-0.0150452
-0.0236199
-0.0221946
-0.0257466
-0.0242986
-0.0278507
-0.0314706
-0.0352036
-0.0390724
-0.0430317
-0.0368778
-0.0352941
-0.0329185
-0.0342986
-0.0343439
-0.0279864
-0.0255882
-0.0228054
-0.015362
-0.0138235
-0.00859728
-0.00463802
-0.00687784
-0.00490951
-0.0083258
-0.00694571
-0.00561088
-0.00429865
-0.00798643
-0.00667421
-0.0103846
-0.00911765
-0.00791855
-0.00674208
-0.00561086
-0.00452489
-0.00848416
-0.0124661
-0.0164932
-0.0155882
-0.0197059
-0.0188688
-0.0280769
-0.0272851
-0.0314706
-0.0306787
-0.0199095
-0.0141629
-0.0183937
-0.022534
-0.0265159
-0.0304299
-0.034457
-0.038914
-0.0342308
-0.0357692
-0.0436652
-0.0478733
-0.0629186
-0.0682579
-0.0731448
-0.0770136
-0.0797059
-0.0859729
-0.0912217
-0.0957692
-0.0949548
-0.103937
-0.102828
-0.101652
-0.0954299
-0.0941403
-0.0878054
-0.0863801
-0.0948643
-0.0932579
-0.0965611
-0.094819
-0.0980317
-0.0961765
-0.0942308
-0.0972398
-0.100158
-0.0980317
-0.10086
-0.10362
-0.101335
-0.0989593
-0.0965158
-0.0939819
-0.0964253
-0.0988461
-0.101267
-0.098733
-0.101244
-0.0938235
-0.0914932
-0.094276
-0.0921267
-0.0850679
-0.0780996
-0.0812217
-0.0793891
-0.0826244
-0.0809729
-0.0794118
-0.0829412
-0.0815611
-0.0852715
-0.0790724
-0.0829638
-0.0819231
-0.0759729
-0.0800453
-0.0791855
-0.078371
-0.077647
-0.0820136
-0.0814253
-0.0859276
-0.090543
-0.0902036
-0.0849321
-0.0847285
-0.084638
-0.084638
-0.0797285
-0.0748869
-0.0701131
-0.0604072
-0.0657918
-0.0662217
-0.0566742
-0.0421719
-0.0276471
-0.0230995
-0.0285068
-0.0338462
-0.039095
-0.0443213
-0.049457
-0.0495475
-0.0545475
-0.059457
-0.064276
-0.0690271
-0.0687104
-0.0683484
-0.0629411
-0.0625113
-0.0620362
-0.0615384
-0.0560181
-0.0605203
-0.065
-0.0594796
-0.0589366
-0.0533258
-0.0626697
-0.0820136
-0.116357
-0.130701
-0.100045
-0.00441173
0.191244
0.466923
0.772579
1.06821
1.25382
1.32439
1.22498
1.00561
0.741244
0.436878
0.217489
0.0730769
-0.00635745
-0.0407466
-0.055181
-0.0596154
-0.0640498
-0.0684842
-0.0678959
-0.0773077
-0.0867195
-0.101177
-0.105656
-0.110158
-0.109661
-0.11414
-0.123643
-0.118145
-0.127692
-0.122262
-0.126833
-0.126448
-0.126109
-0.130792
-0.135453
-0.145158
-0.144864
-0.149593
-0.149367
-0.149163
-0.148982
-0.148824
-0.148643
-0.143462
-0.143303
-0.138167
-0.133032
-0.127896
-0.132783
-0.132692
-0.122624
-0.112557
-0.0975113
-0.0925339
-0.0825565
-0.0726018
-0.0626244
-0.0526697
-0.0427149
-0.0377602
-0.0278507
-0.0179412
-0.00305429
0.01181
0.016629
0.031448
0.0512443
0.0660407
0.0808371
0.0956335
0.115407
0.130181
0.149955
0.159751
0.169547
0.184389
0.199276
0.20914
0.214004
0.218914
0.213891
0.203937
0.194004
0.17905
0.159095
0.149117
0.129095
0.113982
0.0938686
0.0737103
0.0535519
0.0383709
0.0231673
0.00796369
-0.00726254
-0.0174435
-0.0276245
-0.0378055
-0.0429865
-0.0481449
-0.0533258
-0.0585295
-0.0636878
-0.0688688
-0.0740272
-0.0792308
-0.0845249
-0.0899548
-0.0954751
-0.0958597
-0.105815
-0.104864
-0.0976697
-0.0941404
-0.0842761
-0.0785974
-0.0776247
-0.0821269
-0.0776247
-0.0743442
-0.0724437
-0.071584
-0.0714482
-0.0817423
-0.0821948
-0.0826925
-0.0831903
-0.0786654
-0.0841405
-0.079593
-0.0800907
-0.0806563
-0.0762898
-0.0769459
-0.077602
-0.0882355
-0.0838916
-0.0846156
-0.0803622
-0.0811992
-0.0820137
-0.0778961
-0.0737784
-0.0696833
-0.075611
-0.0665838
-0.0676018
-0.0685521
-0.0643892
-0.0650905
-0.0607919
-0.0617647
-0.0634389
-0.066199
-0.0704298
-0.0712443
-0.0733483
-0.0762895
-0.0841402
-0.0862669
-0.0921266
-0.0964705
-0.0945022
-0.0864931
-0.0879184
-0.0890723
-0.0900904
-0.0909954
-0.0918325
-0.0876243
-0.0833483
-0.0840044
-0.0795474
-0.0749773
-0.0702714
-0.0704751
-0.0705882
-0.0755882
-0.0755203
-0.0703619
-0.065113
-0.064751
-0.0642985
-0.0637329
-0.0580995
-0.0624207
-0.0616289
-0.0607691
-0.0598642
-0.0589366
-0.0579863
-0.0570588
-0.0561538
-0.0552714
-0.059457
-0.0587556
-0.0531221
-0.0376017
-0.0371719
-0.0318325
-0.0365836
-0.0364479
-0.0364026
-0.0364479
-0.0316063
-0.0368551
-0.0371945
-0.0376244
-0.0381447
-0.0387329
-0.0393891
-0.0401131
-0.0459049
-0.0417646
-0.0427375
-0.0437556
-0.0448642
-0.0510407
-0.0473076
-0.0486425
-0.0500452
-0.0565837
-0.05819
-0.0498642
-0.0516063
-0.0484162
-0.0452941
-0.0422624
-0.0443438
-0.0414932
-0.0437104
-0.0359502
-0.0232126
-0.0104751
-0.0127828
-0.0200452
-0.0272398
-0.0393665
-0.0463801
-0.0533258
-0.0551583
-0.0519457
-0.0536878
-0.0553394
-0.0619231
-0.0684163
-0.0698869
-0.066267
-0.0576245
-0.048914
-0.0502036
-0.0414706
-0.0426923
-0.0388688
-0.04
-0.0361539
-0.0372398
-0.0533032
-0.0843665
-0.115385
-0.116425
-0.0574208
0.0965837
0.335588
0.664593
1.01362
1.30267
1.49174
1.47584
1.30993
1.02905
0.703145
0.42224
0.20638
0.0855656
0.0347738
0.0139593
-0.00187782
-0.00771494
-0.00855204
-0.0193439
-0.0251131
-0.0408597
-0.0515611
-0.0672398
-0.0828959
-0.088552
-0.0942081
-0.0948869
-0.100543
-0.106176
-0.11181
-0.117443
-0.123077
-0.12871
-0.129321
-0.139977
-0.140588
-0.141222
-0.141855
-0.142466
-0.143054
-0.148643
-0.154253
-0.154842
-0.150452
-0.146063
-0.141674
-0.137217
-0.137738
-0.138235
-0.133756
-0.129276
-0.124796
-0.115317
-0.110814
-0.101357
-0.0918778
-0.0823982
-0.0729186
-0.0633937
-0.0538462
-0.0442987
-0.0347738
-0.0152489
-0.010724
0.00380091
0.0133258
0.0278507
0.0373982
0.0519457
0.0714706
0.0859729
0.105475
0.12
0.139525
0.154072
0.168665
0.183303
0.197919
0.212534
0.217104
0.221742
0.221448
0.221222
0.210973
0.195701
0.18043
0.160091
0.139729
0.119344
0.108959
0.0985973
0.0832353
0.0678733
0.0474887
0.0320814
0.0166742
0.0112896
0.000927584
0.000633465
-0.00468327
-0.00993214
-0.015181
-0.0204073
-0.0206335
-0.0258371
-0.0310407
-0.0313122
-0.0367195
-0.0322851
-0.0378733
-0.0381674
-0.0377602
-0.036267
-0.0382806
-0.0337104
-0.0278507
-0.0211765
-0.0145249
-0.00861992
0.00104073
0.00423078
0.00113123
0.00203621
-0.00264705
0.00242082
0.00737558
0.00726246
0.00710408
0.00190046
0.00158372
-0.00377827
-0.00923076
-0.00972849
-0.0102715
-0.0108823
-0.0114932
-0.0121267
-0.0177602
-0.0184389
-0.0141403
-0.0148643
-0.0156109
-0.0163801
-0.0171719
-0.0129638
-0.0238009
-0.0196606
-0.0205656
-0.0264932
-0.0324661
-0.0334615
-0.0295023
-0.0355882
-0.0366516
-0.0376697
-0.033552
-0.0342986
-0.0399321
-0.0406335
-0.0417421
-0.0435973
-0.0466516
-0.0510181
-0.0567647
-0.0586425
-0.0710407
-0.0782353
-0.0846606
-0.0997738
-0.108484
-0.110928
-0.112443
-0.108439
-0.109118
-0.109706
-0.110181
-0.115566
-0.11586
-0.116063
-0.111176
-0.111131
-0.11095
-0.105611
-0.105181
-0.104661
-0.109027
-0.113303
-0.107489
-0.101561
-0.090543
-0.0944796
-0.0933937
-0.0922625
-0.0861086
-0.0849774
-0.0888914
-0.0828507
-0.0819005
-0.0810407
-0.0802715
-0.0795701
-0.0789367
-0.0784163
-0.0779864
-0.0776471
-0.0773982
-0.0772398
-0.0721041
-0.0770362
-0.0720136
-0.0770362
-0.0771267
-0.0772624
-0.0774434
-0.0776697
-0.0779638
-0.0783484
-0.0787783
-0.0742534
-0.0697511
-0.0753167
-0.0759276
-0.0765837
-0.0772851
-0.0780543
-0.0738914
-0.0647964
-0.0757919
-0.0768552
-0.0830317
-0.0842308
-0.0805204
-0.0769005
-0.0683484
-0.0649095
-0.0615158
-0.0631901
-0.0598643
-0.0515837
-0.0383032
-0.0350226
-0.0317195
-0.0333937
-0.0400453
-0.0415837
-0.0480769
-0.049457
-0.0507692
-0.0469909
-0.0481222
-0.0491629
-0.0501131
-0.0510181
-0.0518552
-0.0526471
-0.053371
-0.049095
-0.0397738
-0.0354299
-0.026086
-0.0217195
-0.017353
-0.0129412
-0.0185294
-0.0240724
-0.0495928
-0.0750905
-0.0955656
-0.0810634
0.00843888
0.177941
0.447466
0.742014
1.05656
1.31113
1.43572
1.40029
1.23986
0.959434
0.658959
0.388462
0.192964
0.0874887
0.0370362
0.0216063
0.0111764
0.000746578
-0.00468329
-0.0151132
-0.0205204
-0.035905
-0.0512896
-0.0666742
-0.0720362
-0.0723982
-0.0827828
-0.0881675
-0.0935521
-0.103914
-0.109208
-0.114434
-0.114683
-0.124932
-0.130158
-0.135362
-0.140566
-0.145792
-0.145973
-0.146154
-0.146312
-0.141471
-0.136629
-0.126787
-0.121946
-0.122104
-0.11724
-0.112353
-0.112466
-0.107557
-0.0976245
-0.0926923
-0.0827828
-0.0778507
-0.072896
-0.0629412
-0.0529865
-0.0380091
-0.0280091
-0.0230091
-0.0129865
-0.00294121
0.00710405
0.0171719
0.0272398
0.0373077
0.0523755
0.067466
0.0876018
0.102715
0.127851
0.137941
0.158032
0.173167
0.188326
0.208529
0.223756
0.244027
0.244299
0.25457
0.249932
0.250362
0.240837
0.231335
0.226833
0.202308
0.192783
0.168235
0.15371
0.129208
0.109751
0.0953393
0.0759276
0.0665158
0.052104
0.0426923
0.0332805
0.0238687
0.0194796
0.0151357
0.0108144
0.00153839
0.00228499
-0.00192315
-0.00608605
-0.0152489
-0.0194345
-0.0187105
-0.023077
-0.0224888
-0.0218327
-0.0207693
-0.0239141
-0.0258146
-0.0213575
-0.0204752
-0.013439
-0.00585975
0.00151585
0.00814481
0.0135068
0.0175113
0.0202715
0.0170815
0.0183258
0.0142986
0.015181
0.0160181
0.01181
0.0126244
0.00841629
0.00918551
0.00993212
0.0106335
0.011267
0.0119004
0.0175566
0.01319
0.00880089
0.00941176
-9.31323e-09
-0.00445702
-0.00393666
-0.00343893
-0.00798644
-0.0075792
-0.00721721
-0.00690047
-0.0115837
-0.0112444
-0.0158145
-0.0152489
-0.0145475
-0.0138462
-0.0133937
-0.013552
-0.0197738
-0.0273982
-0.0313575
-0.0364254
-0.0521267
-0.0525792
-0.0572851
-0.065724
-0.0728054
-0.0736878
-0.0736199
-0.0780543
-0.0821946
-0.0811991
-0.0801358
-0.0790045
-0.0828054
-0.0865385
-0.085181
-0.083733
-0.082172
-0.0804978
-0.0786878
-0.0817647
-0.0847512
-0.0775792
-0.0753394
-0.0780091
-0.0755656
-0.0730091
-0.070362
-0.0726244
-0.0697738
-0.0619231
-0.0690045
-0.066086
-0.0681222
-0.0652036
-0.0623077
-0.059457
-0.0567421
-0.0540724
-0.0565385
-0.0590724
-0.0617421
-0.0695023
-0.0673756
-0.0653394
-0.063371
-0.0614932
-0.0597059
-0.0579864
-0.0563122
-0.0547059
-0.0531448
-0.051629
-0.0502036
-0.0538235
-0.0574887
-0.0612217
-0.0600679
-0.0639819
-0.0679638
-0.0770136
-0.0761312
-0.0753168
-0.0795475
-0.0838462
-0.0881901
-0.0876018
-0.0871041
-0.0816742
-0.0713349
-0.066086
-0.0658597
-0.0656787
-0.0604977
-0.0453167
-0.0251584
-0.0149774
-0.00977376
-0.00952489
-0.00923077
-0.0188914
-0.0234842
-0.0230091
-0.0324661
-0.0368552
-0.0361538
-0.0404072
-0.0445928
-0.048733
-0.0478507
-0.0519231
-0.0559502
-0.0499774
-0.0489819
-0.0429412
-0.0418778
-0.0358145
-0.0297285
-0.0236199
-0.0274887
-0.0313575
-0.0502036
-0.0790724
-0.102919
-0.0967421
-0.0305656
0.110611
0.34681
0.663009
0.964208
1.21043
1.35665
1.31285
1.15407
0.885294
0.591538
0.33276
0.134005
0.0352262
-0.0135747
-0.0323982
-0.0412217
-0.0450452
-0.0488461
-0.0526471
-0.0614706
-0.0702715
-0.084095
-0.0928733
-0.106674
-0.110452
-0.114253
-0.123054
-0.126833
-0.125611
-0.134412
-0.143235
-0.142014
-0.145792
-0.149593
-0.148394
-0.152172
-0.155973
-0.164796
-0.16362
-0.167443
-0.161244
-0.155045
-0.153846
-0.147624
-0.146448
-0.140271
-0.13914
-0.128054
-0.127014
-0.120995
-0.115
-0.104005
-0.0980091
-0.0970136
-0.0859729
-0.0799321
-0.0738914
-0.0628733
-0.0518778
-0.045905
-0.0349774
-0.0190498
-0.00812218
0.00780541
0.0186878
0.0345249
0.0503393
0.0611538
0.0719457
0.077715
0.0934616
0.109186
0.12491
0.145656
0.166448
0.17224
0.183054
0.183869
0.184683
0.185588
0.181584
0.172624
0.163643
0.154683
0.140724
0.126697
0.10767
0.09362
0.0795475
0.0604525
0.0513575
0.0372398
0.0331222
0.0239819
0.0097964
0.000588238
-0.00864254
-0.0178507
-0.0270814
-0.0312896
-0.0354978
-0.0397059
-0.0438914
-0.048077
-0.0522625
-0.0564932
-0.0557693
-0.0601811
-0.0646833
-0.0642082
-0.0634842
-0.067172
-0.0698417
-0.0710634
-0.0709276
-0.0646607
-0.0628055
-0.0562218
-0.05043
-0.0559051
-0.052715
-0.0557014
-0.0495476
-0.0488689
-0.0483938
-0.0480091
-0.0476698
-0.0523756
-0.0571041
-0.0568326
-0.0616064
-0.0564028
-0.0662671
-0.0611765
-0.0661765
-0.0662218
-0.0713123
-0.0714706
-0.0716516
-0.0718552
-0.0671268
-0.0774435
-0.0777602
-0.0780543
-0.0782806
-0.0783711
-0.0834842
-0.0788462
-0.0848416
-0.0868552
-0.0953393
-0.100158
-0.106335
-0.118281
-0.120362
-0.13181
-0.132081
-0.135995
-0.128529
-0.125091
-0.121109
-0.121833
-0.122421
-0.122919
-0.133394
-0.133801
-0.134186
-0.129548
-0.124842
-0.125068
-0.120226
-0.125294
-0.125272
-0.130181
-0.125
-0.124774
-0.11948
-0.119118
-0.11871
-0.118258
-0.117783
-0.11224
-0.111629
-0.11095
-0.110181
-0.104321
-0.108439
-0.107534
-0.101629
-0.105724
-0.104796
-0.103891
-0.0930318
-0.0972173
-0.0964707
-0.0908146
-0.095249
-0.0897739
-0.0944119
-0.0941404
-0.093982
-0.0939141
-0.0989594
-0.0990725
-0.0892761
-0.0895929
-0.0900227
-0.0905431
-0.086154
-0.0868553
-0.0876245
-0.0834842
-0.0844345
-0.0804525
-0.0865385
-0.0827376
-0.0940499
-0.0954526
-0.101946
-0.0935295
-0.0852037
-0.0769458
-0.0688236
-0.075792
-0.0778734
-0.0850453
-0.0722625
-0.0595476
-0.0468553
-0.039163
-0.0414933
-0.0437783
-0.0560634
-0.053258
-0.0603847
-0.0624209
-0.0643666
-0.0612444
-0.063077
-0.0698869
-0.071629
-0.0783258
-0.0799322
-0.0815385
-0.0780996
-0.0746381
-0.0711313
-0.0676244
-0.069095
-0.065543
-0.0619684
-0.0633711
-0.064819
-0.076267
-0.097715
-0.129163
-0.130611
-0.0820815
0.0464932
0.270068
0.58862
0.887149
1.19066
1.35916
1.39265
1.25115
0.994638
0.693145
0.396674
0.180249
0.0638235
0.00239816
-0.0190272
-0.0354299
-0.0418326
-0.048258
-0.0496607
-0.0510634
-0.0574435
-0.063801
-0.0751585
-0.0864933
-0.0928508
-0.0992082
-0.105611
-0.106968
-0.108303
-0.109638
-0.110973
-0.112308
-0.113665
-0.115023
-0.116335
-0.117647
-0.118937
-0.120226
-0.121516
-0.117851
-0.119185
-0.120498
-0.12681
-0.1281
-0.129389
-0.130633
-0.1269
-0.123167
-0.119412
-0.120701
-0.111968
-0.108258
-0.104547
-0.0958144
-0.0870588
-0.0783483
-0.0696606
-0.0609275
-0.0472171
-0.0384841
-0.029751
-0.0209728
-0.0121945
0.00158372
0.015362
0.0241176
0.0328959
0.0516516
0.0704525
0.0892082
0.102964
0.116674
0.13543
0.149208
0.173032
0.1869
0.205747
0.21957
0.228371
0.237217
0.241131
0.240136
0.234163
0.223213
0.21724
0.201222
0.185226
0.164208
0.143167
0.127127
0.111086
0.100023
0.0839367
0.0678507
0.0517195
0.0406109
0.0345249
0.0234615
0.0124208
0.00638009
0.000361991
-0.00567873
-0.0116742
-0.0126697
-0.0136651
-0.0146606
-0.0157013
-0.0168552
-0.0181674
-0.0194344
-0.0254751
-0.030905
-0.0253167
-0.0233032
-0.015
-0.010362
-0.00497738
0.000542989
0.00540726
0.00907242
0.00631223
0.00717195
0.0120588
0.0164254
0.015543
0.00959278
0.00857468
0.00255658
-0.00348414
-0.00450224
-0.00554296
-0.00662894
-0.00773753
-0.00889138
-0.0100905
-0.0113348
-0.00760179
-0.0138914
-0.0202036
-0.0165158
-0.0178507
-0.0191855
-0.015543
-0.0169231
-0.0233032
-0.024638
-0.0309276
-0.0320815
-0.0280996
-0.0241177
-0.0254299
-0.0274661
-0.0357692
-0.0456109
-0.0520815
-0.0599774
-0.0685068
-0.0769683
-0.0845475
-0.0856335
-0.0902262
-0.093371
-0.0956561
-0.102421
-0.108959
-0.105385
-0.101719
-0.102986
-0.0991855
-0.105271
-0.106222
-0.112059
-0.112783
-0.113416
-0.108937
-0.104367
-0.104751
-0.105068
-0.110271
-0.110339
-0.110294
-0.105158
-0.104955
-0.0997059
-0.0993665
-0.098914
-0.0983484
-0.0926471
-0.0918552
-0.0859955
-0.0850679
-0.0891176
-0.0831674
-0.0872398
-0.0813575
-0.0805204
-0.0797511
-0.0790498
-0.0734616
-0.0729864
-0.0676018
-0.0623303
-0.0621267
-0.0620362
-0.0570362
-0.0621493
-0.0673529
-0.0676018
-0.0679412
-0.063371
-0.0638688
-0.0594344
-0.0650905
-0.0608371
-0.0616516
-0.0625566
-0.0635294
-0.0595928
-0.055724
-0.0669231
-0.0681674
-0.0745249
-0.0759502
-0.0724208
-0.0589593
-0.050543
-0.0472172
-0.0439819
-0.0408371
-0.0327149
-0.019638
-0.0115385
-0.0134163
-0.0152263
-0.0219683
-0.0286652
-0.0302941
-0.0368778
-0.038371
-0.044819
-0.0411765
-0.0374434
-0.0386425
-0.0397511
-0.0408145
-0.0368326
-0.037828
-0.038733
-0.0346154
-0.0354751
-0.031267
-0.0320362
-0.0277376
-0.0234163
-0.0240724
-0.0347285
-0.0453394
-0.0759502
-0.106561
-0.107104
-0.0376244
0.121878
0.40138
0.73586
1.09534
1.40982
1.54932
1.53885
1.34837
1.0229
0.692443
0.381991
0.196561
0.0861538
0.045724
0.0302715
0.0198416
0.014457
0.00904977
-0.00131221
-0.0216968
-0.0370815
-0.0524661
-0.062828
-0.0731674
-0.0784842
-0.0787783
-0.0840724
-0.0893665
-0.0996832
-0.104977
-0.110294
-0.110588
-0.10086
-0.106131
-0.106403
-0.116697
-0.126991
-0.13224
-0.137489
-0.142692
-0.142896
-0.143122
-0.143326
-0.143552
-0.138733
-0.138914
-0.139095
-0.134276
-0.129434
-0.124615
-0.114774
-0.109887
-0.0999999
-0.0950904
-0.0851357
-0.0751809
-0.0702488
-0.0602941
-0.0503619
-0.0403845
-0.0304298
-0.0154524
-0.000497654
0.0144797
0.0344571
0.0494345
0.0694345
0.0844345
0.0994571
0.109435
0.129435
0.139412
0.154367
0.169389
0.184457
0.20457
0.224706
0.244887
0.250091
0.260339
0.250701
0.246131
0.236561
0.226968
0.21733
0.19767
0.188009
0.163349
0.148688
0.129027
0.109367
0.0947513
0.0751585
0.0655658
0.055973
0.0514028
0.0368327
0.0272626
0.017715
0.00816756
0.00364265
-0.0108822
-0.0104071
-0.0148868
-0.0193664
-0.0288913
-0.0334389
-0.0331221
-0.0429637
-0.0428054
-0.0473303
-0.0461312
-0.0436425
-0.044638
-0.0390045
-0.0369683
-0.0343213
-0.0267647
-0.0200679
-0.0148416
-0.0111312
-0.0138914
-0.0175566
-0.0167647
-0.0161765
-0.0156109
-0.0200905
-0.0145475
-0.0190046
-0.0184842
-0.0180317
-0.0226697
-0.027353
-0.0320815
-0.0318326
-0.0316064
-0.0313801
-0.0311765
-0.0310181
-0.035905
-0.0308371
-0.0307692
-0.0357014
-0.0306109
-0.0305656
-0.0255204
-0.025543
-0.0306109
-0.0306109
-0.0355204
-0.0353168
-0.0350227
-0.0348417
-0.0351584
-0.0413801
-0.0438688
-0.0478281
-0.0531222
-0.0595476
-0.061267
-0.0676697
-0.0780544
-0.081991
-0.0895249
-0.0958146
-0.101312
-0.10138
-0.106267
-0.101041
-0.105747
-0.100385
-0.0999322
-0.0993666
-0.0986652
-0.0978281
-0.09681
-0.100656
-0.0943666
-0.0929638
-0.091448
-0.0948643
-0.0931674
-0.0864027
-0.0945475
-0.0876018
-0.085543
-0.0833484
-0.0860181
-0.0835747
-0.081086
-0.088552
-0.0910181
-0.0884842
-0.0809729
-0.0734842
-0.0710633
-0.0687556
-0.0714932
-0.0693439
-0.0722624
-0.0652715
-0.0683937
-0.0716064
-0.0699548
-0.0683937
-0.0669457
-0.0655656
-0.064276
-0.0630543
-0.0619005
-0.0608145
-0.059819
-0.0539367
-0.0581222
-0.057353
-0.0566516
-0.0610634
-0.060543
-0.0550679
-0.0547059
-0.0544344
-0.054276
-0.0592082
-0.0592308
-0.0593213
-0.0544344
-0.0496606
-0.0399774
-0.040362
-0.0408145
-0.0362896
-0.02181
-0.00733032
0.00212669
0.00662896
-0.00384616
-0.00429865
-0.0146833
-0.02
-0.0252263
-0.030362
-0.0254073
-0.0304072
-0.0303394
-0.0352263
-0.0350679
-0.0348643
-0.0346154
-0.0293213
-0.0290045
-0.0236425
-0.0282127
-0.0277602
-0.0222851
-0.0167647
-0.0162443
-0.0106787
-0.0100905
-0.0295023
-0.0538914
-0.0832579
-0.102602
-0.0769457
0.0337104
0.234389
0.520045
0.845747
1.14147
1.39722
1.46799
1.40378
1.18957
0.875317
0.576063
0.306787
0.142511
0.0582353
0.0239819
0.00972851
0.00552037
0.0012896
-0.00791854
-0.0171267
-0.0313348
-0.045543
-0.0647059
-0.0788461
-0.088009
-0.0971493
-0.10629
-0.11043
-0.114593
-0.118733
-0.122851
-0.126991
-0.136086
-0.145158
-0.154208
-0.158258
-0.162308
-0.161357
-0.170407
-0.174457
-0.178507
-0.182511
-0.176493
-0.170475
-0.169457
-0.168462
-0.167466
-0.166493
-0.160498
-0.15448
-0.143462
-0.132443
-0.116403
-0.105362
-0.0993213
-0.0933032
-0.0872625
-0.0812217
-0.065181
-0.0541403
-0.0380543
-0.031991
-0.0209276
-0.00484163
0.00622172
0.0172851
0.033371
0.0544796
0.0756109
0.0967421
0.117851
0.128937
0.135045
0.156154
0.172285
0.188484
0.204706
0.210928
0.222172
0.218462
0.219819
0.211222
0.207647
0.204027
0.185407
0.176765
0.1531
0.134412
0.115724
0.102059
0.0833937
0.0697285
0.0610407
0.0523529
0.0436425
0.0349321
0.0312443
0.0175566
0.00891403
0.00524887
-0.00341628
-0.00705881
-0.00567872
-0.00929863
-0.0128959
-0.0164706
-0.0201131
-0.0288688
-0.0327149
-0.0316289
-0.0304299
-0.0337104
-0.0311086
-0.0372172
-0.0368778
-0.0352036
-0.0323982
-0.0242986
-0.0165385
-0.00479643
0.000497691
0.00441172
0.00203615
-0.00117654
-0.0048417
-0.00868784
-0.0126245
-0.0115385
-0.0104752
-0.00941184
-0.00837111
-0.00735302
-0.0163802
-0.0204752
-0.0196381
-0.0188236
-0.0180318
-0.0172852
-0.0165385
-0.0208372
-0.0201358
-0.0244797
-0.0288462
-0.033258
-0.0377376
-0.0422851
-0.0418779
-0.0414933
-0.0511087
-0.0557014
-0.0552037
-0.0596154
-0.0590272
-0.05862
-0.0587105
-0.0597738
-0.0621268
-0.0659956
-0.0711539
-0.0873078
-0.0987331
-0.104683
-0.114548
-0.118032
-0.12
-0.115837
-0.120928
-0.120611
-0.120068
-0.119389
-0.12362
-0.12276
-0.121878
-0.125928
-0.124887
-0.123756
-0.122511
-0.126131
-0.129638
-0.128032
-0.126335
-0.119525
-0.122692
-0.115792
-0.113778
-0.116697
-0.119548
-0.11733
-0.115068
-0.107783
-0.105475
-0.103145
-0.10086
-0.0985747
-0.0963349
-0.0991856
-0.0971042
-0.0951359
-0.0982807
-0.0965159
-0.0998417
-0.0983259
-0.0969005
-0.0955431
-0.0892535
-0.0880544
-0.0869005
-0.0858146
-0.0898417
-0.0889141
-0.0880318
-0.0871947
-0.0864481
-0.0857693
-0.0851811
-0.0896833
-0.0942535
-0.0939141
-0.103688
-0.108552
-0.108462
-0.113439
-0.108507
-0.108643
-0.103892
-0.104276
-0.0997738
-0.0953395
-0.0859729
-0.0766743
-0.0724435
-0.0682806
-0.0541856
-0.0351811
-0.0212218
-0.0172172
-0.0131901
-0.0241403
-0.0250227
-0.0358145
-0.0415384
-0.0521946
-0.0577601
-0.0633031
-0.0637556
-0.0691176
-0.0744117
-0.0746606
-0.0798642
-0.0750452
-0.0802036
-0.0753167
-0.0753846
-0.0754298
-0.0704751
-0.0655203
-0.0605882
-0.0606787
-0.0607466
-0.0758371
-0.10095
-0.126063
-0.131176
-0.0862669
0.02862
0.243507
0.528394
0.863303
1.14824
1.37317
1.4381
1.34299
1.11285
0.822692
0.497534
0.252398
0.0922851
0.007172
-0.0379411
-0.0530542
-0.06319
-0.0683257
-0.0684841
-0.0736651
-0.0788687
-0.0890723
-0.104253
-0.119412
-0.12457
-0.129774
-0.13
-0.135249
-0.130498
-0.140769
-0.146018
-0.146267
-0.146538
-0.146855
-0.152195
-0.147534
-0.157873
-0.163213
-0.163552
-0.168891
-0.164231
-0.16457
-0.159955
-0.160339
-0.155747
-0.156199
-0.151652
-0.137104
-0.132557
-0.128009
-0.123462
-0.113891
-0.114344
-0.104774
-0.0952262
-0.0957013
-0.0911765
-0.091629
-0.0771041
-0.0625792
-0.0480543
-0.0335294
-0.0240271
-0.00954749
0.00490953
0.0193439
0.0287557
0.0431448
0.0574887
0.0718326
0.0861765
0.11052
0.129887
0.139276
0.153665
0.168077
0.187534
0.201991
0.216471
0.231018
0.235656
0.220362
0.210091
0.199864
0.184593
0.164321
0.149005
0.133665
0.113281
0.0978733
0.0724208
0.0519683
0.0364932
0.0259955
0.0154977
0.00995474
-0.000565633
-0.0111312
-0.0266742
-0.0372172
-0.0427602
-0.0482579
-0.048733
-0.0442081
-0.0497059
-0.0552489
-0.0558824
-0.0566742
-0.0626245
-0.0686426
-0.0644796
-0.064819
-0.0642534
-0.0674887
-0.069276
-0.064819
-0.0693439
-0.0585746
-0.04819
-0.0438462
-0.0407919
-0.0441855
-0.0436878
-0.048914
-0.0495023
-0.0502715
-0.046086
-0.0519684
-0.0478507
-0.0437557
-0.0447059
-0.0456787
-0.0516968
-0.0577828
-0.0639366
-0.0601357
-0.0563801
-0.0526244
-0.048914
-0.0501357
-0.0512896
-0.0523303
-0.0533258
-0.0494796
-0.0461086
-0.0487104
-0.0476244
-0.0532127
-0.0601584
-0.0681901
-0.0764254
-0.0840272
-0.0854978
-0.0904299
-0.0890724
-0.0866742
-0.0886878
-0.0954299
-0.096991
-0.0984842
-0.0999095
-0.10129
-0.0976018
-0.103869
-0.100023
-0.101131
-0.102217
-0.108235
-0.104208
-0.105091
-0.105882
-0.106606
-0.10724
-0.107805
-0.103303
-0.108733
-0.109072
-0.104344
-0.0995702
-0.0947285
-0.094819
-0.0898643
-0.094819
-0.0947059
-0.0895475
-0.0843213
-0.0840272
-0.0786426
-0.0782127
-0.077715
-0.0771494
-0.0765611
-0.0760408
-0.0805883
-0.080181
-0.0798643
-0.0796833
-0.0795928
-0.0795928
-0.0797285
-0.0749548
-0.0753394
-0.0758598
-0.076448
-0.0771267
-0.072896
-0.0737557
-0.0697285
-0.0708145
-0.0720588
-0.0733937
-0.0797964
-0.081267
-0.077828
-0.074457
-0.0661991
-0.0630317
-0.0549321
-0.0469004
-0.0389366
-0.0360633
-0.0332126
-0.0204298
-0.00266966
0.0100226
0.0176923
0.0153846
0.0130769
0.000859753
-0.00128957
-0.00834839
-0.0153394
-0.0173077
-0.0192081
-0.0260633
-0.0328507
-0.0395701
-0.0361765
-0.0427375
-0.0392081
-0.0356335
-0.0370136
-0.038371
-0.0397059
-0.0410407
-0.0373756
-0.0336652
-0.0349321
-0.0311765
-0.0423982
-0.0685973
-0.0997738
-0.110928
-0.0770815
0.02681
0.235747
0.529683
0.888643
1.1826
1.42158
1.46059
1.32459
1.07362
0.737692
0.451787
0.225905
0.0950679
0.0392082
0.0133258
0.00246608
-0.00839366
-0.0142081
-0.0200226
-0.0307919
-0.0466063
-0.0473982
-0.05319
-0.0640045
-0.074819
-0.0805882
-0.0863348
-0.0870588
-0.0927828
-0.0984842
-0.0992081
-0.0998869
-0.105588
-0.111312
-0.107014
-0.107692
-0.108348
-0.104005
-0.099638
-0.0952941
-0.0959276
-0.0965158
-0.0970588
-0.0975792
-0.0930543
-0.093552
-0.0940271
-0.0944796
-0.0949321
-0.090362
-0.0908145
-0.086267
-0.0767194
-0.0721946
-0.0676697
-0.0581448
-0.0536199
-0.0440724
-0.0345475
-0.0350226
-0.0255204
-0.0160407
-0.00153846
0.0129638
0.0274887
0.0470362
0.0565837
0.0661312
0.0756561
0.095181
0.114706
0.134231
0.148801
0.163416
0.178077
0.18776
0.202511
0.212285
0.227081
0.231946
0.2419
0.241923
0.236968
0.227059
0.212149
0.202217
0.182285
0.16733
0.15733
0.142308
0.127262
0.112149
0.0970136
0.0768099
0.0616063
0.0463574
0.0411312
0.030905
0.0256561
0.0154298
0.010181
0.00490947
-0.000362024
-0.000633515
-0.000950254
-0.00131225
-0.00674212
-0.0123077
-0.0179865
-0.0187783
-0.0244571
-0.0297286
-0.0290724
-0.0270362
-0.0233485
-0.0232805
-0.0220814
-0.0156561
-0.014819
-0.0150905
-0.0168552
-0.0148869
-0.018914
-0.0135294
-0.013371
-0.0183032
-0.0182806
-0.0283032
-0.0283711
-0.0334615
-0.0286199
-0.0288462
-0.0290724
-0.0243213
-0.029638
-0.035
-0.0403168
-0.0454978
-0.045543
-0.0505656
-0.0457692
-0.0514706
-0.0531222
-0.0511312
-0.0556561
-0.0616063
-0.068552
-0.0758145
-0.082647
-0.0884615
-0.0978959
-0.10586
-0.112715
-0.118778
-0.12448
-0.120023
-0.125498
-0.130973
-0.131403
-0.13681
-0.137172
-0.137466
-0.137647
-0.132738
-0.132805
-0.132805
-0.13276
-0.13267
-0.127511
-0.127262
-0.121991
-0.116652
-0.116267
-0.115837
-0.115317
-0.119729
-0.11905
-0.118303
-0.117489
-0.116629
-0.110679
-0.104638
-0.103529
-0.107376
-0.106154
-0.0998643
-0.103507
-0.102104
-0.100611
-0.0990498
-0.097466
-0.0958371
-0.0892307
-0.097647
-0.0961312
-0.0996606
-0.0982579
-0.0969457
-0.0907466
-0.0846154
-0.0785973
-0.0676923
-0.0669231
-0.056267
-0.050724
-0.0452941
-0.0449774
-0.0397512
-0.034638
-0.039638
-0.0347512
-0.0299548
-0.0252489
-0.0206561
-0.0111312
0.00332577
0.00769229
0.0120136
0.00626695
0.0204977
0.0297511
0.0440271
0.0483258
0.0376697
0.0320814
0.0215385
0.0110407
0.000588216
-0.00477377
-0.0100453
-0.0152489
-0.0203846
-0.0254751
-0.0255204
-0.0304978
-0.0354299
-0.0353168
-0.0351584
-0.03
-0.029819
-0.024638
-0.0244118
-0.0241855
-0.0239367
-0.0186652
-0.0183937
-0.0331448
-0.0678959
-0.0976697
-0.107421
-0.0721946
0.0380543
0.248303
0.543575
0.873869
1.19416
1.4145
1.48484
1.3952
1.17557
0.87595
0.551335
0.306697
0.132081
0.0524887
0.0228733
0.00830317
0.00871041
-0.000882357
-0.00549775
-0.0100905
-0.0246606
-0.0442081
-0.0537557
-0.0532805
-0.0627828
-0.0622624
-0.0667421
-0.0712217
-0.0806561
-0.0850905
-0.0894796
-0.0888461
-0.0832127
-0.0876018
-0.0869909
-0.0864027
-0.0907918
-0.095181
-0.0945701
-0.0939593
-0.0933258
-0.0876471
-0.0819683
-0.0812896
-0.0806109
-0.0848869
-0.0791855
-0.0885068
-0.0878054
-0.0871041
-0.0863801
-0.0806335
-0.0798642
-0.0741176
-0.078371
-0.0726244
-0.0718778
-0.0611312
-0.055362
-0.0445701
-0.0337783
-0.0179412
-0.00710406
-0.00119909
0.00972851
0.0206787
0.036629
0.0525792
0.073552
0.0894797
0.105407
0.12138
0.142353
0.158326
0.174321
0.195362
0.201403
0.212443
0.213462
0.20957
0.200724
0.191968
0.183235
0.16948
0.160701
0.1469
0.133054
0.11414
0.090181
0.0711538
0.0520588
0.0429185
0.028733
0.0195249
0.0103167
-0.00398193
-0.0133032
-0.0226697
-0.0270362
-0.0313801
-0.0356788
-0.0349322
-0.0391403
-0.0383032
-0.0424208
-0.0414933
-0.0455883
-0.044819
-0.0491177
-0.048439
-0.0475792
-0.0512444
-0.0539819
-0.050362
-0.0452489
-0.0486878
-0.0411312
-0.0382353
-0.0307692
-0.0292986
-0.0291855
-0.025543
-0.0329638
-0.041086
-0.0394118
-0.0427828
-0.0413122
-0.0452489
-0.0400452
-0.0511312
-0.0586425
-0.067647
-0.0727149
-0.0783258
-0.0886651
-0.0982127
-0.101538
-0.103575
-0.109412
-0.10948
-0.114072
-0.113484
-0.112805
-0.107059
-0.106312
-0.105588
-0.109819
-0.10905
-0.108281
-0.107421
-0.106516
-0.110588
-0.109638
-0.11362
-0.112579
-0.116538
-0.115498
-0.109434
-0.113371
-0.112308
-0.116222
-0.120158
-0.11905
-0.122919
-0.121765
-0.125611
-0.124457
-0.123303
-0.122104
-0.12086
-0.114593
-0.113303
-0.111968
-0.115588
-0.114186
-0.112783
-0.111312
-0.104796
-0.103213
-0.0965611
-0.0898643
-0.0931222
-0.0863349
-0.0794344
-0.0724887
-0.0654978
-0.0584615
-0.051448
-0.0494344
-0.0524661
-0.050543
-0.0536878
-0.0519231
-0.0552715
-0.0537557
-0.057353
-0.0560634
-0.0499095
-0.0438914
-0.0330543
-0.022353
-0.0168552
-0.0114706
-0.00619911
-0.0110407
0.00404976
0.00907237
0.0190724
0.0240724
0.019095
0.0141403
0.00420813
-0.00567875
-0.0154978
-0.0202263
-0.0298643
-0.0394344
-0.0439367
-0.0583937
-0.0628281
-0.0672398
-0.0615837
-0.0558824
-0.060181
-0.059457
-0.0587104
-0.0579864
-0.0622625
-0.0565158
-0.0557466
-0.0549774
-0.0541855
-0.0633937
-0.0826245
-0.116923
-0.136199
-0.115498
-0.0247964
0.155905
0.436629
0.74733
1.06299
1.27864
1.38928
1.32993
1.14554
0.876131
0.586765
0.317398
0.138032
0.0286652
-0.0157014
-0.0350905
-0.0444796
-0.0488461
-0.0432127
-0.0525566
-0.0569005
-0.0612443
-0.0805882
-0.0899095
-0.0942534
-0.0936199
-0.102986
-0.107353
-0.106697
-0.111063
-0.110385
-0.119706
-0.11905
-0.123416
-0.117828
-0.122262
-0.126674
-0.126086
-0.13052
-0.124977
-0.124434
-0.123914
-0.128416
-0.122873
-0.117285
-0.111674
-0.111063
-0.110475
-0.0998642
-0.104253
-0.0986425
-0.0979864
-0.0923303
-0.0866516
-0.0809728
-0.0752941
-0.0795927
-0.0738687
-0.0681447
-0.0573981
-0.0466515
-0.0358823
-0.0250904
-0.0193438
-0.0135972
-0.00289586
0.0128055
0.0284616
0.0440724
0.0546381
0.0701584
0.0807014
0.0962444
0.106855
0.132511
0.148213
0.158937
0.174638
0.180272
0.180928
0.176584
0.167262
0.157964
0.14862
0.139231
0.129751
0.110158
0.0904525
0.0656788
0.0508824
0.0310634
0.0212444
0.0114027
0.0065385
-0.00834839
-0.02319
-0.0279864
-0.0327828
-0.0375566
-0.0423303
-0.0421041
-0.0518778
-0.0566516
-0.0614253
-0.0712217
-0.0710181
-0.0758597
-0.0707919
-0.075905
-0.0761312
-0.0762896
-0.0810407
-0.0799095
-0.0824208
-0.0733937
-0.0728959
-0.0616063
-0.0603846
-0.0503846
-0.047647
-0.0575339
-0.0601131
-0.0697737
-0.0754298
-0.0859954
-0.0856108
-0.088914
-0.0908823
-0.0918778
-0.0973303
-0.102511
-0.102602
-0.10267
-0.107805
-0.102964
-0.103167
-0.103371
-0.108575
-0.113801
-0.113959
-0.124118
-0.119231
-0.119389
-0.114547
-0.109706
-0.109842
-0.115
-0.120204
-0.115362
-0.115543
-0.115701
-0.11086
-0.106018
-0.116199
-0.12138
-0.126538
-0.126719
-0.126878
-0.132059
-0.13224
-0.132443
-0.137647
-0.137873
-0.1381
-0.133303
-0.138507
-0.138688
-0.138914
-0.13414
-0.134389
-0.129615
-0.129842
-0.135068
-0.130271
-0.130498
-0.125769
-0.126041
-0.12129
-0.111516
-0.106742
-0.0969909
-0.0972398
-0.0925113
-0.0977828
-0.0980769
-0.103303
-0.103507
-0.0937556
-0.0840045
-0.0742986
-0.0696606
-0.0651131
-0.0656787
-0.0613122
-0.0570361
-0.047828
-0.0336877
-0.0196153
-0.0106108
-0.0166968
-0.0228054
-0.0289366
-0.0400452
-0.0411085
-0.042104
-0.0480769
-0.0540497
-0.0599773
-0.0658823
-0.066742
-0.0675791
-0.0733709
-0.0691855
-0.0699773
-0.0657692
-0.0665836
-0.0673528
-0.0681447
-0.0639366
-0.0597511
-0.0555655
-0.0563348
-0.0721266
-0.0928732
-0.123642
-0.134366
-0.095113
0.029163
0.238416
0.552692
0.861969
1.1662
1.35543
1.39462
1.2638
1.00796
0.697172
0.391403
0.170634
0.0548643
-0.0159276
-0.041742
-0.0525113
-0.0583031
-0.0641176
-0.0599321
-0.0607239
-0.0715158
-0.0723529
-0.0882126
-0.0940724
-0.104977
-0.105837
-0.106697
-0.112534
-0.113348
-0.114163
-0.11
-0.12086
-0.121697
-0.122534
-0.123348
-0.124118
-0.124864
-0.120656
-0.121471
-0.11233
-0.11819
-0.114005
-0.104842
-0.105656
-0.101471
-0.0973077
-0.0931448
-0.0940045
-0.0898416
-0.0907014
-0.0865611
-0.0824208
-0.0732579
-0.069095
-0.0599321
-0.0507466
-0.0465837
-0.0373982
-0.0231901
-0.0139593
-0.00470589
0.00454751
0.0188461
0.0331448
0.0474887
0.0618326
0.0761991
0.090543
0.0998642
0.109163
0.128461
0.142805
0.157172
0.171561
0.185973
0.200385
0.204796
0.214231
0.21871
0.223213
0.21776
0.212308
0.206855
0.196312
0.180701
0.165023
0.144276
0.123529
0.102738
0.0868326
0.0708145
0.0597059
0.0435521
0.0324435
0.0213801
0.0153394
0.00434395
-0.00165153
-0.00762439
-0.0186199
-0.0195927
-0.0155656
-0.0164932
-0.0173529
-0.0281448
-0.0289366
-0.0397963
-0.0407466
-0.0468552
-0.048009
-0.0489819
-0.0494117
-0.048914
-0.0469683
-0.0436425
-0.0389592
-0.0284162
-0.0226696
-0.0174208
-0.0181674
-0.0202036
-0.0186878
-0.0185294
-0.0196154
-0.0222172
-0.0363348
-0.0370814
-0.044095
-0.0470362
-0.0599547
-0.0672172
-0.0683484
-0.0729638
-0.0763122
-0.0786199
-0.0853393
-0.0867421
-0.088009
-0.0892081
-0.0903619
-0.0914932
-0.0925791
-0.0936877
-0.0947511
-0.100792
-0.106787
-0.107715
-0.108597
-0.109434
-0.105249
-0.105995
-0.116787
-0.117579
-0.123303
-0.124027
-0.124728
-0.125407
-0.121063
-0.121719
-0.12233
-0.122964
-0.123597
-0.124208
-0.124796
-0.120362
-0.125882
-0.12638
-0.126855
-0.132308
-0.132715
-0.138122
-0.133507
-0.133869
-0.129185
-0.129457
-0.129661
-0.129842
-0.129955
-0.125045
-0.125113
-0.125181
-0.125204
-0.120181
-0.115136
-0.115068
-0.11
-0.109909
-0.109887
-0.114864
-0.109864
-0.104909
-0.0900226
-0.0802489
-0.065543
-0.0559728
-0.0465158
-0.0421945
-0.0430543
-0.0340497
-0.0152262
0.00352944
0.0171493
0.0207693
0.00932129
-0.0021493
-0.0136199
-0.0200679
-0.0214932
-0.0228733
-0.0191629
-0.0254298
-0.0266063
-0.0326923
-0.0437104
-0.0546832
-0.0556335
-0.0565158
-0.0573982
-0.0532353
-0.054095
-0.0549321
-0.0507692
-0.0465611
-0.0523303
-0.0480995
-0.0438688
-0.044638
-0.0503846
-0.0711086
-0.10681
-0.132511
-0.118235
-0.0389367
0.120339
0.384615
0.693891
1.04314
1.31742
1.5167
1.516
1.37027
1.10955
0.773824
0.478122
0.242443
0.101787
0.0311086
0.000452496
-0.0202036
-0.0308824
-0.0365158
-0.042172
-0.0478054
-0.0584389
-0.0640498
-0.0746833
-0.0903394
-0.100973
-0.106606
-0.112217
-0.117805
-0.113394
-0.109027
-0.114661
-0.115317
-0.11595
-0.116584
-0.117195
-0.117783
-0.123394
-0.119005
-0.114615
-0.115226
-0.110814
-0.111403
-0.111968
-0.107557
-0.108145
-0.103733
-0.0993665
-0.0899774
-0.0856108
-0.0811991
-0.0767647
-0.0723077
-0.0728507
-0.0633936
-0.0639366
-0.0544796
-0.0499773
-0.0404751
-0.0309728
-0.0264706
-0.0169683
-0.00746606
0.00705883
0.0166063
0.0361539
0.0457014
0.0552489
0.069819
0.0794118
0.0990724
0.108801
0.128597
0.138416
0.153281
0.173167
0.183077
0.203054
0.203122
0.218281
0.208484
0.20871
0.203891
0.194005
0.184095
0.169163
0.154231
0.129321
0.114412
0.094457
0.0795022
0.0645248
0.0544796
0.0394117
0.0243439
0.014276
0.00423073
0.00418549
-0.00088238
-0.00101812
-0.0111539
-0.0162896
-0.0164706
-0.016629
-0.0167647
-0.0169231
-0.022172
-0.0275792
-0.0331901
-0.033914
-0.0395475
-0.0347511
-0.0342082
-0.0324209
-0.0341856
-0.0293665
-0.0232806
-0.0162896
-0.00927604
-0.00289596
0.00735297
0.00610862
0.00350681
-0.000180973
0.000475137
-0.0041855
-0.00398188
0.00113124
-0.0088235
-0.00380088
-0.0088235
-0.00889138
-0.0140498
-0.0142307
-0.0144344
-0.0196154
-0.0197059
-0.0247737
-0.0250452
-0.0258597
-0.0276923
-0.0308597
-0.035543
-0.0466742
-0.0537556
-0.0660407
-0.0728959
-0.073552
-0.0778507
-0.0807013
-0.0824208
-0.0885068
-0.0892534
-0.0899095
-0.0904977
-0.0910181
-0.0914932
-0.0869004
-0.0922398
-0.092466
-0.097647
-0.102738
-0.10276
-0.102715
-0.102624
-0.102466
-0.102285
-0.107036
-0.106742
-0.10638
-0.10595
-0.100498
-0.0949774
-0.0994117
-0.0988009
-0.0981222
-0.0973529
-0.101538
-0.100679
-0.0997285
-0.098733
-0.10267
-0.101561
-0.0953846
-0.0941629
-0.0928733
-0.0964932
-0.100068
-0.098552
-0.0970362
-0.0904751
-0.0889593
-0.0874434
-0.0809502
-0.0845249
-0.0831448
-0.0818778
-0.085724
-0.0797059
-0.0738009
-0.0730543
-0.0724208
-0.0669231
-0.0715385
-0.0712896
-0.0711765
-0.0761991
-0.0713575
-0.0666063
-0.0519457
-0.0473529
-0.0428733
-0.0385068
-0.0392081
-0.0399774
-0.0357919
-0.0216516
-0.00757918
0.0014706
0.000475124
-0.00547511
-0.0214027
-0.0272398
-0.0380317
-0.048733
-0.0494118
-0.0550679
-0.0556335
-0.0611538
-0.0666063
-0.0770136
-0.0823077
-0.0775792
-0.0728507
-0.0680996
-0.0683484
-0.0685973
-0.0688235
-0.0639819
-0.0641403
-0.0592534
-0.0543665
-0.0444796
-0.0446154
-0.0497511
-0.0698643
-0.1
-0.110136
-0.0702715
0.0445928
0.27448
0.574367
0.904253
1.22412
1.43396
1.47882
1.38367
1.11855
0.813462
0.498371
0.253281
0.113213
0.0431222
0.0230543
0.00796381
-0.00214931
-0.0122624
-0.0223529
-0.0323756
-0.0474208
-0.0524661
-0.0675339
-0.0776018
-0.0876471
-0.0976697
-0.102692
-0.107738
-0.11276
-0.117805
-0.122851
-0.127896
-0.127919
-0.132919
-0.132896
-0.127896
-0.132919
-0.132964
-0.133009
-0.133054
-0.1381
-0.138145
-0.133167
-0.133213
-0.128258
-0.128281
-0.128326
-0.128371
-0.128439
-0.128529
-0.12862
-0.12371
-0.123778
-0.123823
-0.123869
-0.118891
-0.118937
-0.108982
-0.0990271
-0.094095
-0.0841176
-0.0691176
-0.0591176
-0.0441402
-0.0291402
-0.0141855
0.000746675
0.0207014
0.0406109
0.0605657
0.0755204
0.0905657
0.105634
0.125724
0.140837
0.15595
0.166063
0.176199
0.186403
0.186674
0.191968
0.182263
0.172511
0.157692
0.147851
0.127964
0.118054
0.113145
0.0932128
0.0832354
0.068258
0.0582806
0.0382806
0.0282806
0.0233033
0.0133485
0.0133938
0.00843902
0.00348427
-0.00647047
-0.0164026
-0.0213347
-0.0262216
-0.0260859
-0.0259275
-0.0257917
-0.030656
-0.0306107
-0.0307239
-0.0358822
-0.035837
-0.040294
-0.0387103
-0.0357917
-0.02638
-0.0204976
-0.018665
-0.0116288
-0.0150226
-0.00959276
-0.00554299
-0.00294118
-0.00649322
-0.00570136
-0.0102715
-0.00495475
0.000294119
0.000497739
-0.00434389
-0.014276
-0.0143439
-0.0145249
-0.0147511
-0.0200452
-0.025362
-0.0306787
-0.0310181
-0.0263575
-0.0317195
-0.0321041
-0.0325113
-0.0329186
-0.0383032
-0.0386652
-0.0390498
-0.039457
-0.0348643
-0.0303167
-0.0307919
-0.0362896
-0.0368326
-0.0373982
-0.0429864
-0.043552
-0.0441403
-0.0447059
-0.0402489
-0.040724
-0.0410634
-0.0413122
-0.0415385
-0.041991
-0.0430769
-0.0502715
-0.0538009
-0.0588462
-0.0651131
-0.0721493
-0.0791855
-0.0854525
-0.0955882
-0.0991855
-0.101448
-0.0977376
-0.0984389
-0.0938688
-0.0891403
-0.0943213
-0.0893665
-0.0942987
-0.0890724
-0.0937104
-0.0932127
-0.0926018
-0.0918552
-0.0909955
-0.0900226
-0.0889593
-0.0878054
-0.0865385
-0.0802262
-0.0788461
-0.0724661
-0.0711312
-0.0698416
-0.0685747
-0.0723982
-0.071267
-0.070181
-0.0592081
-0.0632805
-0.0674208
-0.0716063
-0.075905
-0.0752489
-0.0746606
-0.0691403
-0.0686652
-0.0682127
-0.0678281
-0.0674887
-0.0672172
-0.071991
-0.07181
-0.066629
-0.0614932
-0.0664253
-0.0664027
-0.0614253
-0.0614932
-0.066629
-0.0617647
-0.061991
-0.0572624
-0.0575792
-0.0629186
-0.0633258
-0.0638235
-0.0643665
-0.0700452
-0.0707692
-0.0665837
-0.0574887
-0.0534842
-0.0445475
-0.0407014
-0.0419004
-0.0431222
-0.0444118
-0.0357466
-0.0171493
-0.00855204
-0.00493214
-0.0062896
-0.0126018
-0.0238914
-0.0301358
-0.0363122
-0.0373756
-0.0383711
-0.0392987
-0.0451358
-0.0558824
-0.0615837
-0.0622172
-0.0577828
-0.0532806
-0.0486878
-0.0440498
-0.0393665
-0.0296833
-0.0299774
-0.0252489
-0.0255204
-0.0207692
-0.0209955
-0.0262217
-0.0414254
-0.0716064
-0.0917647
-0.0969231
-0.0470815
0.0977828
0.342647
0.637511
0.972353
1.24722
1.4171
1.42701
1.26692
1.02183
0.691719
0.411606
0.206493
0.0914027
0.0463122
0.0262443
0.0212217
0.0111764
0.00617645
-0.00882355
-0.0238009
-0.0387557
-0.0487104
-0.0586652
-0.0686199
-0.0785747
-0.0885068
-0.0984389
-0.113326
-0.123235
-0.1331
-0.142964
-0.142805
-0.147647
-0.152489
-0.152308
-0.152104
-0.146878
-0.141652
-0.14138
-0.141109
-0.14086
-0.135656
-0.135452
-0.125226
-0.119977
-0.109706
-0.109434
-0.0991629
-0.098914
-0.0936425
-0.088371
-0.0830995
-0.0827828
-0.0724434
-0.0570588
-0.0516968
-0.0413348
-0.0309502
-0.0205656
-0.020181
-0.00477374
0.00565612
0.0161086
0.0265837
0.0420588
0.0575339
0.0680091
0.0884842
0.0989367
0.119389
0.139864
0.155385
0.170928
0.186538
0.202172
0.212828
0.228507
0.234186
0.23991
0.240747
0.236629
0.232534
0.218439
0.209321
0.195158
0.18095
0.161742
0.142534
0.128326
0.10914
0.0899321
0.0757014
0.0614706
0.0472398
0.0330091
0.0188235
0.0146833
0.00554299
0.00142534
-0.00266968
-0.00674208
-0.0107919
-0.0147964
-0.0187783
-0.0177602
-0.0167647
-0.0208597
-0.0250679
-0.0243892
-0.023733
-0.0278733
-0.0263349
-0.0286878
-0.0197059
-0.0192081
-0.0174887
-0.0150226
-0.00757921
-0.000904979
0.00463799
0.00868776
0.0114706
0.0133258
0.0145927
0.0155882
0.0114253
0.0122398
0.00800904
0.00380089
0.00457013
-0.00468327
-0.00395928
-0.0032353
-0.00253394
-0.00187784
-0.00624435
-0.00565612
-0.0150679
-0.00950227
-0.0139593
-0.0134615
-0.0130091
-0.0125566
-0.0121041
-0.0166742
-0.0262444
-0.0308371
-0.0304073
-0.0299774
-0.0345475
-0.0340498
-0.0284389
-0.0326471
-0.0368552
-0.0412217
-0.0411765
-0.0420588
-0.0443665
-0.0429864
-0.0528959
-0.0585294
-0.0692082
-0.0842987
-0.0882579
-0.0958371
-0.0970136
-0.097172
-0.0967195
-0.095905
-0.0999095
-0.0988462
-0.102715
-0.101516
-0.105249
-0.108914
-0.107489
-0.10595
-0.104299
-0.102534
-0.100701
-0.098733
-0.0966516
-0.094457
-0.0972172
-0.0948643
-0.0974208
-0.0999095
-0.0973077
-0.0946606
-0.0969457
-0.0942082
-0.0914706
-0.0887557
-0.086086
-0.0835068
-0.0760181
-0.0785973
-0.0762896
-0.0740724
-0.0769457
-0.0749095
-0.0779864
-0.0811539
-0.0794118
-0.0727376
-0.0761539
-0.0796606
-0.0732127
-0.0718552
-0.0655656
-0.0693213
-0.0681448
-0.0770588
-0.0760181
-0.0750453
-0.0741403
-0.0682806
-0.0725113
-0.0668326
-0.0662217
-0.0606788
-0.0652489
-0.0648869
-0.0645928
-0.0643665
-0.0592534
-0.0542308
-0.0392987
-0.029457
-0.0246833
-0.025
-0.0253394
-0.0257466
-0.0111765
0.00339366
0.0179638
0.0175339
0.0171493
0.00678733
-0.00352941
-0.0137783
-0.0240045
-0.0341403
-0.0392081
-0.0392081
-0.0441177
-0.0439819
-0.0537557
-0.063552
-0.0683032
-0.0680543
-0.0677602
-0.0673756
-0.0719457
-0.071448
-0.0709502
-0.0654525
-0.0649548
-0.059457
-0.0589367
-0.0734163
-0.0978733
-0.132285
-0.131719
-0.0861765
0.0493665
0.264955
0.580543
0.881131
1.16676
1.33238
1.34801
1.22362
0.974186
0.679774
0.385362
0.165928
0.0414932
-0.0279186
-0.0573077
-0.0717195
-0.0711086
-0.0754977
-0.0798869
-0.0842987
-0.088733
-0.0981674
-0.112624
-0.117036
-0.121448
-0.13086
-0.135249
-0.144638
-0.139005
-0.148394
-0.15276
-0.157149
-0.161561
-0.165973
-0.175385
-0.179819
-0.184253
-0.183688
-0.188145
-0.177602
-0.172059
-0.171493
-0.165928
-0.165362
-0.159796
-0.159276
-0.153733
-0.14819
-0.142692
-0.142195
-0.136674
-0.131154
-0.125679
-0.115158
-0.104661
-0.0991629
-0.0886878
-0.0732127
-0.0677602
-0.0573077
-0.0418552
-0.0314027
-0.015905
-0.000429884
0.0150452
0.0304977
0.0509954
0.0664706
0.0769231
0.0973982
0.117851
0.133326
0.148801
0.169321
0.184887
0.205475
0.211063
0.226674
0.232285
0.232964
0.233688
0.22948
0.220249
0.211018
0.196719
0.182376
0.168009
0.148597
0.134163
0.119728
0.100317
0.085905
0.0664706
0.0619231
0.0572851
0.0526018
0.0428733
0.0230995
0.0133258
-0.00149322
-0.00638008
-0.0163348
-0.0213575
-0.0214253
-0.0264932
-0.0315159
-0.0366063
-0.0417647
-0.0420362
-0.0422851
-0.0472851
-0.0566516
-0.055
-0.0518779
-0.0523529
-0.0464932
-0.0449095
-0.0382805
-0.0322624
-0.0323982
-0.0338688
-0.0266742
-0.0254751
-0.0298416
-0.0345475
-0.0344117
-0.0393439
-0.044276
-0.0441629
-0.0439366
-0.0436199
-0.0433484
-0.0384615
-0.0493665
-0.0514931
-0.055113
-0.0652035
-0.0715836
-0.0836425
-0.0905656
-0.101742
-0.106561
-0.110023
-0.112172
-0.113507
-0.11448
-0.115294
-0.116063
-0.11181
-0.112557
-0.113258
-0.113914
-0.119525
-0.12009
-0.120588
-0.116018
-0.121425
-0.126787
-0.122104
-0.122398
-0.12267
-0.127919
-0.123167
-0.128394
-0.123575
-0.11871
-0.118824
-0.118891
-0.123914
-0.123914
-0.123869
-0.123756
-0.12862
-0.128416
-0.123167
-0.117873
-0.122511
-0.122081
-0.116584
-0.121086
-0.115498
-0.114842
-0.10914
-0.103394
-0.102602
-0.101765
-0.100882
-0.104977
-0.104004
-0.103032
-0.0970588
-0.0961085
-0.0902036
-0.0893891
-0.0836651
-0.0830995
-0.087647
-0.0873076
-0.0921266
-0.0970588
-0.102149
-0.107398
-0.102828
-0.0884162
-0.0791176
-0.074932
-0.065837
-0.0568551
-0.0580542
-0.054389
-0.0408596
-0.0273981
-0.00900443
-0.000633374
0.00273766
-0.00889134
-0.010475
-0.0220361
-0.0335293
-0.0399547
-0.0512895
-0.0575565
-0.0687782
-0.079932
-0.091018
-0.102036
-0.0980089
-0.0939818
-0.0849094
-0.0807917
-0.0816515
-0.0825338
-0.0833257
-0.0840949
-0.0798868
-0.0756786
-0.0764252
-0.0771945
-0.093009
-0.123823
-0.149638
-0.14543
-0.071199
0.0880544
0.352263
0.676493
0.990724
1.26993
1.40916
1.38337
1.2076
0.901787
0.595973
0.300158
0.114344
0.0235521
-0.0172171
-0.0329637
-0.0386877
-0.0443891
-0.0450904
-0.0507918
-0.0614932
-0.0672171
-0.0829411
-0.0936651
-0.0993439
-0.105045
-0.110747
-0.111425
-0.117104
-0.11776
-0.113439
-0.114095
-0.114774
-0.115407
-0.116018
-0.116629
-0.11224
-0.112873
-0.113507
-0.11414
-0.109796
-0.110475
-0.106154
-0.101787
-0.102398
-0.0980317
-0.0986652
-0.089276
-0.0899095
-0.0854978
-0.0810634
-0.0766064
-0.0671267
-0.0626471
-0.0531674
-0.0536878
-0.0542308
-0.0497738
-0.0502941
-0.0457919
-0.0413122
-0.0318326
-0.022353
-0.00285069
0.00665158
0.0161539
0.0306561
0.0401584
0.059638
0.0740724
0.0984615
0.112851
0.13233
0.151833
0.16638
0.180995
0.200633
0.220249
0.234887
0.244593
0.249367
0.249208
0.249095
0.244005
0.228869
0.218733
0.198552
0.183303
0.163054
0.142783
0.122466
0.107104
0.0916742
0.0712217
0.0607013
0.0552036
0.0447511
0.0343439
0.0239592
0.0235746
0.00821264
0.00285066
0.00251129
-0.00282808
-0.0131674
-0.0135521
-0.00900455
-0.00959279
-0.010362
-0.0162896
-0.0221946
-0.0227828
-0.0226923
-0.026448
-0.0238009
-0.0197738
-0.0194797
-0.0135068
-0.0126018
-0.00244347
0.00135745
0.00377826
0.00488689
0.000135757
-0.00502262
-0.0103394
-0.0157014
-0.0160633
-0.016448
-0.0168326
-0.0172172
-0.0176471
-0.0180996
-0.0186425
-0.0242534
-0.0248869
-0.0305656
-0.031267
-0.031991
-0.0376924
-0.0382806
-0.0386878
-0.0390272
-0.0445249
-0.0455204
-0.047534
-0.0509276
-0.0557919
-0.0621946
-0.0695249
-0.0721946
-0.079276
-0.085181
-0.0945928
-0.0975113
-0.0993439
-0.100566
-0.101516
-0.10233
-0.1081
-0.113824
-0.114502
-0.115113
-0.115611
-0.116041
-0.116357
-0.116629
-0.116855
-0.122014
-0.122149
-0.117217
-0.112262
-0.11224
-0.112149
-0.111968
-0.116719
-0.116425
-0.121041
-0.120633
-0.115113
-0.109548
-0.103869
-0.108122
-0.102285
-0.106357
-0.110362
-0.104276
-0.0980996
-0.0968552
-0.095543
-0.0941855
-0.0878281
-0.0864932
-0.0851584
-0.0838462
-0.0826018
-0.0814254
-0.075362
-0.0794118
-0.0835973
-0.077896
-0.0773304
-0.0718779
-0.0765159
-0.0713122
-0.0712218
-0.0762217
-0.0763349
-0.0765611
-0.0769231
-0.0823756
-0.0829638
-0.0886426
-0.0843892
-0.0802715
-0.071267
-0.057353
-0.0434842
-0.0346833
-0.0259276
-0.0272399
-0.0236426
-0.0150453
-0.00647062
0.00710405
0.0157013
0.0143665
0.00305428
-0.00819007
-0.0193892
-0.0254978
-0.0264932
-0.0324208
-0.0282579
-0.0290498
-0.0347964
-0.0404978
-0.0461539
-0.0467421
-0.0472851
-0.0527828
-0.0532579
-0.0537104
-0.0491403
-0.0445701
-0.0449774
-0.0403846
-0.0408145
-0.0362217
-0.0466063
-0.071991
-0.10733
-0.122624
-0.0879186
0.0217873
0.246493
0.551222
0.88095
1.22068
1.42541
1.50014
1.37489
1.11464
0.789412
0.464186
0.223959
0.093733
0.0335294
0.0133258
0.00309953
-0.00214935
-0.00739822
-0.0176245
-0.0328507
-0.0430543
-0.0582353
-0.0684163
-0.0785973
-0.0887557
-0.0939367
-0.104095
-0.104186
-0.109208
-0.114231
-0.114253
-0.119299
-0.119367
-0.124434
-0.119548
-0.124661
-0.119729
-0.119751
-0.119729
-0.119729
-0.119683
-0.119661
-0.124661
-0.124638
-0.11957
-0.119502
-0.119412
-0.114321
-0.109231
-0.109163
-0.109072
-0.108982
-0.103869
-0.098733
-0.0885747
-0.0784389
-0.0733258
-0.0632127
-0.0531222
-0.0479864
-0.0328733
-0.0177149
-0.00255658
0.0125792
0.0277375
0.0478959
0.0680543
0.08319
0.0983258
0.113439
0.138575
0.153733
0.173914
0.189186
0.204502
0.214887
0.225317
0.240747
0.241176
0.246652
0.242149
0.237692
0.223281
0.213846
0.199321
0.184751
0.170113
0.14543
0.130724
0.110973
0.0962444
0.0814932
0.0667195
0.0519457
0.0371267
0.0273303
0.0175113
0.0126697
0.00782805
0.00298642
0.00316741
-0.00665159
-0.00644797
-0.00624435
-0.0110634
-0.0158597
-0.0207014
-0.0306787
-0.0408597
-0.0411765
-0.0464027
-0.0461539
-0.0498643
-0.0471493
-0.0428959
-0.0370588
-0.0303168
-0.0232127
-0.0166516
-0.0162443
-0.0173303
-0.0148642
-0.0134615
-0.0176244
-0.0170588
-0.0115611
-0.0111086
-0.0157013
-0.0203393
-0.0200226
-0.0247964
-0.0296154
-0.0295022
-0.0294344
-0.0343665
-0.0342308
-0.0389592
-0.0486425
-0.0584389
-0.0586878
-0.0598642
-0.0573755
-0.0614027
-0.0668778
-0.0684389
-0.0753393
-0.0869457
-0.097466
-0.106742
-0.109547
-0.116176
-0.117059
-0.117579
-0.118009
-0.123348
-0.123643
-0.128891
-0.129118
-0.124276
-0.119344
-0.124367
-0.124367
-0.129321
-0.134231
-0.134072
-0.133846
-0.133575
-0.128258
-0.122896
-0.127466
-0.126991
-0.131403
-0.130747
-0.13
-0.134186
-0.133303
-0.132353
-0.13129
-0.130158
-0.128959
-0.127692
-0.126312
-0.119842
-0.123303
-0.116674
-0.119977
-0.118235
-0.116425
-0.10957
-0.107715
-0.10086
-0.0940045
-0.0921945
-0.0854751
-0.0738009
-0.0722398
-0.0657692
-0.0594117
-0.0532126
-0.0471493
-0.0461991
-0.0403846
-0.0396832
-0.044095
-0.0386199
-0.0432805
-0.0380543
-0.0379185
-0.0378959
-0.0379412
-0.0380769
-0.0332805
-0.0386199
-0.0340271
-0.0295249
-0.0301131
-0.0307692
-0.0264932
-0.0173077
-0.00319002
0.0109276
0.0150679
0.00925342
-0.00151581
-0.0122398
-0.0229185
-0.0185068
-0.0240045
-0.0294344
-0.0347737
-0.0300678
-0.0353167
-0.0405203
-0.0456787
-0.0458371
-0.0509955
-0.051086
-0.0461086
-0.0411086
-0.0411086
-0.0361086
-0.0361086
-0.0361312
-0.0361765
-0.0462443
-0.0713122
-0.106312
-0.126312
-0.101335
-0.0064027
0.193529
0.488439
0.818416
1.13842
1.37342
1.45344
1.38344
1.14844
0.873394
0.548371
0.288348
0.123303
0.0432579
0.0182127
-0.00180997
-0.00685521
-0.0168778
-0.0219231
-0.0319683
-0.0469909
-0.0569683
-0.0619457
-0.0719457
-0.0769683
-0.0870362
-0.0920815
-0.0921041
-0.0971267
-0.0971041
-0.102059
-0.107036
-0.117014
-0.117014
-0.122014
-0.122014
-0.122014
-0.117014
-0.122014
-0.122014
-0.122014
-0.122014
-0.121991
-0.126968
-0.121923
-0.1269
-0.126855
-0.12681
-0.131765
-0.126742
-0.126719
-0.121697
-0.126652
-0.121584
-0.116538
-0.116471
-0.106357
-0.101267
-0.0911765
-0.081086
-0.0659955
-0.0609276
-0.0458371
-0.0357466
-0.0256561
-0.0155882
-0.000497725
0.0145701
0.024638
0.0447285
0.054819
0.0698869
0.0849548
0.105045
0.120113
0.140181
0.155271
0.165362
0.175475
0.185633
0.190837
0.191086
0.18138
0.171674
0.1569
0.147059
0.137149
0.117172
0.0971946
0.0821493
0.0620362
0.0468326
0.0316289
0.0214253
0.0112443
0.00606333
0.00592759
-0.00420815
-0.0192987
-0.0293439
-0.0343665
-0.0343439
-0.039276
-0.0392081
-0.0341177
-0.0290498
-0.0340271
-0.0491177
-0.0543665
-0.0597285
-0.06
-0.0598416
-0.0537783
-0.0614253
-0.0625792
-0.0572625
-0.0508145
-0.0388914
-0.0371267
-0.0263575
-0.0319684
-0.0295249
-0.0291856
-0.030905
-0.034457
-0.0444797
-0.0504978
-0.0617647
-0.0676019
-0.0723982
-0.0758824
-0.0831222
-0.0893892
-0.0851358
-0.0856788
-0.0811765
-0.0866969
-0.0921946
-0.0926697
-0.0981449
-0.0985747
-0.0989593
-0.0992987
-0.0996607
-0.0999774
-0.100294
-0.105611
-0.105905
-0.106154
-0.106403
-0.106629
-0.106855
-0.112081
-0.112308
-0.112557
-0.112783
-0.113032
-0.118281
-0.118507
-0.113778
-0.109027
-0.109276
-0.109525
-0.109796
-0.105068
-0.105317
-0.105611
-0.100837
-0.0960407
-0.0912217
-0.0863801
-0.0764932
-0.0816064
-0.0766969
-0.0767874
-0.0768552
-0.0769231
-0.0769457
-0.0719684
-0.0769683
-0.0769457
-0.0719005
-0.0718326
-0.0717421
-0.0715837
-0.0664027
-0.0661765
-0.0659276
-0.0706788
-0.0754073
-0.0751584
-0.0699321
-0.0647738
-0.0597059
-0.0497285
-0.0448869
-0.0401584
-0.035543
-0.031086
-0.0217873
-0.0125566
0.00160632
0.00572397
-0.000181012
-0.0111312
-0.0170588
-0.0279412
-0.0337557
-0.0445475
-0.0503168
-0.0510634
-0.0617873
-0.0674435
-0.0680769
-0.0736425
-0.0691403
-0.0695475
-0.0699548
-0.0704073
-0.0658371
-0.061267
-0.0616742
-0.0620815
-0.0524435
-0.0528281
-0.0582353
-0.0736426
-0.0990498
-0.134434
-0.149842
-0.120249
-0.0157014
0.188824
0.478348
0.802873
1.10242
1.30195
1.35143
1.24588
1.01034
0.709796
0.419253
0.193688
0.0730996
0.0175339
0.00196833
-0.00357466
-0.0141403
-0.0196833
-0.0252036
-0.0357466
-0.0512896
-0.0668326
-0.0723529
-0.0828959
-0.0884389
-0.0889819
-0.0945475
-0.100091
-0.105633
-0.111176
-0.111719
-0.11224
-0.112805
-0.113371
-0.113937
-0.114502
-0.115045
-0.120588
-0.116154
-0.116697
-0.117195
-0.11267
-0.113145
-0.108643
-0.10914
-0.099638
-0.105136
-0.105588
-0.101018
-0.0964027
-0.0917647
-0.0870815
-0.0774208
-0.0677376
-0.0630317
-0.0533484
-0.0486652
-0.0339819
-0.029276
-0.0145927
-0.00990949
-0.000203611
0.00945703
0.0141403
0.0238235
0.0335068
0.0431448
0.0527828
0.0573756
0.0719005
0.0814254
0.0959276
0.10543
0.114887
0.129344
0.143778
0.158235
0.172692
0.187104
0.186516
0.180905
0.175339
0.164796
0.164276
0.148733
0.133213
0.11767
0.102104
0.0815158
0.065905
0.0553168
0.0396833
0.0290724
0.0134842
0.00289593
-0.0126697
-0.0182127
-0.023733
-0.0342308
-0.0397059
-0.0451584
-0.0456109
-0.051086
-0.0565611
-0.0570136
-0.0574434
-0.0578733
-0.0582805
-0.0587104
-0.0542308
-0.0548869
-0.050724
-0.0517421
-0.0527828
-0.0588235
-0.0597059
-0.0504072
-0.0508371
-0.051086
-0.0512217
-0.051448
-0.0517195
-0.0521041
-0.0524887
-0.0528733
-0.0532353
-0.0535747
-0.0639367
-0.069276
-0.0696154
-0.0699321
-0.0702489
-0.0756109
-0.0709729
-0.0713575
-0.0717421
-0.0721041
-0.0774887
-0.0778733
-0.0782805
-0.0786878
-0.0840724
-0.079457
-0.079819
-0.0802036
-0.0805656
-0.0859276
-0.0912896
-0.0866742
-0.0870588
-0.0924887
-0.0979186
-0.0983484
-0.0938009
-0.0892308
-0.0896833
-0.0900905
-0.0955204
-0.0959729
-0.101403
-0.101855
-0.102308
-0.102738
-0.103145
-0.108529
-0.103891
-0.104253
-0.104615
-0.104955
-0.105317
-0.105633
-0.105973
-0.0963122
-0.101652
-0.101991
-0.0973303
-0.0876697
-0.0880317
-0.0833937
-0.0737783
-0.0741629
-0.0645701
-0.06
-0.0454299
-0.0358824
-0.0263122
-0.0267195
-0.0221041
-0.00746607
0.00219455
0.0169004
0.0216063
0.0213348
0.0110633
0.00588235
-0.00427603
-0.00945703
-0.00959277
-0.0147511
-0.0149095
-0.0200679
-0.0202263
-0.0303846
-0.0355204
-0.0406788
-0.0408597
-0.046086
-0.0513122
-0.0565385
-0.0567873
-0.0570362
-0.0573303
-0.0526471
-0.0429865
-0.0483484
-0.0586878
-0.0740045
-0.104321
-0.134638
-0.129955
-0.0702263
0.0745023
0.319276
0.61405
0.938846
1.20362
1.36339
1.35324
1.20808
0.947941
0.667805
0.387692
0.187579
0.0674887
0.0123982
-0.00771496
-0.0178055
-0.0228733
-0.0329864
-0.0380996
-0.0532127
-0.0683258
-0.0734389
-0.0785521
-0.0836426
-0.0887104
-0.0937557
-0.0938009
-0.0988688
-0.0989141
-0.103914
-0.108891
-0.108891
-0.113846
-0.108778
-0.11371
-0.11362
-0.113552
-0.113507
-0.108439
-0.0983711
-0.0983032
-0.0932353
-0.0881448
-0.0880543
-0.0829186
-0.0827828
-0.0826471
-0.077534
-0.0774435
-0.067353
-0.0622625
-0.0621267
-0.056991
-0.0518552
-0.0517421
-0.0416063
-0.036448
-0.0262896
-0.0161086
-0.0109276
-0.000769235
0.0093665
0.0195475
0.0247059
0.0348643
0.0450453
0.0602715
0.0705204
0.0807919
0.0961086
0.111448
0.13181
0.142195
0.157624
0.168122
0.178643
0.18914
0.199661
0.210226
0.200814
0.196448
0.187104
0.17776
0.158348
0.138914
0.129412
0.104864
0.0953167
0.0757692
0.0612443
0.0517194
0.0371946
0.0226244
0.013009
0.00832579
0.00357465
-0.00122172
-0.00604073
-0.0108597
-0.0157014
-0.0105882
-0.00552036
-0.00549775
-0.00540724
-0.0102941
-0.015181
-0.0151131
-0.0151131
-0.0152262
-0.0203394
-0.0201584
-0.0243213
-0.0223304
-0.0239593
-0.0190724
-0.0129638
-0.011086
-0.0042308
-0.00305432
0.00196831
0.000701352
0.00314479
-0.00031675
0.000678726
0.00642533
0.00208144
-0.00228508
-0.00162897
-0.00590498
-0.00502263
-0.00409503
-0.00328055
-0.00782806
-0.00807693
-0.014457
-0.022172
-0.0263349
-0.0314706
-0.0421946
-0.0576697
-0.0673303
-0.0708371
-0.0779412
-0.0839593
-0.0842308
-0.0891629
-0.0889593
-0.0887104
-0.0884389
-0.0880996
-0.092715
-0.0973077
-0.101833
-0.0962896
-0.100701
-0.100045
-0.0993439
-0.0986199
-0.0928281
-0.0970136
-0.0961539
-0.105249
-0.104344
-0.103394
-0.102398
-0.10138
-0.105317
-0.104208
-0.108054
-0.106855
-0.100634
-0.0943892
-0.0930996
-0.0917873
-0.0904525
-0.0890724
-0.0876471
-0.0911765
-0.0896607
-0.0880996
-0.0914706
-0.0847738
-0.0830091
-0.0761991
-0.0793439
-0.0724434
-0.0655204
-0.063552
-0.0565385
-0.0494796
-0.0424887
-0.0405204
-0.0386199
-0.03181
-0.0301357
-0.0235973
-0.0171493
-0.0158824
-0.0197059
-0.0236651
-0.0277828
-0.0270136
-0.0264027
-0.0209276
-0.0105656
0.00472851
0.00988688
0.00993212
0.00490951
0.009819
0.0196833
0.0295475
0.0444344
0.0393213
0.0292308
0.0191629
0.0141403
-0.000814479
-0.00567873
-0.000475112
-0.00524887
-0.00495475
-0.0145928
-0.0241629
-0.0336652
-0.0380995
-0.0474887
-0.0518552
-0.0461765
-0.0504751
-0.0447511
-0.0390045
-0.0382353
-0.0374434
-0.0366063
-0.035724
-0.0398416
-0.0489819
-0.0730995
-0.11224
-0.136357
-0.125475
-0.0495701
0.101335
0.347285
0.638235
0.954186
1.17016
1.29613
1.2421
1.05803
0.798937
0.489842
0.245724
0.0866063
0.00748868
-0.021629
-0.0307466
-0.0348416
-0.0439367
-0.0429864
-0.0470362
-0.0561312
-0.0652263
-0.0742987
-0.083371
-0.0924208
-0.096448
-0.105453
-0.109412
-0.108394
-0.112376
-0.11138
-0.115385
-0.119389
-0.123394
-0.122398
-0.126403
-0.125385
-0.124367
-0.123371
-0.117353
-0.116312
-0.110249
-0.109186
-0.108145
-0.107059
-0.100995
-0.0999095
-0.0988462
-0.0977376
-0.0966742
-0.0906109
-0.0895249
-0.0834163
-0.0823077
-0.0761991
-0.0750453
-0.0738914
-0.0726923
-0.0664706
-0.0652488
-0.0590271
-0.047828
-0.0365837
-0.0253393
-0.0140724
0.00221723
0.0134842
0.0247285
0.0459503
0.0621494
0.0833485
0.0995928
0.115837
0.127127
0.153507
0.17491
0.186312
0.197692
0.204118
0.210566
0.212059
0.213575
0.210023
0.201358
0.187602
0.173801
0.154887
0.140973
0.132036
0.118054
0.0989819
0.0847964
0.0654752
0.0511086
0.0417195
0.0323077
0.022896
0.0135294
0.00914033
-0.000226185
-0.00452483
-0.0138008
-0.0230542
-0.0272624
-0.0314705
-0.0306787
-0.0349547
-0.0343438
-0.038914
-0.0385972
-0.0432353
-0.0475565
-0.0561991
-0.058733
-0.0599547
-0.0597737
-0.0536198
-0.0518778
-0.0453167
-0.0394569
-0.034751
-0.031561
-0.034932
-0.0348642
-0.0413121
-0.0442759
-0.0535519
-0.0587329
-0.0744117
-0.0847058
-0.0842307
-0.0925791
-0.0946153
-0.100656
-0.106018
-0.111063
-0.11595
-0.120792
-0.120611
-0.120407
-0.125226
-0.125068
-0.124909
-0.124751
-0.12457
-0.129344
-0.134095
-0.138846
-0.133575
-0.133303
-0.133009
-0.137738
-0.137421
-0.132104
-0.141787
-0.136448
-0.146086
-0.140747
-0.15043
-0.145113
-0.139796
-0.14448
-0.144163
-0.148846
-0.143529
-0.14819
-0.147873
-0.152602
-0.15233
-0.147059
-0.14681
-0.141561
-0.146267
-0.14595
-0.145611
-0.145249
-0.139842
-0.139434
-0.139005
-0.138529
-0.138009
-0.147444
-0.141855
-0.141244
-0.145634
-0.144977
-0.144276
-0.143575
-0.147896
-0.14224
-0.141606
-0.131018
-0.120498
-0.105045
-0.0947059
-0.0894797
-0.0793892
-0.084457
-0.0746606
-0.0699548
-0.0503394
-0.0358371
-0.0164027
-0.0170588
-0.0177602
-0.0234389
-0.029095
-0.0347059
-0.0353168
-0.0358597
-0.0464027
-0.0519231
-0.0574208
-0.0678959
-0.0683484
-0.0737783
-0.0691629
-0.0695475
-0.0699095
-0.0702941
-0.0706334
-0.0659954
-0.0663574
-0.0667421
-0.0671267
-0.0625339
-0.0629411
-0.0683257
-0.083733
-0.11414
-0.119548
-0.0949547
0.00463803
0.189186
0.443733
0.748281
1.02783
1.22235
1.32186
1.23631
1.06075
0.790204
0.489638
0.259095
0.0985294
0.0179186
-0.0227149
-0.043371
-0.0540498
-0.0597286
-0.0603847
-0.056086
-0.0617874
-0.0674887
-0.0781901
-0.0888915
-0.0996381
-0.100362
-0.106086
-0.10681
-0.107511
-0.103213
-0.108937
-0.109661
-0.110339
-0.116086
-0.11681
-0.112557
-0.108281
-0.10905
-0.109796
-0.10552
-0.106244
-0.101946
-0.102647
-0.103348
-0.0990724
-0.089819
-0.0905882
-0.0863575
-0.0821041
-0.0778507
-0.0785747
-0.0743213
-0.0700679
-0.0658371
-0.0615837
-0.0523077
-0.0480543
-0.0387783
-0.0345023
-0.0252263
-0.0159729
-0.00667422
0.0026018
0.0168326
0.0260634
0.0352715
0.0494797
0.0586652
0.0678733
0.0770589
0.0912896
0.100566
0.11491
0.124299
0.13871
0.153145
0.167557
0.177036
0.181516
0.186063
0.185679
0.185385
0.180091
0.164774
0.149434
0.129095
0.118733
0.0983711
0.0879865
0.0775566
0.0620815
0.0465838
0.0360182
0.0254299
0.0148191
0.00920822
0.00359734
0.00298647
-0.0076244
-0.00828051
-0.013914
-0.0195701
-0.0252488
-0.0259728
-0.0317421
-0.0375339
-0.0383484
-0.0392534
-0.0403394
-0.0415159
-0.0426471
-0.0383484
-0.0382353
-0.0419457
-0.039276
-0.0353394
-0.0254977
-0.0202036
-0.0152714
-0.0111312
-0.00821264
-0.0116516
-0.0111086
-0.00628957
-0.00680992
-0.00751127
-0.00830314
-0.00914022
-0.015
-0.0108597
-0.0116968
-0.0125791
-0.0135067
-0.0145022
-0.0105203
-0.021561
-0.0274886
-0.0233031
-0.0290498
-0.0299321
-0.0312217
-0.033371
-0.0417873
-0.0415611
-0.0477149
-0.0598416
-0.0673077
-0.0742986
-0.0803394
-0.0850226
-0.0934163
-0.100747
-0.107398
-0.103756
-0.105
-0.101177
-0.102263
-0.103326
-0.104344
-0.105294
-0.106154
-0.106946
-0.10767
-0.103349
-0.108982
-0.10957
-0.105113
-0.110611
-0.111018
-0.11138
-0.116697
-0.121968
-0.117195
-0.112376
-0.112489
-0.107534
-0.107534
-0.107466
-0.107376
-0.10224
-0.102059
-0.101855
-0.101584
-0.101267
-0.100905
-0.0954751
-0.095
-0.099457
-0.0938688
-0.0882579
-0.0876244
-0.0869683
-0.0863349
-0.0807693
-0.0802941
-0.0849321
-0.0847059
-0.0845475
-0.0795249
-0.0795928
-0.0747512
-0.075
-0.0703394
-0.0657692
-0.0663122
-0.0619683
-0.062715
-0.0635521
-0.0644344
-0.0554299
-0.0565159
-0.0526923
-0.0489819
-0.040362
-0.02681
-0.0233258
-0.0249095
-0.0215611
-0.0132353
6.78785e-05
0.0133937
0.0167195
0.0201131
0.013552
0.0120362
0.0105656
0.00416289
0.0028733
-0.00334843
-0.00450227
-0.00561087
-0.00667422
-0.0126923
-0.0136878
-0.0195928
-0.0204751
-0.0212896
-0.0220815
-0.0228507
-0.0236425
-0.0243891
-0.0201357
-0.0158597
-0.0115611
-0.0172624
-0.0229412
-0.0486425
-0.0793439
-0.0950226
-0.065724
0.0285973
0.212919
0.492262
0.791606
1.09097
1.30534
1.38466
1.28398
1.0733
0.772647
0.491991
0.256312
0.110611
0.0449095
0.0192308
0.00857465
-0.0020362
-0.00766969
-0.0133032
-0.0239367
-0.0395701
-0.0552036
-0.0658145
-0.0714253
-0.0770136
-0.0826244
-0.0832353
-0.0888235
-0.0994344
-0.105045
-0.105633
-0.106244
-0.1069
-0.107511
-0.1081
-0.11371
-0.114276
-0.114842
-0.110407
-0.110973
-0.111516
-0.102059
-0.107602
-0.103145
-0.103665
-0.10414
-0.0995927
-0.100045
-0.10052
-0.10095
-0.10138
-0.10681
-0.10224
-0.0926697
-0.0880769
-0.0784841
-0.068914
-0.0643439
-0.0547963
-0.0452036
-0.0356335
-0.0310407
-0.0264253
-0.0167873
-0.00210408
0.0125792
0.0272851
0.0419909
0.0516968
0.0664027
0.0861538
0.100905
0.120679
0.135475
0.150317
0.160226
0.170158
0.185113
0.190113
0.195158
0.190271
0.19043
0.180633
0.170837
0.155995
0.146154
0.131335
0.111493
0.0966516
0.0817873
0.0719457
0.0620814
0.0472172
0.0423303
0.0274434
0.0225339
0.00762443
0.00271492
-0.00219458
-0.00210408
-0.00701358
-0.00692309
-0.01181
-0.0166742
-0.0165158
-0.0163801
-0.021267
-0.0262443
-0.0263348
-0.0264932
-0.0315385
-0.0311538
-0.0349774
-0.0375566
-0.0338009
-0.0287104
-0.0176696
-0.0113122
-0.00540722
-0.00549774
-0.00199096
0.000203617
0.00131221
-0.00321267
-0.00298643
-0.00787331
-0.0127828
-0.00769231
-0.00760181
-0.00753394
-0.00748869
-0.00748869
-0.0125339
-0.0126244
-0.0126923
-0.0127828
-0.0128959
-0.0130317
-0.0132127
-0.0134842
-0.0188009
-0.0191403
-0.0145023
-0.0198869
-0.0202941
-0.0157014
-0.0211312
-0.0214706
-0.0216742
-0.0217647
-0.0219005
-0.0223303
-0.0234842
-0.0258371
-0.0345701
-0.0497964
-0.0560634
-0.062828
-0.0693439
-0.0798869
-0.0792308
-0.0821267
-0.0839593
-0.0850679
-0.0858145
-0.0864027
-0.0868778
-0.0872851
-0.082647
-0.0879412
-0.0831221
-0.08319
-0.08819
-0.0880995
-0.0929185
-0.092647
-0.0923077
-0.0918778
-0.0913575
-0.0907466
-0.0900679
-0.0892986
-0.0884615
-0.0875113
-0.0864932
-0.0854072
-0.0842534
-0.0880317
-0.0917421
-0.0904072
-0.0890272
-0.0826471
-0.0862896
-0.0799548
-0.0736878
-0.0724887
-0.0763348
-0.0752489
-0.0742534
-0.0733484
-0.0775339
-0.0717647
-0.0710634
-0.0704751
-0.0699548
-0.0695249
-0.0691403
-0.0688462
-0.0685973
-0.0683937
-0.0682353
-0.0681222
-0.0680769
-0.0680996
-0.0682127
-0.0683937
-0.0685973
-0.0738688
-0.0792308
-0.0796833
-0.0752036
-0.0758145
-0.0664932
-0.0622851
-0.0581674
-0.054095
-0.0501131
-0.0411539
-0.0422624
-0.033371
-0.0245475
-0.0157014
-0.01181
-0.0178733
-0.0288914
-0.0298643
-0.0357692
-0.0466742
-0.0524887
-0.0532353
-0.058914
-0.0645249
-0.0700679
-0.0705656
-0.0810181
-0.0814253
-0.0817873
-0.0771041
-0.0724208
-0.0627149
-0.0579864
-0.0532805
-0.048552
-0.0437783
-0.0390271
-0.0392534
-0.039457
-0.0596833
-0.0898869
-0.110068
-0.100272
-0.0354525
0.134367
0.394208
0.704072
1.03391
1.26371
1.37848
1.32328
1.10808
0.842851
0.522647
0.282443
0.12724
0.0570136
0.0268099
0.0116063
0.0064027
0.00119908
-0.00398191
-0.0191855
-0.0343439
-0.0445023
-0.0596833
-0.0698416
-0.075
-0.0751584
-0.0803168
-0.0854751
-0.0956335
-0.0958145
-0.0959729
-0.0961539
-0.101335
-0.101516
-0.101697
-0.106878
-0.112081
-0.112285
-0.117511
-0.122715
-0.127896
-0.123054
-0.128258
-0.123439
-0.123575
-0.12371
-0.123869
-0.124027
-0.119163
-0.114299
-0.114434
-0.109548
-0.0996606
-0.0897738
-0.0848869
-0.0799774
-0.0750453
-0.0701357
-0.0652262
-0.0553167
-0.0503846
-0.0354299
-0.0254751
-0.0105204
0.0044344
0.00938915
0.0193439
0.0342534
0.0541403
0.0690272
0.0839367
0.0988462
0.118801
0.133778
0.143778
0.163824
0.173891
0.189027
0.189163
0.199367
0.194593
0.184842
0.175136
0.160407
0.150656
0.130905
0.126154
0.111357
0.0965159
0.0816969
0.0668778
0.0520362
0.037172
0.0272851
0.017353
0.00742085
-0.00251128
-0.00244341
-0.00733029
-0.0121719
-0.0119909
-0.0167873
-0.021561
-0.0213348
-0.0260859
-0.0258371
-0.0255656
-0.0304072
-0.0353619
-0.0304072
-0.0354072
-0.0351357
-0.0390723
-0.0418325
-0.03819
-0.0330316
-0.0218326
-0.0201131
-0.0136425
-0.00812216
-0.00377828
-0.000859729
0.000972851
0.0071267
0.0029638
0.00366516
0.00427602
0.00484163
0.00536199
0.00585973
0.00126697
0.00160634
0.00183258
-0.00309955
-0.00814479
-0.00821267
-0.00825792
-0.00830317
-0.00837104
-0.00346154
-0.00855204
-0.00361991
-0.00368778
-0.00375566
-0.00380091
-0.00382353
0.00115384
-0.00389141
-0.00393665
-0.00900453
-0.0140724
-0.0141629
-0.00923077
-0.00932126
-0.0143891
-0.014457
-0.0145475
-0.014638
-0.0197059
-0.0196833
-0.0245023
-0.0241629
-0.0237783
-0.0235747
-0.0238235
-0.0300452
-0.0375113
-0.036448
-0.0415158
-0.0473303
-0.0580995
-0.0681674
-0.0721267
-0.0746606
-0.0758597
-0.0761086
-0.0758371
-0.0703394
-0.0697059
-0.0689593
-0.0680995
-0.0671719
-0.0661312
-0.0649548
-0.0636425
-0.0672172
-0.0656561
-0.0689593
-0.0671493
-0.0702941
-0.063371
-0.0564253
-0.0595023
-0.0576018
-0.060724
-0.0588688
-0.0621041
-0.060362
-0.0536878
-0.0570588
-0.0604978
-0.0590045
-0.0576018
-0.051267
-0.05
-0.0487783
-0.0476244
-0.0415385
-0.0454751
-0.0444344
-0.0434389
-0.0424435
-0.0414932
-0.0355882
-0.0347059
-0.0338914
-0.0380769
-0.0322851
-0.0365385
-0.0358371
-0.0351131
-0.0294344
-0.0338009
-0.0332127
-0.0326923
-0.0371946
-0.0367421
-0.0363122
-0.0359502
-0.0406335
-0.0453394
-0.0501131
-0.0499095
-0.0547511
-0.0546154
-0.0545701
-0.0495701
-0.0445928
-0.0396606
-0.0397738
-0.0349548
-0.0352263
-0.020543
-0.000859732
0.0138009
0.0134389
0.00814479
0.00289592
0.00271492
-0.0023982
-0.00242082
-0.0073982
-0.00726245
-0.0120588
-0.0167873
-0.0214253
-0.0259955
-0.0254977
-0.0249774
-0.0244344
-0.0288688
-0.0283032
-0.0276697
-0.026991
-0.026267
-0.025543
-0.019819
-0.0190724
-0.0233258
-0.0375792
-0.0668552
-0.101109
-0.105362
-0.0545928
0.0561765
0.276923
0.55767
0.888394
1.14416
1.31493
1.31572
1.16652
0.937285
0.633077
0.353846
0.159661
0.0504751
0.0112896
-0.00287331
-0.00705883
-0.0162443
-0.0154072
-0.0245701
-0.0337557
-0.0479412
-0.0621267
-0.0713348
-0.090543
-0.0997511
-0.108937
-0.113145
-0.12233
-0.126493
-0.130679
-0.139842
-0.144027
-0.14319
-0.142376
-0.141538
-0.145701
-0.144864
-0.144072
-0.138258
-0.137443
-0.131606
-0.130747
-0.124887
-0.118982
-0.113077
-0.112172
-0.10629
-0.105362
-0.0994344
-0.0935068
-0.0875566
-0.0766064
-0.0755883
-0.0695928
-0.0635747
-0.0575792
-0.0565611
-0.050543
-0.0395249
-0.0335068
-0.0225113
-0.0164932
-0.00552037
0.0054751
0.0164706
0.0274434
0.0334163
0.0493439
0.0552715
0.0661765
0.0770588
0.0929412
0.103824
0.109729
0.120656
0.131606
0.147579
0.163597
0.174593
0.175679
0.176855
0.178077
0.164299
0.155498
0.141697
0.127896
0.114095
0.100294
0.0814707
0.0676471
0.053801
0.0349096
0.0209955
0.0120815
0.0031675
-0.000769168
-0.00970581
-0.0136425
-0.0275791
-0.0315158
-0.0404298
-0.0443438
-0.0432352
-0.0471266
-0.046018
-0.0499321
-0.043914
-0.0530543
-0.0523755
-0.056742
-0.0559276
-0.049638
-0.0523755
-0.0488914
-0.0489592
-0.0429638
-0.0412669
-0.039638
-0.0337104
-0.0338236
-0.0252942
-0.0330317
-0.0316064
-0.0306561
-0.0298869
-0.0241856
-0.0235069
-0.0278507
-0.0271946
-0.0215385
-0.0209277
-0.0203847
-0.0199096
-0.0194797
-0.0241403
-0.0288688
-0.0286426
-0.0284616
-0.0283485
-0.0282806
-0.033258
-0.033258
-0.038258
-0.0381901
-0.0430091
-0.0378055
-0.0428281
-0.0383032
-0.0446381
-0.0472172
-0.0511991
-0.0614254
-0.0675566
-0.0838688
-0.0847512
-0.094638
-0.0933032
-0.105679
-0.106946
-0.107557
-0.107783
-0.107828
-0.12276
-0.12267
-0.122534
-0.122376
-0.127195
-0.126991
-0.121719
-0.12638
-0.120973
-0.125475
-0.119955
-0.124412
-0.123801
-0.118122
-0.122398
-0.116629
-0.120815
-0.114955
-0.11405
-0.113077
-0.112036
-0.11095
-0.109842
-0.108688
-0.112511
-0.116267
-0.109977
-0.113665
-0.112376
-0.106086
-0.104796
-0.103575
-0.107421
-0.106357
-0.110385
-0.109502
-0.108733
-0.108077
-0.107511
-0.102059
-0.101719
-0.106516
-0.10638
-0.101312
-0.101335
-0.106448
-0.106652
-0.106968
-0.112376
-0.112896
-0.118507
-0.114163
-0.114909
-0.115724
-0.116629
-0.112579
-0.108665
-0.104819
-0.0960633
-0.0923755
-0.088733
-0.0802036
-0.071742
-0.0533484
-0.0399547
-0.0265837
-0.0232126
-0.0247963
-0.0313122
-0.0327375
-0.0441628
-0.0504977
-0.0517647
-0.0529412
-0.0540271
-0.0600453
-0.0610407
-0.0720136
-0.0729186
-0.0738009
-0.0746381
-0.0754525
-0.0762444
-0.0720363
-0.0728281
-0.0685973
-0.0643665
-0.0601132
-0.0558145
-0.0615385
-0.0672399
-0.0829638
-0.108688
-0.114457
-0.070181
0.0290724
0.218348
0.497602
0.806878
1.08615
1.28538
1.32964
1.23885
1.0231
0.752308
0.471538
0.225747
0.0849547
0.00416286
-0.0316516
-0.0474435
-0.0533032
-0.0591629
-0.06
-0.0608371
-0.0666969
-0.0775792
-0.0834163
-0.0942761
-0.105091
-0.105928
-0.101742
-0.107602
-0.113462
-0.114276
-0.120136
-0.11595
-0.121787
-0.122602
-0.128416
-0.129253
-0.130091
-0.130928
-0.131765
-0.127624
-0.128507
-0.124389
-0.120249
-0.116131
-0.117036
-0.117919
-0.118801
-0.114683
-0.110611
-0.106516
-0.102443
-0.0933485
-0.0892761
-0.0852037
-0.0761313
-0.0720362
-0.0579412
-0.0538688
-0.0497738
-0.0356561
-0.0265385
-0.0124661
-0.00339365
0.0106561
0.0246833
0.0387104
0.0477149
0.0617421
0.0757692
0.0897512
0.103733
0.122738
0.136742
0.150747
0.164819
0.178914
0.198032
0.212195
0.221403
0.220701
0.220045
0.21448
0.203914
0.183348
0.167738
0.157127
0.136471
0.120792
0.100136
0.0844797
0.0688462
0.0581901
0.052534
0.0418552
0.0361539
0.0254525
0.0197285
0.0140271
0.00832577
0.00266965
-0.00298645
-0.00359732
-0.00918556
-0.0197738
-0.020362
-0.0259955
-0.0266969
-0.0275114
-0.0234616
-0.0294571
-0.0302263
-0.0305657
-0.0301132
-0.0334616
-0.0304751
-0.0212444
-0.021086
-0.0157014
-0.0157013
-0.0066289
-0.00375559
-0.00717188
-0.00669678
-0.00683253
-0.00235287
-0.00803161
-0.00873297
-0.00945695
-0.0152036
-0.0159728
-0.0167646
-0.0126018
-0.0184841
-0.0193665
-0.0253167
-0.0263122
-0.0273303
-0.0233484
-0.0243891
-0.0304298
-0.0263801
-0.0322624
-0.0330769
-0.0340724
-0.0355204
-0.0329864
-0.0367421
-0.041991
-0.0486878
-0.0513575
-0.0593665
-0.0718326
-0.0781901
-0.0830543
-0.0814932
-0.0838914
-0.0856109
-0.0870588
-0.0833711
-0.0895928
-0.0907466
-0.0968778
-0.0929412
-0.0939367
-0.0948869
-0.0957466
-0.0965158
-0.0971946
-0.102805
-0.103371
-0.103846
-0.0992308
-0.0995475
-0.094819
-0.095
-0.0951131
-0.0951357
-0.0951131
-0.095
-0.0847964
-0.0845475
-0.0842081
-0.0787783
-0.0732579
-0.0776923
-0.0770588
-0.0763348
-0.0755203
-0.074638
-0.0737104
-0.0677828
-0.0718552
-0.0659502
-0.0650905
-0.0593213
-0.0586425
-0.0580543
-0.0576018
-0.0622398
-0.061991
-0.0668552
-0.06681
-0.0668552
-0.0719457
-0.0671267
-0.0673982
-0.0628054
-0.0683484
-0.0689593
-0.0746833
-0.0754751
-0.0813575
-0.0822851
-0.0783258
-0.0745023
-0.0707692
-0.0621493
-0.0535747
-0.0500905
-0.0466063
-0.0532353
-0.0498869
-0.0365837
-0.0233032
-0.0100226
-0.00671944
-0.0133258
-0.0199321
-0.0264479
-0.0379185
-0.0443212
-0.0406335
-0.0419231
-0.0480995
-0.0442081
-0.0452036
-0.0561765
-0.0570814
-0.0579412
-0.0537783
-0.0495928
-0.0453846
-0.0461312
-0.0518778
-0.0475792
-0.0482805
-0.0439593
-0.039638
-0.0402941
-0.0459502
-0.0666063
-0.0872172
-0.0978507
-0.0634615
0.0359502
0.255407
0.539887
0.869367
1.18887
1.40335
1.48287
1.3624
1.1219
0.79638
0.48586
0.255362
0.104887
0.0444344
0.0189819
0.00355201
-0.00687786
-0.0072851
-0.012715
-0.0231222
-0.0285294
-0.0389367
-0.0543439
-0.0597285
-0.0701132
-0.0755204
-0.080905
-0.0912896
-0.0916742
-0.0920588
-0.0974208
-0.0977602
-0.103077
-0.103416
-0.108756
-0.114118
-0.109412
-0.114706
-0.115
-0.120272
-0.11552
-0.115769
-0.121018
-0.121244
-0.121493
-0.121742
-0.121991
-0.122172
-0.122353
-0.122489
-0.122647
-0.117805
-0.107941
-0.0980769
-0.0932353
-0.0884163
-0.0785747
-0.0737557
-0.0639593
-0.0591403
-0.0493213
-0.0344797
-0.0146154
0.0102715
0.0201131
0.0399547
0.0497511
0.0645475
0.0743212
0.0941176
0.113937
0.133778
0.15362
0.163484
0.183371
0.188281
0.208213
0.213145
0.223122
0.228167
0.223258
0.218416
0.203575
0.198688
0.178778
0.163846
0.153869
0.133824
0.123824
0.0988235
0.0838235
0.0638236
0.0538009
0.0387331
0.0286426
0.0185521
0.0134842
0.00846156
0.00346157
-0.00153843
-0.0115611
-0.0165611
-0.0215611
-0.0215384
-0.0214706
-0.0214253
-0.0264027
-0.0314706
-0.0316289
-0.0368552
-0.0419231
-0.0515158
-0.0501131
-0.0474209
-0.0482353
-0.0376018
-0.0360181
-0.0290724
-0.0226923
-0.0124208
-0.00864251
-0.0063122
-0.0100452
-0.0144796
-0.0142081
-0.0141176
-0.0191402
-0.0242534
-0.0243665
-0.024457
-0.0245701
-0.0246606
-0.0247511
-0.0299095
-0.0300679
-0.0302715
-0.0354977
-0.0357466
-0.0310181
-0.0312896
-0.0315611
-0.0368552
-0.0421719
-0.0375113
-0.0378733
-0.0332805
-0.038733
-0.0391855
-0.0396832
-0.0402036
-0.0407692
-0.0462896
-0.0467421
-0.0520588
-0.047285
-0.0475565
-0.0481448
-0.0594796
-0.0669909
-0.0758823
-0.0762896
-0.0779185
-0.0902262
-0.0973755
-0.0987556
-0.103801
-0.112421
-0.114683
-0.111063
-0.116923
-0.122534
-0.123009
-0.128371
-0.12862
-0.123733
-0.123756
-0.11862
-0.118371
-0.118009
-0.122534
-0.1219
-0.121131
-0.115226
-0.109208
-0.103122
-0.101946
-0.100701
-0.104344
-0.107919
-0.106403
-0.0998416
-0.0982805
-0.0917421
-0.0852262
-0.083733
-0.0823077
-0.0809276
-0.0695928
-0.0733484
-0.0721719
-0.0761312
-0.070181
-0.0643213
-0.0635294
-0.0578054
-0.0571267
-0.0565158
-0.0609728
-0.0604977
-0.0600679
-0.0597059
-0.0594344
-0.0591855
-0.0590045
-0.0638688
-0.0588009
-0.0587557
-0.0587783
-0.0588914
-0.0540724
-0.0543213
-0.0596833
-0.0601357
-0.0606787
-0.0613122
-0.0620588
-0.0578733
-0.0587783
-0.0547511
-0.0507918
-0.0469004
-0.0380543
-0.0342986
-0.0305882
-0.0269457
-0.0133032
-0.00466062
0.00393666
0.00255657
-0.00880089
-0.0150905
-0.0263122
-0.0374434
-0.0385068
-0.0445249
-0.0454525
-0.0462896
-0.0470588
-0.0527828
-0.0534389
-0.0540498
-0.0545927
-0.0501131
-0.0505882
-0.0459955
-0.0414027
-0.0367647
-0.0321493
-0.0275113
-0.022828
-0.0181448
-0.0234163
-0.0387104
-0.0739819
-0.0942534
-0.0844796
-0.0147059
0.150068
0.409819
0.714548
1.04925
1.31898
1.47373
1.44848
1.28821
0.997964
0.687715
0.397466
0.207217
0.102014
0.0517873
0.0315384
0.0212896
0.0160181
0.0107692
0.000542983
-0.0146606
-0.0298416
-0.0400226
-0.055181
-0.0703394
-0.0804977
-0.0906561
-0.0957919
-0.100905
-0.100995
-0.111086
-0.116154
-0.126244
-0.13638
-0.141516
-0.146629
-0.146742
-0.156833
-0.1569
-0.161968
-0.167036
-0.167104
-0.167104
-0.162104
-0.157081
-0.152081
-0.152059
-0.146991
-0.146923
-0.146855
-0.141765
-0.131652
-0.121561
-0.116493
-0.106403
-0.0963122
-0.0962217
-0.0861086
-0.0759955
-0.060905
-0.0557919
-0.0456787
-0.0305656
-0.0154525
-0.00531673
0.014819
0.0249548
0.0450905
0.0652489
0.0853846
0.10552
0.120679
0.135837
0.151018
0.171244
0.181493
0.201787
0.207127
0.217466
0.217828
0.218258
0.223733
0.214276
0.209819
0.195339
0.180837
0.161267
0.146629
0.131991
0.11233
0.0926697
0.0730091
0.0633711
0.0537331
0.0440951
0.0294797
0.0198643
0.00527153
-0.00429861
-0.00382349
-0.00830314
-0.00776014
-0.0121945
-0.0216063
-0.0209954
-0.0303846
-0.0297963
-0.034276
-0.038914
-0.0436199
-0.0432579
-0.0425565
-0.0461086
-0.0434841
-0.039457
-0.033914
-0.0271493
-0.0246607
-0.0122851
-0.00558826
-0.000181004
-0.00117647
0.00151584
-0.00167421
-0.000339368
0.000791866
0.00185521
0.00289593
-0.00110859
-0.000135741
-0.00423076
-0.00341629
-0.0026923
-0.00701357
-0.0114253
-0.0109728
-0.0106335
-0.0104299
-0.0102715
-0.0101131
-0.00993212
-0.0147738
-0.0146154
-0.00950226
-0.00941176
-0.00932126
-0.00923076
-0.00914027
-0.00907239
-0.0089819
-0.00891402
-0.0088914
-0.0138462
-0.0188235
-0.0237556
-0.0236878
-0.0236199
-0.028552
-0.0284842
-0.0233937
-0.0282353
-0.0329638
-0.0325339
-0.0269683
-0.0314253
-0.0311765
-0.0315837
-0.0381448
-0.0410633
-0.0452715
-0.050543
-0.0563348
-0.0618552
-0.0665158
-0.0697964
-0.0717195
-0.0773077
-0.0770814
-0.0814027
-0.0754751
-0.0744118
-0.0732127
-0.0719231
-0.0705204
-0.0740045
-0.0723529
-0.0705656
-0.0736199
-0.0665837
-0.0644344
-0.0622851
-0.0600679
-0.0627828
-0.0604751
-0.0631674
-0.060905
-0.0536878
-0.0465611
-0.0444796
-0.0424661
-0.0405656
-0.0387557
-0.0420362
-0.045362
-0.043733
-0.0471493
-0.0456335
-0.0441855
-0.0478281
-0.0515158
-0.0552489
-0.0539819
-0.0527149
-0.0514932
-0.0503394
-0.0442082
-0.0431448
-0.0421267
-0.0411312
-0.045181
-0.049276
-0.0533937
-0.0525566
-0.0517873
-0.0560634
-0.0553846
-0.0547511
-0.0591629
-0.0586425
-0.0681448
-0.0726697
-0.0722625
-0.0719457
-0.0667195
-0.0665837
-0.0714932
-0.0764706
-0.0815158
-0.0766516
-0.0768778
-0.072172
-0.067534
-0.0629412
-0.0633937
-0.0588914
-0.0444118
-0.0299095
-0.0103846
-0.00583711
-0.0112217
-0.0165385
-0.0217873
-0.0269683
-0.0270588
-0.0320588
-0.0370136
-0.0418778
-0.0416968
-0.046448
-0.0511312
-0.0507692
-0.0453394
-0.0498643
-0.0443665
-0.0488462
-0.0433258
-0.0377602
-0.0371946
-0.031629
-0.0360634
-0.0504525
-0.0698416
-0.0942534
-0.113643
-0.103009
-0.0273756
0.128258
0.383891
0.694502
0.990136
1.24077
1.3614
1.31206
1.13771
0.848371
0.559027
0.284729
0.115452
0.0361765
0.0018552
-0.00746606
-0.0167873
-0.0211312
-0.0304751
-0.039819
-0.0491629
-0.0684842
-0.0827828
-0.0970814
-0.111357
-0.110611
-0.124864
-0.134118
-0.148394
-0.15267
-0.156946
-0.161222
-0.160475
-0.164751
-0.164027
-0.158303
-0.157579
-0.156855
-0.156131
-0.155407
-0.154706
-0.154027
-0.148371
-0.142715
-0.142059
-0.131425
-0.135792
-0.135181
-0.129548
-0.123914
-0.118281
-0.112624
-0.101968
-0.101312
-0.0956561
-0.0900226
-0.0844118
-0.0738009
-0.0631901
-0.0525792
-0.041991
-0.0314027
-0.0208145
-0.0102489
0.000339366
0.00585973
0.0213575
0.0368326
0.0573077
0.0727828
0.0832805
0.0987556
0.114186
0.134615
0.150068
0.165543
0.176041
0.186561
0.197127
0.202692
0.203281
0.198914
0.194615
0.190385
0.176176
0.161923
0.147647
0.128348
0.109004
0.0946832
0.0853167
0.0659502
0.0565158
0.042104
0.0276923
0.0182353
0.00380088
-0.0056335
-0.0150679
-0.0245023
-0.0289593
-0.0383937
-0.0378054
-0.0422172
-0.0416063
-0.0460181
-0.0504977
-0.0500679
-0.0547737
-0.0545475
-0.059276
-0.0586651
-0.0573529
-0.0548868
-0.0560407
-0.050905
-0.0446606
-0.0428959
-0.0363575
-0.0306561
-0.0263349
-0.0333937
-0.0417421
-0.0408597
-0.0353394
-0.0299321
-0.0295702
-0.0242308
-0.0239141
