ekg
0
-0.00333333
0.002
-0.00642858
-0.00444445
-0.00454546
-0.000769235
-0.00800001
-0.0158824
-0.00973685
-0.0147619
-0.0167391
-0.0192
-0.0238889
-0.0332759
-0.0453226
-0.0571212
-0.0628571
-0.0725676
-0.0765385
-0.0751219
-0.0677907
-0.0693333
-0.0701064
-0.069898
-0.0540196
-0.0325472
0.00945455
0.0467544
0.0741526
0.0917213
0.0993651
0.0966154
0.0988806
0.0952898
0.0942958
0.0813014
0.073
0.0800649
0.0727215
0.0711111
0.0600603
0.0544118
0.0441379
0.0294382
0.0302198
0.0162366
0.00757894
-0.000721656
-0.00868688
-0.0110891
-0.0178641
-0.0241428
-0.0307477
-0.0329358
-0.0366216
-0.0473009
-0.0494782
-0.057265
-0.0655462
-0.073719
-0.0811789
-0.08328
-0.0814173
-0.0803876
-0.0887404
-0.096203
-0.0877778
-0.0531387
-0.0128058
0.0377305
0.0785315
0.0994138
0.110306
0.106074
0.106623
0.0969281
0.0913548
0.0746815
0.062327
0.0448447
0.032362
0.0250909
0.0132335
0.00668638
0.000409342
-0.0156069
-0.0264857
-0.0421751
-0.0526816
-0.0631492
-0.0684699
-0.0736757
-0.0837968
-0.0939418
-0.104215
-0.114611
-0.125231
-0.136523
-0.158568
-0.175896
-0.198301
-0.22061
-0.242681
-0.249402
-0.240664
-0.236385
-0.221581
-0.206267
-0.160434
-0.109231
-0.048371
0.0024887
0.0533937
0.079276
0.100113
0.11595
0.131765
0.157511
0.153167
0.138801
0.119367
0.0998643
0.0853394
0.100769
0.141109
0.186244
0.221086
0.225701
0.205045
0.174231
0.148394
0.122557
0.0966742
0.0607692
0.0148643
-0.0209728
-0.0467195
-0.0572398
-0.0625339
-0.0726697
-0.0826471
-0.0924887
-0.0922398
-0.0969231
-0.0965385
-0.0961086
-0.0956335
-0.0800905
-0.0744118
-0.0686878
-0.0628959
-0.0420588
-0.00617647
0.0397059
0.0855882
0.126538
0.157489
0.173439
0.179367
0.185272
0.191131
0.186923
0.182602
0.17319
0.158688
0.139072
0.129253
0.124276
0.114118
0.0988235
0.0884389
0.0829864
0.0775113
0.0720362
0.0615837
0.0560633
0.0454977
0.0399548
0.0396154
0.0394797
0.029638
0.0250226
0.0205204
0.0161086
0.0117421
0.0124208
0.0130996
0.0188235
0.0245475
0.0352715
0.0410181
0.0467873
0.0575792
0.0783711
0.11914
0.15491
0.200633
0.231357
0.247014
0.25267
0.258281
0.268869
0.259434
0.259887
0.245272
0.23552
0.215656
0.200633
0.175453
0.149955
0.124186
0.0881222
0.0618326
0.0353846
0.0088688
-0.0276018
-0.0589819
-0.0802715
-0.106471
-0.122466
-0.143213
-0.163665
-0.183846
-0.198778
-0.198575
-0.208235
-0.207783
-0.207217
-0.201471
-0.195656
-0.189842
-0.17905
-0.178303
-0.172579
-0.156719
-0.115611
-0.0542534
-0.00271492
0.0538914
0.0904525
0.1019
0.113213
0.124412
0.130498
0.131403
0.132104
0.132624
0.122964
0.108167
0.0983032
0.0783032
0.0530996
0.0276471
0.011991
-0.00880089
-0.0196832
-0.0406108
-0.0615611
-0.0824434
-0.0983031
-0.114118
-0.134887
-0.150543
-0.161018
-0.176222
-0.191176
-0.205928
-0.215475
-0.219887
-0.224208
-0.218462
-0.212647
-0.19681
-0.18595
-0.17009
-0.149253
-0.113462
-0.0776697
-0.0418099
-0.0159049
2.26572e-05
0.0109729
0.0169231
0.0228733
0.0238009
0.0346833
0.0405204
0.046267
0.0369457
0.032534
0.0180543
0.00843894
0.00368779
-0.00628959
-0.0214706
-0.0318099
-0.0422398
-0.0577149
-0.0731448
-0.0835068
-0.103778
-0.119005
-0.129208
-0.139367
-0.139434
-0.144276
-0.148937
-0.158348
-0.157579
-0.166697
-0.165724
-0.164638
-0.163439
-0.147217
-0.140928
-0.119661
-0.103394
-0.0771493
-0.0509276
0.000226237
0.0463122
0.0923303
0.123235
0.139027
0.149751
0.150385
0.13586
0.131199
0.126448
0.126538
0.121516
0.11638
0.106086
0.100633
0.0949547
0.0841176
0.0730995
0.0619683
0.0457918
0.024638
0.00850675
-0.00755659
-0.0185521
-0.0295023
-0.0454073
-0.061267
-0.0719005
-0.0772172
-0.0872625
-0.0970362
-0.101606
-0.096086
-0.0954752
-0.0947512
-0.0889593
-0.0881222
-0.0822172
-0.0662896
-0.045362
-0.0344344
-0.0135068
0.0223755
0.06819
0.113959
0.139706
0.160385
0.171041
0.176606
0.177059
0.177376
0.172579
0.167624
0.162511
0.157262
0.1419
0.131335
0.125588
0.109593
0.0934162
0.0771493
0.0658144
0.0544796
0.0431674
0.0319231
0.0207013
0.00954751
-0.00151585
-0.0123756
-0.0330543
-0.0535521
-0.073914
-0.0891855
-0.0943439
-0.099457
-0.0995023
-0.0995249
-0.094457
-0.0843439
-0.0741629
-0.0539593
-0.0387104
-0.0184842
0.00669681
0.0516968
0.0913801
0.120611
0.139208
0.147014
0.138846
0.124728
0.109819
0.0992081
0.0932126
0.0870362
0.0808823
0.0647737
0.0538688
0.0382353
0.022828
0.00766966
-0.0124435
-0.0374208
-0.0572625
-0.0767874
-0.0958371
-0.109389
-0.122443
-0.140068
-0.152195
-0.163891
-0.175045
-0.185769
-0.196154
-0.196335
-0.20638
-0.211312
-0.211199
-0.211063
-0.21086
-0.200611
-0.190294
-0.184955
-0.169593
-0.154208
-0.118801
-0.0833258
-0.0528507
-0.027353
-0.0168778
-0.0164254
-0.0160634
-0.0257014
-0.0303846
-0.0401358
-0.0449095
-0.0397738
-0.0496833
-0.0596606
-0.0696833
-0.0747964
-0.0849548
-0.0951584
-0.10543
-0.120814
-0.13138
-0.142081
-0.157941
-0.163869
-0.174796
-0.190633
-0.201448
-0.212172
-0.222738
-0.238054
-0.248122
-0.253032
-0.257783
-0.257421
-0.251968
-0.241425
-0.230814
-0.210136
-0.194434
-0.17871
-0.162941
-0.132195
-0.106425
-0.0656335
-0.034819
-0.0190045
-0.00816741
-0.00235292
-0.00156107
-0.000791843
0.00493214
0.00561087
0.00622173
-0.00321266
-0.00773754
-0.0123755
-0.0171041
-0.0219231
-0.0368326
-0.0418326
-0.0519909
-0.0573529
-0.0679185
-0.0735973
-0.0842986
-0.1
-0.115611
-0.126154
-0.126606
-0.0919457
-0.0320814
0.0529412
0.183122
0.348416
0.548801
0.744231
0.909683
1.04518
1.11572
1.14633
1.13201
1.12274
1.07348
1.00925
0.950023
0.895815
0.876629
0.847444
0.81819
0.748937
0.659615
0.555204
0.465724
0.386176
0.301561
0.231855
0.162104
0.11224
0.0822625
0.0671267
0.0518778
0.0364932
0.0260407
0.00558824
-0.0148642
-0.0303167
-0.045724
-0.056086
-0.0664253
-0.0816742
-0.0918552
-0.111855
-0.121697
-0.13638
-0.14095
-0.150453
-0.14991
-0.164344
-0.168756
-0.163122
-0.167489
-0.16181
-0.166086
-0.160385
-0.154706
-0.144027
-0.143348
-0.137692
-0.117059
-0.0914706
-0.0509502
-0.0154525
0.02
0.0404072
0.0557919
0.0561312
0.0613575
0.0614932
0.0615158
0.051448
0.0412443
0.0309955
0.0156561
0.00018099
-0.0155204
-0.0364706
-0.0526471
-0.0739819
-0.0853394
-0.0966968
-0.112986
-0.124186
-0.140204
-0.151131
-0.171878
-0.187466
-0.207964
-0.213371
-0.218756
-0.224095
-0.224412
-0.224638
-0.219819
-0.22
-0.210158
-0.205317
-0.205452
-0.205588
-0.200701
-0.185837
-0.155973
-0.111109
-0.0662443
-0.0364027
-0.0215385
-0.0116968
-0.0119005
-0.012172
-0.0125113
-0.0128733
-0.0130996
-0.00809955
-0.0127602
-0.0168778
-0.0252941
-0.0378507
-0.0495475
-0.0654977
-0.075905
-0.0860634
-0.0961312
-0.10129
-0.111561
-0.117127
-0.123054
-0.134253
-0.145679
-0.157104
-0.158552
-0.170045
-0.166765
-0.158846
-0.151312
-0.144118
-0.142217
-0.130656
-0.129367
-0.113371
-0.0975566
-0.0718326
-0.0461313
-0.0254978
-0.0149095
-0.0143213
-0.0138009
-0.0133711
-0.0130091
-0.012715
-0.0124661
-0.0172399
-0.0171494
-0.0222851
-0.0228507
-0.0288462
-0.0304978
-0.0378734
-0.0511992
-0.0604299
-0.0808145
-0.102195
-0.119367
-0.142059
-0.154864
-0.16776
-0.180407
-0.197783
-0.209593
-0.22086
-0.231539
-0.236561
-0.241041
-0.249842
-0.253077
-0.260634
-0.262625
-0.264095
-0.255136
-0.245769
-0.231018
-0.22095
-0.205701
-0.205362
-0.189977
-0.164593
-0.114231
-0.0538688
0.00644792
0.0517647
0.0770361
0.092285
0.0925113
0.0876923
0.0778733
0.0830316
0.0831674
0.0782353
0.0732353
0.0631448
0.063009
0.0527828
0.0473981
0.031923
0.0214027
0.020905
0.00538459
-0.000113148
-0.0106109
-0.0161313
-0.0266516
-0.037172
-0.0426471
-0.0529638
-0.058077
-0.0629638
-0.072715
-0.0773756
-0.081991
-0.0815837
-0.0761765
-0.0707466
-0.0652715
-0.0547285
-0.0441177
-0.0335294
-0.0229186
-0.012353
-0.00680999
-0.00633488
0.00911761
0.0245475
0.0349547
0.0403393
0.0557013
0.0710181
0.0862669
0.0864932
0.0816516
0.0617421
0.0367647
0.0167647
-0.00330319
-0.0133937
-0.0334842
-0.0485973
-0.0637557
-0.0740045
-0.0843213
-0.0897059
-0.100091
-0.11043
-0.120633
-0.120656
-0.125566
-0.135407
-0.140249
-0.140068
-0.139887
-0.139706
-0.139525
-0.144389
-0.129299
-0.0892534
-0.0142534
0.070724
0.200633
0.355543
0.55543
0.755272
0.995113
1.20991
1.38966
1.49939
1.52907
1.54378
1.49351
1.43826
1.32301
1.20276
1.07751
0.952217
0.856923
0.746606
0.656222
0.540792
0.435294
0.334751
0.239118
0.153416
0.0675339
-0.00352945
-0.0547738
-0.086086
-0.107466
-0.123801
-0.135023
-0.151041
-0.161787
-0.177285
-0.187579
-0.192783
-0.197896
-0.202986
-0.213077
-0.223145
-0.2281
-0.232964
-0.232783
-0.232534
-0.227262
-0.211968
-0.181697
-0.161403
-0.151109
-0.150792
-0.145407
-0.140045
-0.134661
-0.129276
-0.128914
-0.123597
-0.118348
-0.123145
-0.123009
-0.127919
-0.127919
-0.133032
-0.133213
-0.138484
-0.138846
-0.144321
-0.154955
-0.170747
-0.181584
-0.182421
-0.193235
-0.19405
-0.204842
-0.205611
-0.221357
-0.231991
-0.242534
-0.252964
-0.258348
-0.263643
-0.258869
-0.263982
-0.264027
-0.264027
-0.264005
-0.264005
-0.264095
-0.259389
-0.254955
-0.24595
-0.232534
-0.214796
-0.192919
-0.181855
-0.171561
-0.171833
-0.182466
-0.203303
-0.214118
-0.22491
-0.23052
-0.24086
-0.245792
-0.25043
-0.254729
-0.248756
-0.247579
-0.241086
-0.239231
-0.23681
-0.228846
-0.230023
-0.230204
-0.229186
-0.231968
-0.233507
-0.233959
-0.233575
-0.232624
-0.236493
-0.240249
-0.24414
-0.248235
-0.24776
-0.247738
-0.23819
-0.23414
-0.225452
-0.212217
-0.199344
-0.186946
-0.174955
-0.153371
-0.127127
-0.0761991
-0.0206109
0.0297285
0.0599321
0.0750679
0.080181
0.0802715
0.085362
0.0854525
0.090543
0.0906109
0.0956561
0.0907013
0.0857014
0.0806109
0.065362
0.0449321
0.0243439
0.00864254
-0.0121041
-0.0278959
-0.0337104
-0.0395023
-0.0502036
-0.0658145
-0.0813575
-0.0968778
-0.10733
-0.117715
-0.128032
-0.128281
-0.128484
-0.123643
-0.118733
-0.113778
-0.108778
-0.093733
-0.0786199
-0.0685068
-0.0533484
-0.0331674
-0.00300904
0.0371493
0.0772851
0.097353
0.107376
0.112398
0.122376
0.127353
0.127308
0.122262
0.112149
0.106991
0.09181
0.0865837
0.0813575
0.0811312
0.0709276
0.0557466
0.0405656
0.0153846
-0.00484163
-0.0050905
0.019638
0.0693891
0.14414
0.258824
0.393416
0.572919
0.742398
0.906878
1.02138
1.09093
1.12552
1.12014
1.10977
1.05941
0.994072
0.90371
0.838371
0.763054
0.702783
0.652602
0.597489
0.557443
0.507489
0.472602
0.412805
0.348077
0.283416
0.218801
0.184208
0.159593
0.154977
0.140385
0.130792
0.121199
0.101584
0.0919457
0.0722624
0.0525113
0.0326923
0.017828
0.00291853
-0.0070136
-0.0169231
-0.0267874
-0.0416516
-0.0515385
-0.071448
-0.0863349
-0.096086
-0.110656
-0.130045
-0.144321
-0.158529
-0.167738
-0.176946
-0.191154
-0.200362
-0.209615
-0.213891
-0.218145
-0.21233
-0.196471
-0.170588
-0.139729
-0.108914
-0.0881222
-0.077353
-0.0665611
-0.0557692
-0.0449548
-0.034095
-0.0332579
-0.0374435
-0.0416516
-0.0508597
-0.0600679
-0.0692987
-0.0785068
-0.0876697
-0.0917421
-0.100837
-0.115
-0.124434
-0.139344
-0.154819
-0.161109
-0.173371
-0.186697
-0.186018
-0.195996
-0.206357
-0.211697
-0.216923
-0.222059
-0.226991
-0.231652
-0.24086
-0.244683
-0.248054
-0.251086
-0.258778
-0.261177
-0.268235
-0.274864
-0.276109
-0.286968
-0.287489
-0.287647
-0.277557
-0.272285
-0.266787
-0.266063
-0.260023
-0.233529
-0.196358
-0.153462
-0.119683
-0.100091
-0.0847059
-0.0837783
-0.0925339
-0.106176
-0.109864
-0.108665
-0.107783
-0.102308
-0.102308
-0.10267
-0.108462
-0.114615
-0.121109
-0.122941
-0.135045
-0.142398
-0.14991
-0.162692
-0.175792
-0.184186
-0.192873
-0.191674
-0.195566
-0.204457
-0.208394
-0.217353
-0.221312
-0.225339
-0.224367
-0.213416
-0.202489
-0.186584
-0.175656
-0.164706
-0.15871
-0.157692
-0.146652
-0.130611
-0.104502
-0.0833937
-0.0623077
-0.0462443
-0.0352262
-0.029276
-0.0283937
-0.0225792
-0.0218778
-0.016267
-0.0157919
-0.00047512
0.00470589
0.00475113
-0.0153394
-0.0304977
-0.0406335
-0.0506787
-0.0605656
-0.0752715
-0.0848643
-0.109412
-0.123937
-0.133416
-0.147851
-0.15224
-0.161629
-0.171109
-0.185679
-0.195271
-0.199842
-0.214412
-0.223959
-0.243484
-0.232986
-0.212489
-0.146991
-0.0364706
0.10405
0.29957
0.525091
0.775634
1.01615
1.1917
1.31719
1.35267
1.3481
1.33846
1.29878
1.24907
1.15434
1.06953
0.964615
0.879638
0.799615
0.719615
0.639638
0.539683
0.454751
0.359887
0.270023
0.175181
0.0953846
0.0356787
-0.0139367
-0.0385294
-0.0580543
-0.082534
-0.116855
-0.140973
-0.154932
-0.163756
-0.172557
-0.176312
-0.175091
-0.163914
-0.157873
-0.141878
-0.120905
-0.0949321
-0.0789367
-0.0629864
-0.0421041
-0.0213575
0.00425339
0.0246832
0.0449547
0.05
0.0498642
0.0495701
0.0541176
0.053552
0.0529186
0.0422172
0.0364932
0.030724
0.0249095
0.0190724
0.00821269
0.00235296
-0.00848414
-0.0242986
-0.0400452
-0.055724
-0.0762896
-0.0967647
-0.117149
-0.132421
-0.147579
-0.162579
-0.187443
-0.207081
-0.216516
-0.220814
-0.225023
-0.229208
-0.228394
-0.227602
-0.211787
-0.200973
-0.185136
-0.159321
-0.138462
-0.112624
-0.0868326
-0.0661765
-0.0556787
-0.0503167
-0.0551131
-0.0650226
-0.0700453
-0.0701584
-0.0654299
-0.0658371
-0.0663122
-0.0668552
-0.0674208
-0.0530317
-0.0386652
-0.0443213
-0.0599774
-0.0706109
-0.0862896
-0.101991
-0.11276
-0.123462
-0.139027
-0.154299
-0.169027
-0.183077
-0.186177
-0.198235
-0.199095
-0.193801
-0.182624
-0.175769
-0.158643
-0.136448
-0.119276
-0.107285
-0.0955882
-0.0744118
-0.0487556
-0.0286425
-0.0139819
-0.0197737
-0.0210181
-0.0277601
-0.0350905
-0.0478959
-0.0561991
-0.0599321
-0.069095
-0.0786425
-0.0934842
-0.0935521
-0.10871
-0.113914
-0.124208
-0.134593
-0.130045
-0.130543
-0.121041
-0.121538
-0.122014
-0.127511
-0.117941
-0.118326
-0.118597
-0.123756
-0.128756
-0.123643
-0.113416
-0.0930543
-0.0725565
-0.0419231
-0.0111312
0.0247511
0.0556787
0.081629
0.102647
0.113733
0.119864
0.125995
0.132036
0.137964
0.13871
0.139231
0.134502
0.129548
0.119412
0.114186
0.108914
0.10362
0.0932579
0.0827828
0.0721946
0.0515385
0.0258371
9.04799e-05
-0.0157014
-0.0415611
-0.0674434
-0.0783258
-0.0842534
-0.0803167
-0.0766516
-0.073371
-0.0756787
-0.0786652
-0.0825792
-0.0824661
-0.0832579
-0.0797511
-0.0766516
-0.0735973
-0.0604072
-0.0470362
-0.0283258
-0.0192534
-0.014638
-0.00954751
-0.00391401
0.00717197
0.00866518
0.00556564
0.00285071
0.000520371
-0.00651583
-0.0182353
-0.0297511
-0.0411086
-0.0473077
-0.0534389
-0.0595475
-0.0656787
-0.0768552
-0.0780543
-0.089276
-0.100475
-0.116652
-0.122738
-0.138778
-0.154751
-0.175656
-0.201471
-0.22724
-0.247919
-0.253462
-0.253891
-0.239208
-0.219434
-0.189548
-0.174525
-0.159434
-0.139253
-0.119118
-0.0889593
-0.0588009
-0.0386199
-0.0234163
-0.0182127
-0.0179865
-0.0128507
-0.00780543
-0.00791856
-0.0131674
-0.0235973
-0.0291403
-0.0448416
-0.055724
-0.0616968
-0.0727828
-0.0838688
-0.0949774
-0.091086
-0.0971719
-0.10319
-0.114186
-0.120158
-0.131109
-0.142059
-0.152964
-0.163801
-0.174525
-0.180136
-0.195566
-0.195814
-0.200837
-0.205656
-0.220294
-0.229774
-0.239095
-0.238303
-0.227398
-0.206403
-0.170339
-0.124253
-0.0731448
-0.0320588
0.00400455
0.0150226
0.0110407
0.00208147
0.00314482
0.00920816
0.0152263
0.0111086
0.00669686
0.00196835
-0.00309952
-0.0134615
-0.029095
-0.0399774
-0.0359955
-0.0121493
0.0416968
0.12552
0.254344
0.418145
0.631946
0.860724
1.08448
1.25824
1.37199
1.40577
1.39459
1.36351
1.29251
1.20667
1.07595
0.965339
0.844887
0.74957
0.659412
0.569389
0.484457
0.399593
0.349819
0.295113
0.245475
0.195882
0.151335
0.12181
0.10233
0.0978733
0.0984842
0.0890498
0.0795928
0.0600226
0.0403167
0.0154525
-0.0095475
-0.0297285
-0.0450905
-0.0606109
-0.0712896
-0.0821493
-0.0981222
-0.114072
-0.135023
-0.150882
-0.161652
-0.172262
-0.172805
-0.183281
-0.183665
-0.193959
-0.204163
-0.219344
-0.239525
-0.249706
-0.259887
-0.250045
-0.240181
-0.220249
-0.190294
-0.165317
-0.145362
-0.120407
-0.0904751
-0.0655882
-0.0406787
-0.0307692
-0.0258597
-0.0259728
-0.0360634
-0.0411765
-0.0463122
-0.0514706
-0.0616742
-0.0670136
-0.0725339
-0.07819
-0.0839819
-0.0898643
-0.100814
-0.111878
-0.127964
-0.144118
-0.160271
-0.176471
-0.202692
-0.223982
-0.245271
-0.261493
-0.272624
-0.278597
-0.284344
-0.284819
-0.285068
-0.285136
-0.290158
-0.300226
-0.310362
-0.320498
-0.320543
-0.30052
-0.25543
-0.210294
-0.160136
-0.109932
-0.0747285
-0.0445701
-0.0244344
0.000769228
0.00615385
0.0168778
0.0230317
0.0297964
0.0323529
0.040905
0.0554977
0.0660634
0.0823756
0.0941403
0.100928
0.107557
0.113959
0.11
0.105633
0.0956335
0.0750679
0.0588688
0.0421267
0.0198642
0.0021267
-0.0110407
-0.0296154
-0.0484389
-0.0724886
-0.091742
-0.111222
-0.120882
-0.135633
-0.145475
-0.165339
-0.165181
-0.160045
-0.14491
-0.124819
-0.104774
-0.0797738
-0.054819
-0.0299095
-0.0150452
-0.00520359
0.00961542
0.0144118
0.00418556
0.00391407
-0.00135743
-0.00162893
-0.00685518
-0.00712668
-0.00755654
-0.0082579
-0.00932126
-0.000972845
0.0216742
0.0383484
0.0489366
0.0484389
0.0369909
0.0299321
0.0124661
-6.78748e-05
-0.0176018
-0.0298869
-0.0418778
-0.0583258
-0.0641403
-0.079457
-0.0941855
-0.108575
-0.117489
-0.12095
-0.123914
-0.126471
-0.133643
-0.130385
-0.111742
-0.0826471
-0.0632353
-0.0436426
-0.033914
-0.024095
-0.0142308
-0.00936652
0.000520356
-0.00457014
-0.00963802
-0.0146606
-0.00972852
-0.00981901
-0.0149548
-0.0150905
-0.0152036
-0.0202715
-0.0302941
-0.0402715
-0.0452036
-0.0450679
-0.0398869
-0.0346606
-0.0343891
-0.0490724
-0.0586878
-0.0781222
-0.0923077
-0.101244
-0.115045
-0.123688
-0.12724
-0.130747
-0.139231
-0.15267
-0.171131
-0.179661
-0.183303
-0.192104
-0.196063
-0.195091
-0.184163
-0.173235
-0.157285
-0.126312
-0.100339
-0.0793439
-0.0683258
-0.062353
-0.0513801
-0.0354977
-0.0147285
0.0109276
0.0365158
0.0519909
0.0623982
0.0677602
0.0730317
0.0682579
0.0633937
0.0635068
0.058552
0.0485973
0.0485973
0.0485973
0.043552
0.0385294
0.0285973
0.018733
0.00898189
-0.00570137
-0.0203168
-0.029819
-0.0341855
-0.0435068
-0.0478281
-0.0521493
-0.0615158
-0.0660181
-0.0856335
-0.100407
-0.120362
-0.120498
-0.0858371
-0.0363122
0.0431222
0.162534
0.307014
0.506629
0.726358
0.956177
1.15604
1.30088
1.40075
1.43557
1.46543
1.43527
1.39011
1.29498
1.18484
1.09975
0.994683
0.929638
0.829615
0.729615
0.609706
0.514887
0.425158
0.325475
0.230837
0.12629
0.0518778
0.00757918
-0.026629
-0.0507692
-0.0698416
-0.078914
-0.0980317
-0.117195
-0.136448
-0.160769
-0.175181
-0.189661
-0.199321
-0.214186
-0.229231
-0.244457
-0.259819
-0.270272
-0.280747
-0.296222
-0.311652
-0.331991
-0.352262
-0.372489
-0.387715
-0.407919
-0.418145
-0.428394
-0.408643
-0.393959
-0.379299
-0.359638
-0.345
-0.330362
-0.320769
-0.296244
-0.266742
-0.22724
-0.192738
-0.173213
-0.153643
-0.148982
-0.144253
-0.144412
-0.144389
-0.149208
-0.153869
-0.153416
-0.162919
-0.157376
-0.156742
-0.151041
-0.155249
-0.154389
-0.158552
-0.162828
-0.162308
-0.171968
-0.176833
-0.191946
-0.197262
-0.207738
-0.213235
-0.223688
-0.234095
-0.23948
-0.254842
-0.255226
-0.260633
-0.256018
-0.246448
-0.246878
-0.25233
-0.247783
-0.238235
-0.223665
-0.209027
-0.189389
-0.164729
-0.135113
-0.0955204
-0.0609955
-0.016448
0.0133032
0.0333258
0.0387557
0.0347964
0.0315611
0.0293213
0.0281448
0.0280769
0.0339819
0.0356109
0.0427376
0.0350679
0.0375566
0.039819
0.0367421
0.0330543
0.0286425
0.018552
0.00771493
-0.00359727
-0.0104299
-0.0277376
-0.045543
-0.063733
-0.0772624
-0.0811991
-0.0804977
-0.0802262
-0.0852715
-0.0854977
-0.0908597
-0.0963122
-0.08681
-0.0723303
-0.0528733
-0.0384616
-0.0290724
-0.0147511
0.00459276
0.043914
0.0832353
0.122534
0.161833
0.186131
0.195385
0.189683
0.183982
0.173281
0.157579
0.146833
0.136063
0.120249
0.104389
0.0884163
0.0773529
0.0661538
0.0648642
0.058371
0.0516968
0.0498416
0.0378054
0.0307014
0.0235747
0.0165837
0.00977375
-0.00180995
-0.01319
-0.0244118
-0.0354977
-0.0414932
-0.0523982
-0.0632579
-0.0740724
-0.0898642
-0.105656
-0.111403
-0.112149
-0.117805
-0.113416
-0.108937
-0.0994344
-0.0798416
-0.0452036
0.00447965
0.0492534
0.0890724
0.138937
0.183801
0.21371
0.208643
0.19862
0.18862
0.178643
0.16871
0.163778
0.158914
0.14405
0.139186
0.124299
0.119231
0.113937
0.103348
0.0924661
0.0714027
0.0602263
0.0490724
0.0380091
0.0270815
0.0213575
0.0158145
0.00549774
-0.00463801
-0.0146606
-0.0295928
-0.0445023
-0.0643891
-0.0792534
-0.094095
-0.108937
-0.123756
-0.133529
-0.143235
-0.147964
-0.127692
-0.0974208
-0.057172
-0.00699095
0.0581674
0.118281
0.158348
0.173394
0.178484
0.168552
0.158529
0.143326
0.132851
0.117014
0.105724
0.0988009
0.091086
0.0825792
0.0731448
0.0580091
0.0473303
0.0263122
0.0101584
-0.0111991
-0.0275113
-0.0536652
-0.0693213
-0.0844118
-0.098914
-0.117828
-0.136199
-0.144005
-0.166357
-0.178213
-0.194729
-0.210905
-0.22181
-0.237398
-0.247715
-0.252873
-0.247919
-0.237941
-0.217941
-0.177919
-0.117873
-0.0628054
-0.00273757
0.0523303
0.0823756
0.0974434
0.0925113
0.0825792
0.0726697
0.0627602
0.0478281
0.0378733
0.0229185
0.00803167
-0.00183259
-0.0116968
-0.0216742
-0.02681
-0.0371493
-0.0476471
-0.0633484
-0.0742082
-0.0901584
-0.101131
-0.122081
-0.137896
-0.153529
-0.173891
-0.194005
-0.208937
-0.22362
-0.2381
-0.252443
-0.266833
-0.281267
-0.295724
-0.310204
-0.324706
-0.339208
-0.34371
-0.338235
-0.322738
-0.282285
-0.236833
-0.16638
-0.0909503
-0.0355656
0.00475112
0.0200452
0.0253167
0.0255656
0.0208371
0.0161312
0.0114706
0.00185519
-0.00273757
-0.0172851
-0.0268552
-0.0364254
-0.0461312
-0.0559955
-0.0610634
-0.0664027
-0.0820362
-0.0979186
-0.109005
-0.115226
-0.121403
-0.127443
-0.123303
-0.128937
-0.134276
-0.139321
-0.149163
-0.168914
-0.183597
-0.183326
-0.163077
-0.117896
-0.0427602
0.0573529
0.197443
0.367557
0.54267
0.742828
0.893009
1.02317
1.11337
1.16357
1.22378
1.22396
1.20414
1.11428
1.02941
0.93957
0.849751
0.769955
0.670204
0.580498
0.465769
0.385973
0.301041
0.225882
0.145498
0.0748416
0.0239366
-0.0171946
-0.0384389
-0.0547285
-0.0709955
-0.0770588
-0.0878507
-0.0933484
-0.0935294
-0.0984163
-0.108145
-0.112783
-0.117398
-0.127036
-0.136697
-0.14138
-0.146086
-0.155814
-0.175566
-0.190362
-0.200204
-0.185023
-0.164864
-0.134706
-0.10457
-0.059457
-0.0293892
-0.00432128
0.0057466
0.0107918
0.000814471
-0.00418553
-0.0141629
-0.0241629
-0.0241855
-0.0292534
-0.029457
-0.0297964
-0.0252715
-0.0259276
-0.0317647
-0.0378281
-0.0441403
-0.0507014
-0.0575113
-0.069457
-0.0813801
-0.0882353
-0.0948869
-0.101312
-0.107376
-0.108077
-0.113507
-0.11871
-0.123801
-0.128846
-0.143869
-0.153869
-0.168846
-0.188801
-0.203756
-0.223665
-0.233597
-0.248529
-0.238416
-0.218303
-0.188167
-0.143032
-0.0928507
-0.0476923
-0.012534
0.0126244
0.0228054
0.0230543
0.023371
0.0237556
0.0241403
0.019457
0.0147059
0.00984164
-0.00015837
-0.000316739
-0.00561086
-0.00595023
-0.00626698
-0.0164027
-0.0211991
-0.0304073
-0.0338688
-0.0465159
-0.0532353
-0.0542534
-0.0646607
-0.0746154
-0.0793439
-0.0837783
-0.08819
-0.0926697
-0.0975113
-0.107715
-0.118303
-0.134276
-0.155588
-0.16733
-0.179434
-0.171991
-0.154887
-0.118122
-0.0766742
-0.0305204
0.015362
0.0611086
0.0917421
0.112353
0.127986
0.12362
0.124344
0.115068
0.105747
0.0963575
0.0918552
0.0872172
0.0774434
0.0724434
0.0671946
0.0617195
0.0510634
0.0452941
0.034457
0.028552
0.0276244
0.0116742
0.0058371
0.000135744
-0.00540724
-0.0107919
-0.0159502
-0.0259276
-0.0407919
-0.0455882
-0.0603394
-0.0700679
-0.0897738
-0.10448
-0.119186
-0.123869
-0.108529
-0.0931674
-0.0777602
-0.0522851
-0.0267421
0.00882353
0.0494118
0.0900453
0.130724
0.156493
0.157285
0.1581
0.153982
0.149909
0.14086
0.136719
0.132489
0.1231
0.113529
0.108801
0.103891
0.0937783
0.0835294
0.07319
0.0627602
0.0473077
0.03681
0.0263122
0.00576923
-0.00468326
-0.02
-0.0251584
-0.0400905
-0.0497511
-0.0641177
-0.0733258
-0.0824887
-0.101787
-0.12138
-0.131357
-0.136946
-0.128281
-0.120588
-0.108824
-0.102873
-0.0874661
-0.0623303
-0.0371946
-0.00192308
0.0286878
0.049638
0.0560633
0.0579412
0.0502941
0.0431448
0.0364253
0.0301357
0.0191629
0.0185294
0.0130995
0.0077828
0.00251131
-0.00773756
-0.0129864
-0.0182579
-0.0235294
-0.0288009
-0.0341403
-0.044457
-0.0597511
-0.0649548
-0.0750226
-0.0798869
-0.0945023
-0.103869
-0.122964
-0.136833
-0.150543
-0.169118
-0.182624
-0.206086
-0.214502
-0.207919
-0.19138
-0.169887
-0.148439
-0.122014
-0.0756109
-0.0292081
0.0122172
0.0485973
0.0699548
0.0763122
0.0726471
0.0640045
0.0604072
0.0518326
0.0433032
0.0398642
0.036448
0.0329638
0.0243665
0.0255656
0.0214932
0.0170814
0.00233031
-0.00766969
-0.0178507
-0.0281674
-0.0335973
-0.0440724
-0.049457
-0.0597511
-0.0699095
-0.0849548
-0.0948642
-0.104593
-0.119095
-0.133371
-0.157421
-0.171312
-0.185136
-0.203914
-0.21767
-0.226403
-0.210158
-0.188914
-0.157647
-0.121357
-0.0900679
-0.0537104
-0.022353
-0.00099548
0.00536199
0.00671946
-0.00190046
-0.010543
-0.0191629
-0.0227828
-0.0314027
-0.04
-0.0435973
-0.0471493
-0.055724
-0.0744118
-0.073371
-0.0576471
-0.0173077
0.0476244
0.132217
0.266629
0.43095
0.640317
0.839729
1.01421
1.12376
1.18344
1.17828
1.14828
1.07348
0.988869
0.879412
0.770045
0.660769
0.536516
0.432285
0.3331
0.248937
0.159774
0.105656
0.0715611
0.0524887
0.0384389
0.0293665
0.0202941
0.00624434
-0.0127828
-0.0217647
-0.040724
-0.0596606
-0.0735747
-0.0874434
-0.096267
-0.110091
-0.11905
-0.133167
-0.137511
-0.142081
-0.151923
-0.152059
-0.167443
-0.178077
-0.188824
-0.18957
-0.190272
-0.185882
-0.186357
-0.191674
-0.196765
-0.206629
-0.201267
-0.205769
-0.210181
-0.214548
-0.223891
-0.233258
-0.252624
-0.266991
-0.291357
-0.300701
-0.290023
-0.269299
-0.233529
-0.187692
-0.11681
-0.0558824
-0.00993214
0.0110633
0.0270814
0.0381222
0.0441629
0.0402262
0.0362896
0.0223529
0.0233484
0.0192534
0.0150679
0.00576922
-0.00366517
-0.0133258
-0.0232806
-0.0385521
-0.0491629
-0.0600679
-0.0711765
-0.0773303
-0.0834163
-0.0943439
-0.11009
-0.120611
-0.140973
-0.146131
-0.156109
-0.165995
-0.17586
-0.190701
-0.200588
-0.215498
-0.22543
-0.245339
-0.260226
-0.275113
-0.289977
-0.299842
-0.284706
-0.239615
-0.179502
-0.104276
-0.0338235
0.021991
0.0532353
0.0701584
0.0729186
0.0767195
0.0815159
0.0821493
0.0783258
0.079819
0.081267
0.0824887
0.0832353
0.0784616
0.0729412
0.0616742
0.0546833
0.0469684
0.0336652
0.0249096
0.0157919
0.0063349
-0.0033031
-0.0130543
-0.0228506
-0.0276696
-0.0324886
-0.0423076
-0.0521493
-0.0670588
-0.0769909
-0.0919909
-0.112036
-0.127104
-0.147195
-0.152262
-0.137353
-0.112443
-0.0825339
-0.0476244
-0.0027149
0.0421493
0.0820136
0.11181
0.126584
0.131358
0.136177
0.136063
0.126041
0.116131
0.111267
0.106448
0.0965611
0.101516
0.101267
0.0957919
0.0850679
0.0790725
0.0728281
0.0613575
0.0498191
0.0381901
0.0266064
0.0101131
-0.0111991
-0.027285
-0.0431674
-0.0587104
-0.0789819
-0.0990271
-0.113959
-0.128823
-0.133643
-0.148439
-0.153235
-0.163032
-0.157873
-0.15267
-0.142421
-0.127127
-0.11181
-0.0764932
-0.0361764
0.0191629
0.0795023
0.124842
0.155181
0.15552
0.155882
0.141244
0.131561
0.116787
0.111968
0.102036
0.0920136
0.09181
0.0913575
0.0856109
0.0845249
0.0781448
0.0714706
0.0596832
0.0427602
0.0307918
0.0188235
0.0118552
-0.000113115
-0.0119683
-0.0185294
-0.0297285
-0.0404525
-0.0557692
-0.0657692
-0.0807014
-0.100769
-0.121199
-0.142081
-0.153597
-0.165905
-0.179118
-0.178235
-0.163009
-0.138394
-0.114072
-0.0648416
-0.015543
0.028914
0.0585973
0.0787104
0.0741403
0.065
0.0461991
0.0278054
0.0148416
0.00230771
-0.00975113
-0.021448
-0.0328054
-0.0439593
-0.0499547
-0.0558597
-0.0617647
-0.0728281
-0.0841855
-0.0958145
-0.11267
-0.12457
-0.136403
-0.153077
-0.159548
-0.165837
-0.1669
-0.167738
-0.168303
-0.173665
-0.183914
-0.194095
-0.209231
-0.224344
-0.249457
-0.26457
-0.279638
-0.274661
-0.234638
-0.194548
-0.149434
-0.0992987
-0.0491629
-0.00400453
0.0261765
0.0263575
0.0215158
0.00167421
-0.00819005
-0.0281222
-0.0431222
-0.0431674
-0.0482579
-0.0484163
-0.0536651
-0.0590498
-0.0595701
-0.0602489
-0.0610633
-0.0670588
-0.0732353
-0.0795701
-0.0909502
-0.107353
-0.12371
-0.14
-0.151199
-0.162217
-0.178032
-0.193552
-0.203756
-0.213733
-0.223552
-0.233371
-0.238167
-0.238054
-0.232964
-0.232941
-0.227919
-0.212919
-0.182941
-0.137919
-0.0828733
-0.0228054
0.0323077
0.0824435
0.0976018
0.107783
0.102941
0.0880769
0.0732353
0.0634163
0.0535747
0.033733
0.0138462
-0.0161991
-0.036448
-0.0519457
-0.0376471
0.00644797
0.0853394
0.184027
0.322466
0.490792
0.679027
0.872217
1.01045
1.13882
1.19735
1.20609
1.18014
1.12948
1.0691
0.963914
0.878869
0.773846
0.688824
0.588733
0.483597
0.378462
0.263303
0.178122
0.0979638
0.0428054
-0.00237558
-0.0375566
-0.0477376
-0.0279186
0.0168778
0.0616516
0.0914027
0.0961312
0.0958145
0.0855204
0.0702036
0.0649547
0.0597511
0.0545701
0.0343439
0.0189819
0.00846154
-0.00223982
-0.0081448
-0.0142308
-0.0254751
-0.0369005
-0.0534163
-0.07
-0.0915385
-0.102828
-0.108914
-0.119751
-0.130339
-0.140701
-0.15086
-0.160882
-0.165882
-0.175905
-0.180995
-0.181109
-0.18629
-0.191516
-0.196697
-0.196878
-0.197014
-0.187149
-0.172285
-0.152398
-0.127489
-0.102579
-0.0676923
-0.0428281
-0.0279638
-0.0181222
-0.0183484
-0.0186199
-0.0239593
-0.0293665
-0.034819
-0.0453167
-0.055905
-0.0616063
-0.0674661
-0.0684842
-0.0747059
-0.0710634
-0.0775566
-0.0790724
-0.0855656
-0.091991
-0.0982806
-0.109367
-0.115226
-0.125814
-0.136086
-0.146063
-0.155769
-0.170407
-0.179977
-0.184548
-0.199208
-0.208914
-0.213643
-0.223394
-0.218213
-0.1931
-0.1581
-0.118167
-0.0832805
-0.0533032
-0.0280996
-0.00251132
0.033552
0.0502715
0.0627376
0.066086
0.0653394
0.0602941
0.060905
0.0518552
0.0428507
0.0386652
0.0340724
0.0288462
0.0275792
0.0251584
0.0213122
0.0210407
0.0142534
0.0010181
-0.00837103
-0.0186878
-0.0393891
-0.0553167
-0.0661991
-0.0768552
-0.0872172
-0.0970362
-0.10638
-0.115068
-0.12319
-0.135747
-0.137873
-0.15457
-0.165905
-0.186968
-0.202692
-0.2081
-0.19819
-0.168122
-0.137964
-0.107738
-0.0725113
-0.0472398
-0.0269457
-0.0116742
-0.00640273
-0.00615386
-0.0109502
-0.0257692
-0.030543
-0.0402715
-0.0449774
-0.044638
-0.044276
-0.043914
-0.0486425
-0.0484163
-0.0533258
-0.0583937
-0.0636651
-0.0691403
-0.0797964
-0.085543
-0.0963122
-0.102059
-0.107715
-0.113235
-0.11862
-0.118846
-0.118914
-0.118756
-0.123462
-0.128032
-0.127511
-0.131923
-0.131222
-0.125475
-0.124661
-0.128824
-0.122941
-0.107059
-0.0811086
-0.0551357
-0.0191176
0.00690047
0.0379864
0.049095
0.0452489
0.0364254
0.0226245
0.00884617
0.00509051
0.00135748
-0.00735293
-0.0160407
-0.0246832
-0.0233258
-0.0270588
-0.0308823
-0.0248416
-0.0290498
-0.0335294
-0.0382805
-0.0433032
-0.0484389
-0.0536199
-0.058733
-0.063733
-0.0685973
-0.0733258
-0.0779638
-0.0825113
-0.0869457
-0.0813348
-0.0857014
-0.0900679
-0.104457
-0.118869
-0.133303
-0.132783
-0.117308
-0.0768552
0.00357468
0.128959
0.299367
0.509796
0.740249
0.975747
1.19124
1.34174
1.43224
1.43278
1.40333
1.33887
1.24446
1.14507
1.01572
0.931403
0.832127
0.752851
0.658507
0.569005
0.474299
0.384299
0.309005
0.228394
0.152602
0.0767421
0.0209276
-0.0146833
-0.0401131
-0.050362
-0.0654299
-0.075362
-0.0801584
-0.0898869
-0.0995928
-0.104276
-0.118959
-0.13871
-0.153439
-0.16819
-0.187919
-0.202602
-0.212262
-0.2019
-0.196538
-0.176154
-0.145769
-0.100385
-0.06
-0.0245928
-0.00918552
-0.00375565
-0.00830316
-0.0178281
-0.0323303
-0.0417873
-0.0511991
-0.0605204
-0.0747738
-0.0790272
-0.0933937
-0.102919
-0.117624
-0.142602
-0.157851
-0.178348
-0.18905
-0.20991
-0.220747
-0.241493
-0.252059
-0.262443
-0.267602
-0.277624
-0.287489
-0.297285
-0.307127
-0.316968
-0.326878
-0.341833
-0.35181
-0.366765
-0.381742
-0.401742
-0.411742
-0.406719
-0.396697
-0.371652
-0.331538
-0.281403
-0.226244
-0.176063
-0.14586
-0.110633
-0.0903846
-0.0751131
-0.0697964
-0.0694344
-0.0640272
-0.0585973
-0.0480996
-0.0425566
-0.0369457
-0.0363575
-0.0358597
-0.0405656
-0.0405204
-0.0457466
-0.0511991
-0.0567421
-0.0622172
-0.0623529
-0.0719231
-0.0806787
-0.0884389
-0.0951131
-0.0956787
-0.100249
-0.0991403
-0.107624
-0.116109
-0.119706
-0.128575
-0.132851
-0.142557
-0.147828
-0.158462
-0.159502
-0.145882
-0.117647
-0.0697737
-0.0172851
0.039819
0.091629
0.1181
0.129253
0.130136
0.115814
0.10638
0.0969004
0.0924208
0.0879412
0.0784615
0.0790498
0.0796606
0.0752036
0.0706787
0.0709728
0.0610181
0.0557692
0.045181
0.0342308
0.0280091
0.021629
0.0152941
0.00904979
0.00300906
-0.00282804
-0.00841629
-0.0187556
-0.0288688
-0.0388688
-0.0538235
-0.0637783
-0.0737556
-0.0888009
-0.103846
-0.123914
-0.138982
-0.139095
-0.119163
-0.0892534
-0.0493439
0.00556562
0.0653846
0.125158
0.169842
0.199525
0.199163
0.193778
0.178303
0.162783
0.14724
0.141674
0.136086
0.130498
0.134887
0.124253
0.123575
0.117805
0.116833
0.105634
0.0991629
0.0924435
0.0804525
0.0733032
0.0661539
0.0540724
0.042172
0.030543
0.0192308
0.00823531
-0.00246605
-0.0129864
-0.0233032
-0.0335068
-0.0486199
-0.0636878
-0.0787104
-0.0886878
-0.108643
-0.123507
-0.133326
-0.133077
-0.117783
-0.0874434
-0.0471267
-0.00183256
0.0484615
0.0837557
0.10905
0.114344
0.114706
0.105068
0.0954299
0.0857693
0.076086
0.0714027
0.0717195
0.0720362
0.072353
0.0675792
0.0626697
0.057534
0.052172
0.0465159
0.0405656
0.0292986
0.0228054
0.0112217
-0.000271492
-0.0115385
-0.0175339
-0.0282127
-0.0336199
-0.0388462
-0.0540272
-0.0641855
-0.0744118
-0.0896606
-0.0999321
-0.115226
-0.125543
-0.145905
-0.161222
-0.156471
-0.146652
-0.12181
-0.0870136
-0.0374434
0.0218326
0.0806561
0.123914
0.146448
0.143122
0.123891
0.0938688
0.0732353
0.0572172
0.0361312
0.0152036
-0.000588245
-0.0111086
-0.0213801
-0.031267
-0.035905
-0.050362
-0.0596606
-0.0738688
-0.0828733
-0.101606
-0.11491
-0.12776
-0.145045
-0.151697
-0.157738
-0.15819
-0.168167
-0.177851
-0.182466
-0.182059
-0.181674
-0.186357
-0.186086
-0.190792
-0.200498
-0.205181
-0.209819
-0.209434
-0.199027
-0.16862
-0.12819
-0.0827376
-0.0422624
-0.00174209
0.0237783
0.0293213
0.0249095
0.0104977
-0.00884616
-0.0281674
-0.0424661
-0.0567647
-0.0661312
-0.0756109
-0.0802262
-0.085
-0.0899774
-0.100204
-0.105656
-0.106312
-0.117195
-0.123235
-0.134367
-0.14552
-0.156629
-0.157557
-0.153258
-0.15871
-0.163869
-0.168824
-0.17362
-0.188371
-0.198077
-0.207783
-0.212489
-0.217172
-0.221855
-0.231516
-0.236131
-0.250701
-0.245226
-0.224729
-0.189208
-0.148643
-0.0980317
-0.0423982
0.0132579
0.058914
0.0896154
0.0953167
0.0910407
0.0817873
0.0676244
0.0585294
0.0444796
0.0454072
0.0411991
0.0418099
0.0371946
0.0323077
0.0321719
0.0317647
0.0312217
0.020543
0.00479637
-0.0159276
-0.026629
-0.0171946
0.0223982
0.0822398
0.172353
0.287738
0.443348
0.629095
0.824887
0.995634
1.12631
1.20697
1.21762
1.17328
1.13389
1.0645
0.995113
0.900747
0.836403
0.782081
0.732783
0.693484
0.634208
0.574932
0.500634
0.431335
0.347059
0.262783
0.188529
0.119321
0.0601131
0.0258371
0.0114253
0.00183258
-0.00798643
-0.00809954
-0.0135068
-0.0241176
-0.0299095
-0.0408371
-0.0468326
-0.0628507
-0.0688462
-0.0747964
-0.0806109
-0.096267
-0.106719
-0.122014
-0.132127
-0.142104
-0.157059
-0.167014
-0.192014
-0.207036
-0.222149
-0.232308
-0.227511
-0.212715
-0.192919
-0.168145
-0.138326
-0.0984842
-0.0636199
-0.028733
0.00124434
0.0212443
0.0312896
0.0363348
0.0414027
0.0315158
0.0216968
0.0119457
-0.00280544
-0.0126471
-0.0226244
-0.0277376
-0.0380317
-0.0485747
-0.0593665
-0.0753846
-0.0865611
-0.0978507
-0.109186
-0.120498
-0.131855
-0.143145
-0.154321
-0.170317
-0.186086
-0.196584
-0.206765
-0.216719
-0.231584
-0.241538
-0.25681
-0.272602
-0.29905
-0.326335
-0.344457
-0.348484
-0.338145
-0.313213
-0.278507
-0.238778
-0.199072
-0.159163
-0.144005
-0.138348
-0.14224
-0.145747
-0.143846
-0.151584
-0.153801
-0.160385
-0.161154
-0.161109
-0.165272
-0.168529
-0.175792
-0.177036
-0.182489
-0.187398
-0.192081
-0.201855
-0.201855
-0.206991
-0.207353
-0.212964
-0.218937
-0.220136
-0.231539
-0.233122
-0.244864
-0.24681
-0.254027
-0.261516
-0.274276
-0.287398
-0.29586
-0.309615
-0.308643
-0.302919
-0.28233
-0.246765
-0.196222
-0.130679
-0.0701132
-0.0245475
0.0109954
0.0315611
0.0421041
0.0426697
0.0382353
0.0388235
0.0394796
0.045181
0.0458823
0.0514932
0.0519909
0.0473529
0.0475565
0.0425792
0.0373982
0.0219683
0.0213348
0.0156335
0.00988686
-0.000814501
-0.0114027
-0.0118552
-0.0271493
-0.0372398
-0.0520815
-0.0616968
-0.081086
-0.0952715
-0.109299
-0.118235
-0.132104
-0.150928
-0.164774
-0.17362
-0.177466
-0.161335
-0.135226
-0.10914
-0.0830543
-0.036991
0.00904976
0.0550452
0.0859955
0.106923
0.107851
0.0987783
0.0947285
0.0856787
0.0815837
0.077466
0.0682353
0.0588914
0.044457
0.0498642
0.0751131
0.125158
0.200045
0.309774
0.444389
0.613846
0.788167
0.972421
1.11174
1.19618
1.24579
1.23566
1.23577
1.19111
1.13665
1.02733
0.9181
0.818891
0.709706
0.620588
0.516516
0.417511
0.298552
0.209661
0.150792
0.106946
0.0730543
0.0441403
0.040181
0.0511991
0.0821719
0.113122
0.11905
0.109932
0.0907466
0.0764706
0.0621041
0.0476018
0.0380317
0.0282805
0.0233937
0.00832579
0.00809954
-0.00726244
-0.0177828
-0.0234163
-0.0341855
-0.0450226
-0.0559276
-0.0618099
-0.0676244
-0.0783032
-0.0838009
-0.0940498
-0.0989819
-0.103643
-0.108077
-0.117308
-0.121425
-0.130452
-0.144434
-0.153416
-0.172376
-0.186312
-0.200204
-0.189072
-0.177896
-0.156674
-0.13043
-0.104163
-0.0678959
-0.0366289
-0.00540721
-0.00414025
-0.00285066
-0.00653843
-0.0152488
-0.0239819
-0.0326923
-0.0464479
-0.0602262
-0.0741403
-0.0882353
-0.102602
-0.11724
-0.127127
-0.137262
-0.142692
-0.148416
-0.159434
-0.170588
-0.18181
-0.187941
-0.193959
-0.199819
-0.205543
-0.211018
-0.211244
-0.216267
-0.221131
-0.230905
-0.240656
-0.25543
-0.265158
-0.264864
-0.269593
-0.259457
-0.24957
-0.240068
-0.216086
-0.192715
-0.165045
-0.142964
-0.126425
-0.120045
-0.113484
-0.111357
-0.113371
-0.12948
-0.139638
-0.149095
-0.162851
-0.171154
-0.174005
-0.171629
-0.179208
-0.187014
-0.190113
-0.193371
-0.201923
-0.215633
-0.229615
-0.243756
-0.258145
-0.262715
-0.27233
-0.267014
-0.271787
-0.266629
-0.271425
-0.271086
-0.275543
-0.284774
-0.278937
-0.2731
-0.257308
-0.246538
-0.225792
-0.21509
-0.189412
-0.163756
-0.1381
-0.107489
-0.0868778
-0.0613122
-0.0507466
-0.0351584
-0.0295928
-0.0290272
-0.0334615
-0.0428959
-0.0522851
-0.0566968
-0.0611086
-0.0655882
-0.0650905
-0.0696154
-0.0792308
-0.0839593
-0.0938462
-0.103891
-0.109163
-0.114593
-0.120181
-0.12586
-0.131584
-0.137217
-0.14776
-0.15819
-0.163462
-0.168597
-0.173529
-0.178303
-0.187896
-0.197443
-0.206968
-0.211448
-0.215928
-0.220385
-0.224819
-0.229253
-0.213665
-0.183077
-0.142511
-0.096991
-0.0564932
-0.0109955
0.0395022
0.0850452
0.135633
0.156244
0.166878
0.162511
0.163167
0.153846
0.14948
0.14
0.130317
0.130453
0.12543
0.125272
0.119955
0.11448
0.0988462
0.0830996
0.0823077
0.106471
0.150701
0.225
0.324367
0.463891
0.643552
0.823394
1.01835
1.16344
1.25862
1.30389
1.28921
1.27455
1.20484
1.13511
1.03036
0.920588
0.820815
0.726063
0.661335
0.601606
0.556878
0.492195
0.447557
0.392941
0.348348
0.283778
0.219231
0.169638
0.120023
0.0902715
0.0754525
0.0605204
0.0454977
0.0253167
0.00993213
-0.0106561
-0.0215158
-0.0325113
-0.0436199
-0.0547285
-0.0658145
-0.07181
-0.0777149
-0.0834842
-0.0891176
-0.094638
-0.095
-0.100271
-0.11043
-0.120543
-0.125566
-0.135543
-0.145475
-0.150362
-0.165226
-0.170068
-0.174864
-0.169615
-0.169367
-0.169118
-0.153846
-0.138597
-0.108326
-0.0830543
-0.0477602
-0.0224435
-0.00710408
-0.0017421
-0.0063801
-0.0159955
-0.0255883
-0.0301358
-0.0396606
-0.0441855
-0.0538009
-0.0585747
-0.0685973
-0.0789367
-0.0845701
-0.100452
-0.111493
-0.127647
-0.143824
-0.16
-0.181176
-0.19724
-0.208145
-0.213846
-0.224321
-0.234615
-0.244683
-0.259502
-0.274095
-0.288416
-0.302602
-0.311697
-0.320769
-0.329819
-0.323846
-0.302851
-0.261855
-0.22086
-0.189842
-0.163801
-0.137738
-0.111629
-0.0904525
-0.0743439
-0.0634163
-0.0576923
-0.0621267
-0.0667647
-0.071629
-0.0817647
-0.0871493
-0.0976018
-0.0979865
-0.108032
-0.117692
-0.127149
-0.131471
-0.135928
-0.140317
-0.144819
-0.149434
-0.159208
-0.169208
-0.179276
-0.184525
-0.194683
-0.204751
-0.219661
-0.234502
-0.249231
-0.268778
-0.28819
-0.307557
-0.312014
-0.311561
-0.291267
-0.271063
-0.25086
-0.225656
-0.195452
-0.150294
-0.110136
-0.06
-0.0248416
0.00533938
0.0204978
0.0256561
0.0258145
0.0159729
0.0111312
0.00631223
0.00649324
0.00167425
0.00190049
0.002172
0.0024435
-0.00228503
-0.00699092
-0.0166968
-0.0314479
-0.0462217
-0.0611086
-0.076086
-0.0911312
-0.0962217
-0.0963348
-0.106448
-0.111448
-0.121335
-0.131063
-0.145701
-0.155249
-0.164751
-0.174253
-0.178756
-0.188326
-0.198009
-0.217805
-0.232715
-0.237692
-0.222692
-0.192715
-0.142738
-0.0827376
-0.0277602
0.0172172
0.047172
0.0671493
0.0671041
0.0620136
0.0568778
0.0466742
0.0414706
0.0362896
0.0311312
0.0309955
0.0258824
0.0207919
0.0156561
0.00552039
-0.00466064
-0.0148869
-0.0251357
-0.0304298
-0.045724
-0.0559728
-0.0661086
-0.0761086
-0.0809728
-0.0907919
-0.0955656
-0.110317
-0.13
-0.129615
-0.104208
-0.0588235
0.00149319
0.0917194
0.216833
0.37681
0.571674
0.766425
0.930996
1.05048
1.10989
1.15928
1.17364
1.18796
1.15729
1.11158
1.06586
0.995113
0.934321
0.848507
0.79267
0.706878
0.626086
0.545339
0.464615
0.393891
0.298167
0.222376
0.146584
0.100747
0.0699321
0.0541629
0.0434841
0.0279412
0.0125113
-0.00273756
-0.0128507
-0.0277376
-0.0424208
-0.0568552
-0.0710634
-0.0750679
-0.083914
-0.0927149
-0.096448
-0.100226
-0.109027
-0.112964
-0.117081
-0.126471
-0.141109
-0.15095
-0.16095
-0.171063
-0.181222
-0.181471
-0.181855
-0.17233
-0.157873
-0.148484
-0.134163
-0.129887
-0.130633
-0.141425
-0.152262
-0.158145
-0.15405
-0.139977
-0.125905
-0.111833
-0.10776
-0.0986878
-0.0846606
-0.0706335
-0.0516742
-0.0477602
-0.0488461
-0.0548643
-0.0607466
-0.0764027
-0.0817647
-0.0868552
-0.0967195
-0.111448
-0.121063
-0.125656
-0.130249
-0.134864
-0.149548
-0.164253
-0.17405
-0.188959
-0.203982
-0.219072
-0.224163
-0.239253
-0.244321
-0.249389
-0.254457
-0.254548
-0.264706
-0.27
-0.275452
-0.265996
-0.256606
-0.237217
-0.222851
-0.203484
-0.19414
-0.189864
-0.180588
-0.166154
-0.146471
-0.131493
-0.111109
-0.0851358
-0.0684389
-0.0458371
-0.0123529
0.0119005
0.0217194
0.0218099
0.0221267
0.0325339
0.033009
0.0383484
0.0434842
0.0483937
0.0529864
0.0523077
0.0512443
0.0399321
0.0332127
0.0160633
-0.00158371
-0.0147059
-0.0282353
-0.0322398
-0.0516516
-0.0614253
-0.0713801
-0.0814027
-0.0814253
-0.0914027
-0.0963801
-0.111357
-0.11138
-0.116493
-0.121697
-0.126946
-0.142217
-0.157557
-0.177873
-0.18319
-0.198552
-0.198891
-0.199231
-0.174615
-0.135
-0.0804072
-0.0258597
0.0186199
0.0530543
0.0724434
0.0768326
0.0861991
0.100566
0.104932
0.104321
0.103778
0.103235
0.10776
0.112285
0.111787
0.116222
0.115566
0.109842
0.0990498
0.0882353
0.0773982
0.0665385
0.060543
0.0593213
0.0478054
0.040905
0.0334842
0.0254072
0.0215158
0.0168326
0.0114027
0.000294104
-0.0111991
-0.0228507
-0.0293213
-0.0405883
-0.0514932
-0.0619457
-0.0669231
-0.0663801
-0.0704752
-0.059095
-0.0423077
-0.0200679
-0.0124209
-0.0193892
-0.0259955
-0.0423756
-0.0534389
-0.0642534
-0.069819
-0.0602263
-0.0456109
-0.0209955
-0.0114027
-0.00676471
-0.0120815
-0.0173303
-0.0225113
-0.0326471
-0.0378507
-0.0381674
-0.0485973
-0.0591403
-0.0647059
-0.0652715
-0.0707693
-0.0711086
-0.0763122
-0.0763575
-0.081267
-0.0860634
-0.0858824
-0.085724
-0.090543
-0.0902715
-0.0899774
-0.089638
-0.0842534
-0.0838236
-0.0833258
-0.0827602
-0.0821493
-0.0765159
-0.0608824
-0.0302941
-0.00477377
0.0157013
0.0261312
0.0415384
0.0469004
0.0422398
0.0275565
0.012828
-0.00687786
-0.021629
-0.0364028
-0.0412217
-0.0310634
-0.0259276
-0.0308371
-0.0407466
-0.0407466
-0.0508371
-0.0611086
-0.0615385
-0.0721493
-0.0778959
-0.0787104
-0.084457
-0.0849774
-0.0852036
-0.0851131
-0.0847738
-0.0842534
-0.0936652
-0.0981674
-0.0977602
-0.0973756
-0.0919683
-0.0915158
-0.0810407
-0.0805204
-0.0749321
-0.069276
-0.0635747
-0.052828
-0.0420814
-0.0213801
-0.000723973
0.0198869
0.0404525
0.0759729
0.136471
0.216946
0.317353
0.452738
0.6031
0.783439
0.953756
1.11403
1.24928
1.32948
1.35964
1.30977
1.24989
1.15995
1.05491
0.944751
0.82448
0.72914
0.608756
0.508416
0.393235
0.288235
0.188326
0.103439
0.0385068
-0.0365611
-0.0967421
-0.157059
-0.192443
-0.207783
-0.213032
-0.213122
-0.213122
-0.213009
-0.207851
-0.207602
-0.197262
-0.171878
-0.141448
-0.105973
-0.0655204
-0.0400905
-0.0246833
-0.0192534
-0.0288235
-0.0433937
-0.0579864
-0.0575792
-0.0621946
-0.0518326
-0.0514932
-0.0611765
-0.075905
-0.0856787
-0.0954751
-0.105317
-0.115226
-0.130294
-0.15052
-0.16586
-0.186312
-0.19681
-0.207262
-0.212602
-0.217805
-0.222851
-0.222805
-0.232647
-0.237489
-0.242421
-0.242534
-0.247805
-0.248167
-0.248597
-0.25405
-0.24948
-0.249796
-0.245023
-0.250181
-0.245272
-0.240317
-0.220339
-0.190385
-0.165407
-0.135452
-0.12052
-0.110566
-0.120611
-0.130611
-0.145588
-0.155543
-0.160452
-0.155339
-0.130271
-0.100249
-0.0802036
-0.080181
-0.0901358
-0.0950905
-0.105091
-0.115204
-0.125475
-0.135882
-0.14138
-0.141946
-0.137534
-0.138054
-0.138484
-0.138801
-0.138982
-0.138959
-0.13362
-0.127919
-0.126833
-0.125181
-0.122873
-0.114729
-0.100747
-0.0909955
-0.080543
-0.0696832
-0.0635746
-0.0526018
-0.0418325
-0.0164027
0.00859728
0.0381222
0.0621041
0.0756561
0.0836878
0.071267
0.0583484
0.0499774
0.0411765
0.0469909
0.0624661
0.0776018
0.0974434
0.107014
0.106425
0.100792
0.0901357
0.0794117
0.0585294
0.0424661
0.016267
-0.0101358
-0.0315837
-0.0479638
-0.0591855
-0.0652036
-0.0709729
-0.0715837
-0.0771041
-0.0826245
-0.0832127
-0.0838235
-0.0844118
-0.0849321
-0.0854073
-0.0807692
-0.0760408
-0.0712896
-0.0615159
-0.0567195
-0.0469005
-0.0270815
0.00773755
0.0425339
0.0672624
0.091991
0.106652
0.111267
0.11586
0.11043
0.0949774
0.0844797
0.0739819
0.0784163
0.0928281
0.117217
0.136584
0.135928
0.135249
0.12448
0.113552
0.0974887
0.081267
0.0598869
0.0333484
0.0217647
0.00518103
-0.00126694
-0.00753391
-0.0136199
-0.0145475
-0.020362
-0.0260633
-0.0367421
-0.0423303
-0.0478733
-0.0583711
-0.0638009
-0.0641177
-0.0592308
-0.0641177
-0.0588462
-0.0585068
-0.0581674
-0.0378054
-0.0124661
0.0278281
0.0630769
0.0883032
0.113507
0.12871
0.133982
0.134253
0.129502
0.119751
0.11
0.100226
0.100475
0.115747
0.126018
0.13129
0.126516
0.111719
0.101855
0.0818552
0.0716742
0.0463348
0.0258145
0.0102036
-0.0054751
-0.0160633
-0.0215837
-0.0219909
-0.0222851
-0.0275113
-0.0277149
-0.033009
-0.0383484
-0.0436425
-0.0438914
-0.0339819
-0.033914
-0.0286878
-0.0282805
-0.0277828
-0.0322398
-0.0316742
-0.016086
0.0195023
0.0600227
0.0954978
0.140837
0.161086
0.171244
0.16638
0.156493
0.141606
0.131674
0.126719
0.131742
0.136742
0.126719
0.106674
0.0916063
0.0764706
0.0613122
0.0411539
0.025905
0.00536203
-0.0105656
-0.0269909
-0.0390498
-0.0518099
-0.0652941
-0.0745249
-0.094638
-0.105407
-0.111765
-0.123371
-0.129977
-0.13638
-0.137511
-0.14319
-0.143348
-0.147941
-0.151946
-0.150407
-0.153281
-0.150679
-0.132489
-0.103801
-0.0696833
-0.0352262
0.0045249
0.0344797
0.049638
0.0549548
0.045362
0.0357919
0.021267
0.0167647
0.00726246
-0.00721718
-0.0217194
-0.0512443
-0.0758145
-0.0954299
-0.115181
-0.135113
-0.155181
-0.175362
-0.190701
-0.206131
-0.216652
-0.22724
-0.232805
-0.233371
-0.233869
-0.239299
-0.239593
-0.239728
-0.249706
-0.249548
-0.244299
-0.244027
-0.243756
-0.238484
-0.238213
-0.237873
-0.237398
-0.236833
-0.226199
-0.215543
-0.189932
-0.154344
-0.108801
-0.0682579
-0.0277828
-0.00237554
0.0179638
0.0182127
0.0234616
0.0237104
0.0189593
0.0142308
0.0144797
0.0197285
0.0149548
-0.00486424
-0.0247511
-0.0547059
-0.0746606
-0.0947059
-0.114819
-0.125023
-0.135294
-0.145633
-0.160995
-0.17129
-0.176493
-0.181561
-0.176516
-0.181312
-0.181041
-0.190701
-0.195385
-0.200113
-0.194887
-0.189683
-0.189457
-0.189163
-0.183801
-0.178462
-0.173167
-0.157873
-0.152602
-0.147353
-0.122172
-0.0520362
0.0430317
0.158032
0.308009
0.482986
0.677941
0.877873
1.09781
1.26771
1.41262
1.47258
1.47756
1.42756
1.35256
1.24258
1.11762
0.997738
0.882896
0.788077
0.678303
0.573484
0.44362
0.323778
0.218959
0.12914
0.049276
-0.0155882
-0.0854525
-0.130317
-0.165204
-0.175113
-0.190045
-0.200023
-0.2
-0.21
-0.210091
-0.215249
-0.210543
-0.205928
-0.186403
-0.151968
-0.122602
-0.0933032
-0.0640724
-0.0398869
-0.0207466
-0.00660634
0.00748869
0.0315837
0.055724
0.0749095
0.0691403
0.0584389
0.0377602
0.0120588
-0.00857466
-0.0191629
-0.0296833
-0.040181
-0.0506335
-0.0660181
-0.0813349
-0.0915837
-0.101765
-0.111855
-0.116878
-0.121855
-0.131742
-0.141538
-0.15129
-0.156086
-0.156063
-0.151244
-0.161584
-0.166968
-0.167308
-0.172624
-0.172896
-0.1731
-0.173235
-0.168348
-0.158552
-0.143801
-0.134186
-0.114661
-0.0952036
-0.0758145
-0.061448
-0.0521267
-0.0477828
-0.0484842
-0.0341855
-0.0248869
-0.0155882
-0.00622173
-0.00185522
-0.00746607
-0.00805431
-0.00859729
-0.0141177
-0.0195475
-0.0298869
-0.040181
-0.0504073
-0.0555656
-0.0656788
-0.080724
-0.0906335
-0.100475
-0.105294
-0.11
-0.114457
-0.113575
-0.122308
-0.130475
-0.132964
-0.134638
-0.13552
-0.140543
-0.139955
-0.143778
-0.147353
-0.145882
-0.13957
-0.133552
-0.132964
-0.137919
-0.143394
-0.144389
-0.145792
-0.132647
-0.114955
-0.097828
-0.0712217
-0.0350905
0.0106788
0.0511086
0.0812896
0.0961765
0.105928
0.100611
0.0953394
0.0900453
0.0847285
0.0794344
0.0841177
0.0838236
0.0835294
0.0782579
0.0780317
0.0778959
0.0729186
0.0680317
0.0632806
0.0586199
0.0540272
0.0444796
0.0449548
0.0404751
0.0310181
0.0216063
0.0071267
-0.00755655
-0.0125339
-0.0177828
-0.0332353
-0.0388009
-0.0544344
-0.0600905
-0.0657466
-0.0814027
-0.0971041
-0.112873
-0.128643
-0.139457
-0.145271
-0.131086
-0.1169
-0.0927376
-0.0635973
-0.014457
0.0496833
0.113914
0.148235
0.162579
0.151923
0.141357
0.125814
0.110317
0.0998643
0.0894796
0.0891855
0.0790045
0.0789367
0.0789367
0.0740724
0.0693213
0.0646833
0.0651358
0.0506335
0.0461086
0.0364932
0.0318326
0.0270588
0.0171493
0.0121267
0.00701358
-0.00812217
-0.0232353
-0.0333258
-0.0485294
-0.0639593
-0.0747059
-0.0909276
-0.10276
-0.110362
-0.123801
-0.143258
-0.158484
-0.164457
-0.170814
-0.162217
-0.148507
-0.124502
-0.105317
-0.0857014
-0.075724
-0.0553394
-0.0295701
0.00160633
0.0132353
0.0152489
0.00771493
-0.00947964
-0.0213348
-0.0379186
-0.0442081
-0.0502489
-0.0511086
-0.0568326
-0.0675339
-0.0731901
-0.0788235
-0.084457
-0.0850453
-0.095543
-0.100882
-0.111086
-0.116154
-0.131154
-0.151063
-0.17095
-0.180792
-0.185633
-0.190498
-0.195339
-0.200158
-0.204955
-0.204751
-0.209548
-0.209321
-0.20905
-0.198756
-0.198484
-0.18819
-0.177896
-0.167602
-0.157308
-0.151991
-0.131674
-0.11638
-0.0811086
-0.0408823
0.0142987
0.0545023
0.0747059
0.0798643
0.085
0.0800679
0.0701131
0.0601584
0.0551358
0.0550453
0.0448417
0.044457
0.0338688
0.0280996
0.0222851
0.0164932
0.0107692
0.000181004
-0.00518099
-0.0252489
-0.0400452
-0.0546606
-0.0591403
-0.0785747
-0.0880317
-0.0975339
-0.107104
-0.121674
-0.136267
-0.150837
-0.160407
-0.164932
-0.174434
-0.178914
-0.183371
-0.187828
-0.187262
-0.176742
-0.156244
-0.130769
-0.0952941
-0.054819
-0.0193891
0.00604073
0.00644796
0.00178733
-0.00294118
0.0173077
0.0624887
0.122602
0.21767
0.342647
0.507557
0.682421
0.892149
1.0517
1.20602
1.28518
1.28921
1.25819
1.19222
1.14136
1.03559
0.949932
0.854344
0.763869
0.663597
0.558507
0.463507
0.353597
0.273778
0.198937
0.139118
0.0693213
0.00457015
-0.0451357
-0.0797964
-0.0894118
-0.0890271
-0.0786199
-0.0632127
-0.0477828
-0.0323303
-0.0219005
-0.0114932
-0.011086
-0.0106787
-0.0203167
-0.0300679
-0.0448643
-0.0496833
-0.0495249
-0.0593665
-0.0592308
-0.0641177
-0.0640724
-0.0690498
-0.0741177
-0.0843213
-0.0947059
-0.0952489
-0.105928
-0.111674
-0.117443
-0.12819
-0.133846
-0.139412
-0.144819
-0.150136
-0.155294
-0.160271
-0.17
-0.174525
-0.178959
-0.178326
-0.17767
-0.176991
-0.181312
-0.180588
-0.179819
-0.169005
-0.14319
-0.10733
-0.071448
-0.0455656
-0.0346607
-0.0237331
-0.0227828
-0.0218326
-0.020905
-0.0150226
-0.0192082
-0.0334389
-0.0527149
-0.0570815
-0.0614932
-0.0609729
-0.0705204
-0.0751584
-0.0798869
-0.0896833
-0.0995249
-0.104434
-0.114434
-0.124548
-0.129819
-0.135249
-0.140814
-0.141425
-0.147081
-0.152692
-0.158213
-0.158552
-0.163778
-0.163869
-0.163914
-0.163914
-0.168914
-0.168891
-0.168846
-0.168846
-0.163846
-0.158937
-0.15405
-0.134276
-0.10948
-0.0697737
-0.0350452
-0.00520362
0.0195249
0.029276
0.033914
0.0387104
0.0385294
0.0384615
0.038552
0.0236652
0.0188235
0.0138688
-0.00106335
-0.0260181
-0.0358371
-0.050543
-0.0701584
-0.0847285
-0.0993439
-0.108982
-0.123688
-0.133416
-0.14319
-0.147941
-0.157647
-0.162308
-0.166923
-0.166516
-0.176131
-0.180814
-0.185498
-0.180204
-0.18991
-0.194638
-0.194344
-0.199005
-0.198688
-0.198348
-0.188009
-0.182647
-0.167262
-0.136855
-0.0964253
-0.0509728
-0.0204525
0.00509051
0.0206787
0.0263122
0.0169457
0.00262445
-0.0116742
-0.0159728
-0.0152262
-0.0145023
-0.0137783
-0.0181222
-0.0174887
-0.0269231
-0.0264027
-0.035905
-0.0454525
-0.0650452
-0.0796606
-0.0892534
-0.0987783
-0.10819
-0.122421
-0.126471
-0.135362
-0.144163
-0.152873
-0.161561
-0.160181
-0.168801
-0.167398
-0.170973
-0.164615
-0.163303
-0.161991
-0.155634
-0.149253
-0.142896
-0.136516
-0.135158
-0.133801
-0.122489
-0.111154
-0.0898643
-0.0586199
-0.0273756
0.00382352
0.0249774
0.0561086
0.0721946
0.0881448
0.0889593
0.0996154
0.0951584
0.0855882
0.0709276
0.0661538
0.0812443
0.121244
0.191176
0.286063
0.430995
0.601018
0.801131
1.0064
1.18681
1.33744
1.39326
1.42423
1.39038
1.35158
1.26783
1.1591
1.05036
0.921674
0.828032
0.719412
0.64086
0.54233
0.438801
0.330181
0.231561
0.152873
0.0741176
0.0202941
-0.023552
-0.0424661
-0.046448
-0.0354751
-0.0296154
-0.0238462
-0.0183032
-0.0129412
-0.00778282
0.00726243
0.0221493
0.0219005
0.0165385
0.00613122
-0.00436652
-0.0149095
-0.0254525
-0.0309955
-0.0364932
-0.041991
-0.0474434
-0.0578733
-0.0682127
-0.0833937
-0.0984163
-0.113213
-0.127873
-0.142398
-0.156833
-0.166199
-0.180611
-0.190091
-0.194661
-0.209321
-0.20905
-0.213801
-0.208507
-0.208213
-0.197919
-0.187692
-0.182579
-0.17267
-0.167919
-0.163235
-0.168394
-0.173235
-0.172579
-0.176471
-0.180136
-0.188846
-0.19776
-0.207081
-0.211833
-0.227014
-0.227511
-0.228439
-0.239661
-0.241041
-0.252285
-0.258235
-0.273959
-0.279525
-0.285045
-0.295498
-0.295905
-0.30629
-0.306674
-0.316991
-0.317217
-0.31733
-0.322262
-0.317036
-0.311629
-0.306109
-0.30043
-0.274661
-0.248824
-0.212986
-0.192104
-0.166244
-0.145385
-0.119593
-0.0938462
-0.0730996
-0.057172
-0.0459729
-0.0493891
-0.0621946
-0.0742987
-0.0856109
-0.0861538
-0.0910181
-0.0903394
-0.0895023
-0.0985747
-0.0928054
-0.0922172
-0.0870362
-0.0824434
-0.0883936
-0.0949547
-0.111946
-0.129412
-0.137262
-0.150543
-0.154321
-0.163597
-0.163326
-0.168394
-0.168823
-0.179502
-0.175362
-0.176312
-0.177262
-0.163145
-0.149005
-0.109842
-0.0756787
-0.0364932
-0.0123303
0.0118778
0.0361086
0.0553394
0.0695475
0.0787557
0.0829412
0.0821041
0.0762217
0.0653394
0.064457
0.0635294
0.0625339
0.0564253
0.0502262
0.0538688
0.0473077
0.0455656
0.0386425
0.0316516
0.0195927
0.0175792
0.0156108
0.0187782
0.0321267
0.0455656
0.0491629
0.0378506
0.0316515
0.0305203
0.0345022
0.0586199
0.0928506
0.117217
0.111674
0.061199
-0.0192082
-0.139593
-0.249932
-0.315249
-0.31052
-0.275815
-0.196131
-0.111448
-0.0267421
0.0429864
0.12776
0.192579
0.222398
0.197285
0.132172
0.0820814
0.0519683
0.0468552
0.0367647
0.0316289
0.0265158
0.0263801
0.0213122
0.011267
0.00624432
-0.00377829
-0.00891402
-0.0191629
-0.024638
-0.0302715
-0.0360633
-0.0369231
-0.0378281
-0.0386652
-0.039457
-0.050181
-0.0508145
-0.0463348
-0.0317195
-0.0319683
-0.0221041
-0.0121493
-0.00214931
0.0128281
0.0377602
0.0726697
0.102602
0.132511
0.152421
0.16233
0.162172
0.161991
0.16681
0.186606
0.196425
0.201222
0.201018
0.195747
0.200385
0.195
0.199548
0.199118
0.198665
0.193258
0.192828
0.192398
0.186923
0.186471
0.181018
0.175566
0.175181
0.174864
0.179706
0.179661
0.189729
0.194864
0.205045
0.205317
0.205611
0.19595
0.191267
0.186561
0.186833
0.182059
0.177217
0.182398
0.192624
0.207896
0.218077
0.238054
0.26776
0.292036
0.315724
0.313665
0.310701
0.286719
0.256923
0.211516
0.160814
0.120136
0.0795701
0.0492534
0.0241176
0.00443439
-0.014819
-0.0385747
-0.06181
-0.0844796
-0.101584
-0.113303
-0.134774
-0.146199
-0.15776
-0.16948
-0.186154
-0.192466
-0.198326
-0.208665
-0.218529
-0.237986
-0.247127
-0.255882
-0.264367
-0.277738
-0.286312
-0.295294
-0.304638
-0.309231
-0.318937
-0.318733
-0.32362
-0.328575
-0.343575
-0.358597
-0.363665
-0.363756
-0.343891
-0.314072
-0.259231
-0.219367
-0.179502
-0.139638
-0.104796
-0.085
-0.0752262
-0.0654072
-0.065543
-0.0655656
-0.0704525
-0.080181
-0.0898416
-0.0994344
-0.113959
-0.123416
-0.127738
-0.1369
-0.145882
-0.149661
-0.153258
-0.156742
-0.155181
-0.148597
-0.152036
-0.14543
-0.14871
-0.151923
-0.160091
-0.163235
-0.16138
-0.16448
-0.162579
-0.170679
-0.173824
-0.181991
-0.180226
-0.178507
-0.176878
-0.175362
-0.173959
-0.172692
-0.171538
-0.170475
-0.164434
-0.153348
-0.137217
-0.126018
-0.109796
-0.103575
-0.0874661
-0.0815158
-0.0657014
-0.055
-0.0493439
-0.0436425
-0.0378959
-0.0420588
-0.0511312
-0.0601131
-0.0439593
-0.00271494
0.0636652
0.155226
0.286923
0.448756
0.645588
0.862421
1.04419
1.18084
1.25231
1.26362
1.25477
1.20579
1.15667
1.05251
0.958281
0.853959
0.764525
0.674955
0.575294
0.48552
0.380656
0.290566
0.200272
0.124819
0.0492534
-0.0264253
-0.0921267
-0.127828
-0.148552
-0.154253
-0.155023
-0.155792
-0.151629
-0.147534
-0.128507
-0.10448
-0.0754299
-0.0513575
-0.0322624
-0.0231674
-0.00900452
0.000203632
0.00947965
0.00875567
0.00800907
0.00726245
0.0065611
0.0109729
-0.004457
-0.0146154
-0.0195701
-0.0243439
-0.0189366
-0.00837103
-0.00273755
-0.0120588
-0.0313348
-0.0556109
-0.0798869
-0.0992081
-0.11362
-0.118145
-0.122828
-0.127715
-0.142828
-0.153077
-0.158484
-0.173982
-0.184548
-0.190158
-0.190792
-0.196448
-0.192036
-0.197624
-0.203145
-0.20871
-0.214299
-0.219887
-0.225407
-0.230882
-0.236335
-0.231742
-0.222149
-0.217557
-0.207941
-0.198258
-0.178484
-0.158665
-0.133756
-0.108801
-0.0888235
-0.0688235
-0.0638461
-0.0688235
-0.0787783
-0.0836652
-0.0835068
-0.0733032
-0.0480769
-0.0128281
0.00742081
0.0276923
0.033009
0.0233032
0.00850679
-0.0164253
-0.0315611
-0.0418778
-0.0573756
-0.0678959
-0.0783032
-0.0884163
-0.0930995
-0.097172
-0.0954751
-0.0928733
-0.0942987
-0.0899095
-0.0849095
-0.0895928
-0.0841855
-0.083733
-0.0734389
-0.0783258
-0.0736199
-0.064276
-0.0553394
-0.0417421
-0.0384615
-0.0255882
-0.0130543
0.0190272
0.0557466
0.0821041
0.0981674
0.108914
0.109321
0.104434
0.0993439
0.0841177
0.0788688
0.0685747
0.073258
0.0779186
0.0775566
0.0672399
0.0519684
0.0367874
0.026629
0.0164028
0.00104076
-0.0144117
-0.0349547
-0.0505656
-0.0612443
-0.0669683
-0.0776923
-0.0834389
-0.0891855
-0.0950226
-0.100905
-0.101833
-0.102805
-0.103756
-0.0996606
-0.100498
-0.101335
-0.102172
-0.103077
-0.0990045
-0.0899321
-0.0758371
-0.0516968
-0.0225113
0.0166969
0.040905
0.0651132
0.0743439
0.0835521
0.0877376
0.0869231
0.0911086
0.0802715
0.0744571
0.0636426
0.0678507
0.0670588
0.0561539
0.0350453
0.0236426
0.0118326
-0.000610828
-0.0138235
-0.0229638
-0.0430995
-0.0640724
-0.0907466
-0.107783
-0.134932
-0.151878
-0.163597
-0.174909
-0.175724
-0.185928
-0.185701
-0.190113
-0.194253
-0.1931
-0.196471
-0.189276
-0.186425
-0.178077
-0.179299
-0.170158
-0.145747
-0.111086
-0.0713348
-0.0414932
-0.0116063
0.00828057
0.0231675
0.0230317
0.0179186
0.0128281
0.00273758
-0.00233031
-0.00239818
-0.00246607
-0.00255655
-0.00262443
-0.0127376
-0.0328507
-0.0479864
-0.0581222
-0.0733484
-0.0886652
-0.104095
-0.119661
-0.140271
-0.150973
-0.166652
-0.172308
-0.182873
-0.193371
-0.203824
-0.209276
-0.209729
-0.210204
-0.200701
-0.191199
-0.191697
-0.182149
-0.177579
-0.167919
-0.15819
-0.148416
-0.133643
-0.123891
-0.104163
-0.0694344
-0.0297059
0.00500001
0.0346606
0.059276
0.0738462
0.0834163
0.0830091
0.0876018
0.0921946
0.0967873
0.0963801
0.10095
0.105498
0.105
0.104502
0.0939819
0.0834163
0.0627602
0.0520136
0.0311312
0.0101358
-0.0108823
-0.0269457
-0.0429185
-0.0538009
-0.0695023
-0.0801357
-0.0906787
-0.101199
-0.106719
-0.112195
-0.11267
-0.1131
-0.113529
-0.118914
-0.129299
-0.134661
-0.114977
-0.0752941
-0.0156561
0.0689819
0.203643
0.378303
0.592964
0.81767
1.01235
1.17699
1.27658
1.32118
1.3007
1.2752
1.20473
1.11425
0.983824
0.883348
0.792896
0.727443
0.662036
0.566629
0.466154
0.355633
0.264977
0.189208
0.113348
0.0423982
-0.0285294
-0.0743439
-0.110023
-0.130588
-0.146063
-0.156516
-0.161946
-0.177398
-0.187851
-0.193281
-0.198665
-0.199005
-0.204253
-0.199457
-0.204615
-0.204706
-0.204774
-0.204887
-0.200023
-0.190158
-0.170294
-0.140453
-0.105611
-0.0858145
-0.0660181
-0.0612217
-0.056448
-0.0466742
-0.0269231
-0.0122172
0.0024208
0.0120362
0.0166516
0.0162443
0.0108371
-0.00457016
-0.0200227
-0.0354978
-0.0510408
-0.0616516
-0.0723077
-0.0830091
-0.0937331
-0.104525
-0.115317
-0.126018
-0.136584
-0.141991
-0.152285
-0.157443
-0.167534
-0.177511
-0.187421
-0.192217
-0.196901
-0.201493
-0.201018
-0.195475
-0.184842
-0.184163
-0.173416
-0.16267
-0.141923
-0.121199
-0.0904751
-0.0597738
-0.0441403
-0.0185747
-0.0130543
-0.00260183
-0.00217197
0.0081674
0.0134615
0.0187104
0.0288688
0.0239819
0.0240271
0.0190045
0.00889137
-0.0063575
-0.0167421
-0.0172851
-0.0280091
-0.0387557
-0.0494571
-0.0599774
-0.0752037
-0.0848417
-0.0937104
-0.106584
-0.113371
-0.114208
-0.119186
-0.123552
-0.122534
-0.121471
-0.125475
-0.124887
-0.12491
-0.115792
-0.112602
-0.110407
-0.119321
-0.114321
-0.100543
-0.0828054
-0.0508597
-0.0194797
-0.00337105
0.0224434
0.03819
0.043914
0.049819
0.0509728
0.0573529
0.0690498
0.0760181
0.0783258
0.070905
0.0588461
0.0370588
0.0204525
-0.000950232
-0.0122172
-0.0233032
-0.0392986
-0.0552489
-0.0661765
-0.0771041
-0.0880091
-0.103914
-0.114819
-0.130701
-0.136471
-0.157149
-0.167647
-0.178032
-0.183303
-0.188484
-0.188507
-0.183394
-0.183145
-0.18276
-0.177262
-0.166674
-0.156041
-0.145407
-0.129774
-0.10914
-0.0835068
-0.0628281
-0.0421493
-0.0214706
0.00418552
0.0248416
0.0404751
0.0511086
0.0517195
0.0573303
0.0529186
0.0535068
0.0390498
0.0245701
0.00506787
-0.014457
-0.0290045
-0.0436425
-0.0533711
-0.0681901
-0.0780543
-0.0929412
-0.102738
-0.112443
-0.126991
-0.136403
-0.150679
-0.154887
-0.159163
-0.163439
-0.16276
-0.167059
-0.161335
-0.16052
-0.159615
-0.148575
-0.142398
-0.131109
-0.114751
-0.0933258
-0.0619005
-0.0354977
-0.00909503
0.0273303
0.053733
0.0851131
0.106471
0.127783
0.134027
0.140226
0.136357
0.122421
0.108371
0.084276
0.0500905
0.0108823
-0.0184163
-0.0278054
-0.00733033
0.0379864
0.0981448
0.20319
0.333167
0.513122
0.688032
0.862986
0.993032
1.05817
1.09344
1.07878
1.0691
1.01448
0.949955
0.865498
0.776154
0.7069
0.62276
0.553756
0.474864
0.401063
0.312308
0.248575
0.204796
0.160973
0.127127
0.0933258
0.0695249
0.0607014
0.0568326
0.0579638
0.0590498
0.0700905
0.091086
0.117014
0.127896
0.128733
0.10948
0.090181
0.0708597
0.0615611
0.0472398
0.0329185
0.0185746
-0.000837128
-0.0204073
-0.0402036
-0.0552036
-0.070362
-0.0856109
-0.100882
-0.116086
-0.136176
-0.146199
-0.156131
-0.16086
-0.170385
-0.174706
-0.183937
-0.188077
-0.192149
-0.196154
-0.200113
-0.199027
-0.202941
-0.206855
-0.205792
-0.204751
-0.188733
-0.167738
-0.141765
-0.120792
-0.114842
-0.123937
-0.133009
-0.147081
-0.156154
-0.155249
-0.139367
-0.108507
-0.0826471
-0.06681
-0.0609955
-0.0652489
-0.0745023
-0.0887783
-0.1131
-0.132398
-0.161697
-0.175995
-0.195272
-0.204548
-0.213801
-0.2231
-0.227466
-0.231833
-0.236199
-0.24052
-0.239796
-0.239005
-0.23819
-0.232353
-0.231516
-0.215701
-0.20991
-0.199163
-0.203552
-0.188054
-0.172647
-0.15224
-0.121697
-0.090905
-0.0597738
-0.0431222
-0.0358371
-0.0327149
-0.0337557
-0.0339367
-0.0285068
-0.0177375
0.0082127
0.0390951
0.0599095
0.0654751
0.065724
0.0555883
0.0450453
0.0341856
0.0229412
0.0113349
-0.000656053
-0.0130543
-0.0259502
-0.034276
-0.0379638
-0.0519909
-0.0713122
-0.0808371
-0.0905203
-0.0952488
-0.104977
-0.104683
-0.104366
-0.108959
-0.103439
-0.107805
-0.102127
-0.101471
-0.100905
-0.105407
-0.114955
-0.114502
-0.114072
-0.103665
-0.0882805
-0.0529185
0.00242086
0.0577376
0.103054
0.133371
0.153665
0.158937
0.159163
0.164344
0.164525
0.139661
0.119819
0.0949321
0.0900227
0.0800905
0.0651358
0.0551811
0.0402263
0.0302715
0.015362
0.000497758
-0.0143891
-0.0293891
-0.0396153
-0.0501131
-0.0560181
-0.0725113
-0.0797285
-0.0879638
-0.107195
-0.122466
-0.143461
-0.155023
-0.171742
-0.178371
-0.189796
-0.195882
-0.196674
-0.192014
-0.191991
-0.191561
-0.185769
-0.184638
-0.183054
-0.176086
-0.168688
-0.150995
-0.127919
-0.0945249
-0.0558597
-0.0219231
0.0022172
0.021448
0.030724
0.0350453
0.0344344
0.0338688
0.0284163
0.0179864
0.00766969
-0.00755655
-0.0127149
-0.0278507
-0.0378959
-0.0478281
-0.0576471
-0.0672624
-0.0817195
-0.0910181
-0.100204
-0.104321
-0.113371
-0.127398
-0.131357
-0.140271
-0.144118
-0.142873
-0.136538
-0.135317
-0.129321
-0.128552
-0.127986
-0.127647
-0.127511
-0.117534
-0.11267
-0.0978507
-0.0780996
-0.0484163
-0.0137557
0.015905
0.0454977
0.055
0.064457
0.063914
0.058371
0.0528507
0.0473982
0.0369909
0.0316063
0.0312669
0.0309502
0.0357466
0.0356108
0.0304977
0.0204298
0.010362
0.000339329
-0.00968328
-0.019638
-0.0345249
-0.0492534
-0.0637104
-0.077896
-0.09181
-0.100588
-0.109253
-0.112896
-0.121584
-0.130317
-0.129118
-0.1381
-0.137262
-0.136606
-0.141086
-0.140701
-0.145475
-0.150362
-0.155339
-0.165339
-0.180362
-0.18043
-0.155543
-0.105747
-0.0309955
0.0787104
0.233416
0.413054
0.64267
0.852308
1.07195
1.21658
1.3312
1.36584
1.36048
1.34516
1.29484
1.24455
1.1493
1.0641
0.963891
0.86871
0.768575
0.648439
0.533326
0.423235
0.33819
0.243213
0.163348
0.0936199
0.0290045
-0.0204977
-0.0450226
-0.059638
-0.0694344
-0.0844118
-0.0945928
-0.114955
-0.12043
-0.130995
-0.146629
-0.152353
-0.163054
-0.168733
-0.179367
-0.184955
-0.20052
-0.206063
-0.211652
-0.222262
-0.232896
-0.248529
-0.259186
-0.279864
-0.29052
-0.301199
-0.301855
-0.297511
-0.2581
-0.20862
-0.164072
-0.13448
-0.0998416
-0.070181
-0.0504978
-0.0407693
-0.0459955
-0.0461765
-0.046267
-0.0512217
-0.0560181
-0.0556787
-0.055181
-0.0546606
-0.0641403
-0.0686878
-0.0833937
-0.0983032
-0.108462
-0.118891
-0.124525
-0.135317
-0.156222
-0.172104
-0.178009
-0.193959
-0.204955
-0.215905
-0.216765
-0.222557
-0.223258
-0.223959
-0.229661
-0.235362
-0.251018
-0.251652
-0.257217
-0.257715
-0.248122
-0.233439
-0.218733
-0.204027
-0.184525
-0.170249
-0.14629
-0.127896
-0.110113
-0.0982127
-0.0971719
-0.107014
-0.122466
-0.133348
-0.144389
-0.145317
-0.151018
-0.156199
-0.165633
-0.168937
-0.171018
-0.181652
-0.196041
-0.204208
-0.211516
-0.218122
-0.224367
-0.230543
-0.231652
-0.232851
-0.23405
-0.230407
-0.221946
-0.218801
-0.216018
-0.208575
-0.206584
-0.2
-0.198824
-0.192941
-0.192376
-0.187059
-0.171968
-0.162104
-0.132353
-0.0925792
-0.0427602
0.00210407
0.0469683
0.0868326
0.106652
0.116493
0.121335
0.126176
0.116063
0.0959276
0.0757919
0.0556335
0.0404525
0.0252036
0.0199548
0.0147059
0.00941177
0.0040724
-0.00131222
-0.0117195
-0.0221946
-0.0276923
-0.0382353
-0.0387783
-0.0492986
-0.0646606
-0.0747964
-0.0847511
-0.0945928
-0.0993213
-0.103959
-0.103529
-0.1081
-0.102738
-0.102489
-0.102398
-0.102511
-0.102738
-0.108032
-0.103371
-0.093733
-0.079095
-0.0494344
-0.0097964
0.0399321
0.0897737
0.129706
0.164774
0.189887
0.19
0.195068
0.200158
0.200226
0.180294
0.150385
0.125498
0.0956335
0.0807918
0.0659955
0.0511765
0.0263575
0.00647059
-0.0184389
-0.0433711
-0.0683258
-0.0982353
-0.1131
-0.112873
-0.0775792
-0.027172
0.0433031
0.163869
0.299525
0.490249
0.676041
0.86681
0.992534
1.07319
1.1088
1.10934
1.10989
1.07041
1.01591
0.921358
0.831765
0.742149
0.677466
0.627715
0.582941
0.543122
0.498258
0.478326
0.448348
0.418348
0.368326
0.308281
0.263235
0.23319
0.218145
0.1931
0.173077
0.148077
0.128122
0.108235
0.0834615
0.0587557
0.0391855
0.0247964
0.000588257
-0.0283258
-0.0519457
-0.0703167
-0.0835294
-0.0916289
-0.0997285
-0.107964
-0.116403
-0.130045
-0.143914
-0.148032
-0.152443
-0.157149
-0.157081
-0.157195
-0.162466
-0.167805
-0.168122
-0.168462
-0.173801
-0.179186
-0.184615
-0.190113
-0.190656
-0.191244
-0.191855
-0.187511
-0.188258
-0.18405
-0.179887
-0.170769
-0.161674
-0.157579
-0.148439
-0.139299
-0.115113
-0.080905
-0.0416516
-0.0223756
-0.00805429
0.00128961
0.00572398
-0.00475112
-0.0150679
-0.0251357
-0.0599774
-0.0945928
-0.124095
-0.15862
-0.178326
-0.198439
-0.204208
-0.215814
-0.228281
-0.241516
-0.260339
-0.269638
-0.284186
-0.294004
-0.308937
-0.313869
-0.323778
-0.328575
-0.328258
-0.332738
-0.332036
-0.336063
-0.334864
-0.343326
-0.346335
-0.353801
-0.355633
-0.351787
-0.352036
-0.346357
-0.344593
-0.331855
-0.32319
-0.313869
-0.30414
-0.289163
-0.27914
-0.26905
-0.25905
-0.249253
-0.234796
-0.225679
-0.216878
-0.213281
-0.214796
-0.211425
-0.208167
-0.200023
-0.1969
-0.193869
-0.191018
-0.188529
-0.186448
-0.179706
-0.17819
-0.176833
-0.175656
-0.179638
-0.183778
-0.198054
-0.217443
-0.231946
-0.256561
-0.281244
-0.310973
-0.345769
-0.370656
-0.375611
-0.365588
-0.345611
-0.305611
-0.255611
-0.200633
-0.150656
-0.095724
-0.0508371
-0.00590497
0.0390498
0.0690045
0.0940045
0.11405
0.124118
0.114208
0.114367
0.10957
0.114819
0.115113
0.12043
0.125747
0.126109
0.131471
0.131855
0.13724
0.137579
0.137873
0.138145
0.138416
0.133688
0.123891
0.11905
0.11414
0.109276
0.0995249
0.0948869
0.0852941
0.075724
0.0611764
0.0516289
0.0320362
0.00744341
-0.00217197
-0.00192309
0.02319
0.0682127
0.143077
0.257896
0.402647
0.592398
0.787127
0.95681
1.06649
1.14111
1.17077
1.20041
1.21007
1.19473
1.17443
1.12416
1.07889
1.00871
0.943552
0.858484
0.778439
0.688416
0.588371
0.503303
0.413213
0.333032
0.252805
0.182466
0.132014
0.101448
0.0857919
0.0650679
0.0542986
0.0335294
0.0227602
0.00696832
-0.0138688
-0.0247059
-0.0455204
-0.061267
-0.0819683
-0.102624
-0.128258
-0.148891
-0.164502
-0.18509
-0.200611
-0.211109
-0.201584
-0.172059
-0.142511
-0.112986
-0.0934389
-0.073914
-0.0593665
-0.044819
-0.0352941
-0.0258371
-0.0214706
-0.0221946
-0.0230091
-0.0290045
-0.0351584
-0.0465385
-0.0581222
-0.0698869
-0.0866742
-0.0934163
-0.110045
-0.121403
-0.127511
-0.138348
-0.143959
-0.149344
-0.164502
-0.174434
-0.179118
-0.188643
-0.198054
-0.207376
-0.216697
-0.231109
-0.240566
-0.255068
-0.269525
-0.278914
-0.283213
-0.292466
-0.29181
-0.296357
-0.291222
-0.281561
-0.267602
-0.259457
-0.252308
-0.246063
-0.230611
-0.215724
-0.196018
-0.18638
-0.181629
-0.17181
-0.166674
-0.161154
-0.160249
-0.158982
-0.162466
-0.175634
-0.18362
-0.19129
-0.198688
-0.210701
-0.212308
-0.223416
-0.228801
-0.233416
-0.237014
-0.234638
-0.241448
-0.237715
-0.248597
-0.249231
-0.254615
-0.259774
-0.264864
-0.269887
-0.265045
-0.275294
-0.275769
-0.286425
-0.287398
-0.283665
-0.280294
-0.272308
-0.269638
-0.24733
-0.230339
-0.203643
-0.172217
-0.145973
-0.114819
-0.0937104
-0.077647
-0.0716063
-0.0606108
-0.0496154
-0.0336652
-0.0278054
-0.0269909
-0.0312217
-0.035543
-0.0399321
-0.044457
-0.0491176
-0.0538688
-0.0587104
-0.0686652
-0.0738009
-0.079095
-0.079457
-0.0848416
-0.0802489
-0.0807014
-0.0762217
-0.0817421
-0.0822624
-0.0826923
-0.0730091
-0.06819
-0.0682805
-0.0633032
-0.0482579
-0.0381901
-0.0180769
-0.00794117
0.00723982
0.00748868
0.00776018
0.00309953
-0.0165158
-0.0210634
-0.0255204
-0.0249548
-0.0193439
-0.023733
-0.0281674
-0.0376697
-0.0421946
-0.0417421
-0.0413122
-0.0308824
-0.0204977
-0.0101584
-0.00486426
-0.00963802
-0.0244796
-0.0393439
-0.0441629
-0.0240272
0.026086
0.0961312
0.206176
0.361222
0.541335
0.761448
0.961561
1.13165
1.2467
1.28165
1.29149
1.26111
1.23545
1.15966
1.06376
0.967851
0.872014
0.806267
0.715588
0.649932
0.569367
0.508914
0.44862
0.403462
0.368416
0.323439
0.298552
0.263778
0.24405
0.234412
0.224796
0.215249
0.190679
0.166109
0.126538
0.0969231
0.0622851
0.0426018
0.0179412
-0.00174208
-0.0264706
-0.041267
-0.056086
-0.0658597
-0.0806109
-0.0953168
-0.105023
-0.114638
-0.129208
-0.138733
-0.148145
-0.157511
-0.16181
-0.171131
-0.175543
-0.185181
-0.195023
-0.200068
-0.200249
-0.200543
-0.210995
-0.206629
-0.21233
-0.203009
-0.198643
-0.199208
-0.194751
-0.190294
-0.165814
-0.141267
-0.116606
-0.0817647
-0.0467647
-0.00662896
0.0285747
0.0488688
0.0641855
0.0595701
0.0449774
0.0254751
0.0110407
-0.0033484
-0.0176244
-0.0268099
-0.0409728
-0.0552036
-0.0746606
-0.099457
-0.119796
-0.140928
-0.167941
-0.196154
-0.225317
-0.245362
-0.26595
-0.276787
-0.287828
-0.288982
-0.295294
-0.306538
-0.317647
-0.333439
-0.338869
-0.348959
-0.353688
-0.3581
-0.362014
-0.37052
-0.388552
-0.391199
-0.388326
-0.379774
-0.375498
-0.365339
-0.364253
-0.352172
-0.338959
-0.319706
-0.284548
-0.238778
-0.182783
-0.111652
-0.0355656
0.0154977
0.0563122
0.0717873
0.0668778
0.0566063
0.046086
0.0351584
0.0139593
-0.0125792
-0.0493665
-0.0864706
-0.108778
-0.131267
-0.153982
-0.1819
-0.195091
-0.213507
-0.227127
-0.24095
-0.249955
-0.254163
-0.26362
-0.263394
-0.268462
-0.268688
-0.273914
-0.284118
-0.279321
-0.279548
-0.279774
-0.290023
-0.295249
-0.300498
-0.300747
-0.300973
-0.296154
-0.28129
-0.27638
-0.261425
-0.246403
-0.221357
-0.186312
-0.131244
-0.0761765
-0.0211086
0.0239819
0.054095
0.0892308
0.124321
0.134434
0.124547
0.109706
0.0898868
0.0800452
0.0752488
0.0604525
0.0407239
0.0110633
-0.0285521
-0.068077
-0.0926018
-0.107104
-0.121652
-0.13129
-0.145996
-0.150837
-0.16086
-0.171018
-0.181267
-0.201561
-0.206878
-0.202195
-0.167466
-0.107715
-0.0179638
0.101742
0.276425
0.466109
0.710792
0.915452
1.10514
1.22484
1.28457
1.32432
1.34412
1.36896
1.34885
1.31876
1.24869
1.1786
1.11355
1.04351
0.978484
0.863507
0.758529
0.638552
0.548529
0.453529
0.353529
0.263529
0.178529
0.128529
0.0884842
0.0584389
0.0283484
-0.00185519
-0.0221041
-0.0373756
-0.0576018
-0.0777149
-0.0976923
-0.117624
-0.137534
-0.147376
-0.162195
-0.171991
-0.171787
-0.176606
-0.181471
-0.18638
-0.176357
-0.17638
-0.171357
-0.166357
-0.146357
-0.121403
-0.0914479
-0.0565384
-0.0216516
0.00819007
0.0280091
0.0578281
0.0876244
0.122443
0.12224
0.101991
0.0717421
0.051448
0.0311991
0.0159502
0.00570133
-0.00957016
-0.0198417
-0.0350905
-0.050362
-0.0706335
-0.0959503
-0.116267
-0.136652
-0.162059
-0.172489
-0.182919
-0.193303
-0.20362
-0.213914
-0.224253
-0.229661
-0.235204
-0.235679
-0.23595
-0.241018
-0.241041
-0.240996
-0.235928
-0.240815
-0.235588
-0.225362
-0.215181
-0.200068
-0.185091
-0.150249
-0.115453
-0.0706335
-0.0308372
-0.00106338
0.0236651
0.048371
0.0580316
0.062647
0.0572398
0.0467194
0.0361764
0.0106561
-0.00972856
-0.0297964
-0.0444571
-0.0585747
-0.0769005
-0.0993666
-0.115724
-0.141177
-0.155769
-0.169864
-0.17371
-0.182466
-0.181199
-0.18491
-0.188846
-0.1931
-0.192896
-0.198258
-0.199118
-0.200498
-0.20733
-0.204819
-0.207783
-0.211199
-0.21491
-0.208937
-0.198348
-0.193054
-0.183054
-0.17319
-0.163394
-0.14362
-0.103869
-0.0641403
-0.0193892
0.0204072
0.0601809
0.0999321
0.134638
0.164321
0.159004
0.143733
0.123394
0.107873
0.0970814
0.0809049
0.0591855
0.0317194
-0.00149323
-0.040724
-0.0657693
-0.0965159
-0.122602
-0.143778
-0.159819
-0.175634
-0.186131
-0.196154
-0.205724
-0.214683
-0.223167
-0.226109
-0.218756
-0.226176
-0.228371
-0.235339
-0.237127
-0.238801
-0.245339
-0.251833
-0.263303
-0.259819
-0.261425
-0.248009
-0.234593
-0.216086
-0.197511
-0.178891
-0.155136
-0.131267
-0.0922851
-0.0432353
0.0208597
0.0800226
0.139299
0.158688
0.148145
0.112715
0.0923529
0.0620588
0.0368099
0.0166063
-0.0135521
-0.0286652
-0.0387104
-0.0537105
-0.0636426
-0.0734842
-0.0881675
-0.107692
-0.116991
-0.121086
-0.125023
-0.123801
-0.122466
-0.121063
-0.124615
-0.118167
-0.116719
-0.115317
-0.109005
-0.117783
-0.116629
-0.115566
-0.114593
-0.113756
-0.113032
-0.107398
-0.106923
-0.0965158
-0.0912443
-0.0710181
-0.0558823
-0.0358145
-0.00581448
0.0341176
0.0840498
0.138937
0.183756
0.228484
0.263122
0.292624
0.292059
0.271403
0.245633
0.219751
0.203756
0.177715
0.156584
0.135498
0.109457
0.0835068
0.0576923
0.0320814
0.00667419
-0.0184842
-0.0334389
-0.0482127
-0.0577828
-0.0721946
-0.091448
-0.110724
-0.110091
-0.0795023
-0.0189593
0.0615837
0.177081
0.337534
0.512919
0.73819
0.923348
1.08342
1.17842
1.22335
1.22324
1.2081
1.17294
1.09781
1.01767
0.912579
0.837489
0.752443
0.687398
0.617421
0.537443
0.467489
0.407534
0.367579
0.327647
0.302715
0.287783
0.282851
0.287964
0.263122
0.238416
0.198846
0.164434
0.130136
0.0908824
0.056629
0.022353
-0.00187781
-0.0209954
-0.0449774
-0.0738235
-0.102579
-0.116403
-0.140475
-0.159864
-0.174434
-0.184163
-0.189005
-0.203937
-0.209005
-0.21414
-0.214321
-0.21457
-0.219842
-0.220158
-0.22052
-0.22595
-0.231425
-0.2369
-0.247398
-0.247828
-0.253213
-0.258552
-0.263869
-0.274095
-0.274276
-0.279412
-0.27948
-0.284525
-0.279525
-0.27448
-0.264344
-0.264118
-0.263824
-0.258439
-0.262986
-0.252376
-0.251674
-0.24586
-0.234977
-0.229095
-0.22319
-0.232217
-0.226086
-0.219819
-0.203552
-0.187353
-0.166267
-0.150158
-0.134072
-0.113054
-0.0921267
-0.0612669
-0.0404751
-0.0148416
-0.0142986
-0.0138461
-0.0235068
-0.0332805
-0.0381674
-0.0431448
-0.0532126
-0.058371
-0.058552
-0.0638009
-0.0640724
-0.0693665
-0.0697285
-0.0651583
-0.0755203
-0.0806561
-0.0904525
-0.094819
-0.10371
-0.112081
-0.114932
-0.122195
-0.119208
-0.12629
-0.128801
-0.132104
-0.136176
-0.140882
-0.151018
-0.156584
-0.172511
-0.178937
-0.195679
-0.197511
-0.204276
-0.210905
-0.217534
-0.224186
-0.225882
-0.232557
-0.23914
-0.245611
-0.256833
-0.262738
-0.273167
-0.288303
-0.303258
-0.318167
-0.323122
-0.313167
-0.288371
-0.258665
-0.22905
-0.204502
-0.17
-0.140566
-0.101199
-0.0669005
-0.0226471
0.0115385
0.0306787
0.034819
0.0339819
0.0332127
0.0324434
0.0317647
0.0311312
0.0305882
0.0251131
0.0246833
0.0193439
0.0140724
0.0138688
0.0087783
0.00875568
-0.00624432
-0.0162217
-0.0262669
-0.0364479
-0.0516968
-0.0620361
-0.0724208
-0.0828733
-0.098371
-0.108937
-0.119593
-0.140339
-0.161222
-0.177217
-0.193258
-0.209253
-0.235249
-0.251154
-0.257059
-0.257919
-0.23871
-0.214434
-0.19009
-0.175769
-0.151357
-0.106878
-0.0473077
0.012353
0.0371267
0.0420136
0.0370136
0.0321267
0.0223756
0.0228054
0.0333484
0.0340272
0.0347738
0.035543
0.0363122
0.0370814
0.0328733
0.0287104
0.0245249
0.0154072
0.0163575
0.0123303
0.00321266
-0.000995483
-0.00529412
-0.0196606
-0.0391629
-0.0537783
-0.0685068
-0.0583258
-0.0132127
0.04681
0.141765
0.271584
0.446222
0.635656
0.854955
1.02419
1.14839
1.20756
1.22663
1.22568
1.22966
1.22362
1.15751
1.07645
0.975407
0.894389
0.828348
0.777285
0.731244
0.670204
0.619186
0.548167
0.472149
0.371177
0.280226
0.214253
0.163235
0.137217
0.12129
0.115498
0.0999321
0.0845928
0.0744118
0.0643213
0.0543213
0.0393891
0.0245928
0.0199095
0.0103846
0.000950227
-0.0134842
-0.0279864
-0.0475792
-0.0621946
-0.0868552
-0.101584
-0.121425
-0.136403
-0.151516
-0.171674
-0.186855
-0.207036
-0.237195
-0.25733
-0.272443
-0.277602
-0.267783
-0.242986
-0.23319
-0.223416
-0.213643
-0.203869
-0.194072
-0.184299
-0.159502
-0.134729
-0.0949774
-0.0702489
-0.0605656
-0.065905
-0.071267
-0.0816516
-0.0820362
-0.0873529
-0.0926471
-0.102873
-0.113054
-0.11819
-0.133303
-0.143371
-0.148326
-0.153122
-0.15776
-0.167398
-0.177149
-0.182036
-0.192036
-0.202172
-0.207398
-0.212715
-0.228145
-0.23362
-0.244118
-0.254593
-0.265045
-0.280475
-0.28586
-0.306222
-0.321606
-0.331968
-0.312308
-0.297692
-0.278077
-0.258484
-0.238937
-0.219457
-0.205023
-0.190633
-0.186154
-0.176425
-0.166403
-0.145905
-0.104751
-0.0677376
-0.0397738
-0.0257692
-0.0209729
-0.0106787
0.00488688
0.0104977
0.016086
0.0216516
0.0271719
0.0223303
0.0170136
0.0111539
0.0148416
0.0181674
0.0161991
0.0139366
0.00626695
0.00323527
-0.00524889
-0.0191855
-0.0335973
-0.0434389
-0.0485294
-0.0638461
-0.0892081
-0.10957
-0.134887
-0.155181
-0.160475
-0.155724
-0.140928
-0.126063
-0.116222
-0.106516
-0.0969683
-0.0827149
-0.063914
-0.045724
-0.0283484
-0.0269457
-0.0214254
-0.0117421
0.00746604
0.0313575
0.0502262
0.0541629
0.0481448
0.0373755
0.0268099
0.0115158
0.00140269
-0.00841631
-0.0179186
-0.0270362
-0.0407014
-0.0540272
-0.0669683
-0.0796833
-0.0971946
-0.109525
-0.126652
-0.133552
-0.150272
-0.166742
-0.1731
-0.184389
-0.195656
-0.216878
-0.233077
-0.254186
-0.260249
-0.256267
-0.242262
-0.228213
-0.219095
-0.204932
-0.185701
-0.161403
-0.137036
-0.112579
-0.0830769
-0.058552
-0.0389593
-0.0193213
0.000361979
0.0300905
0.0549321
0.0647737
0.0695927
0.0643665
0.0590724
0.0487104
0.0332127
0.0226697
0.0169909
0.0111765
0.000271481
-0.000588253
-0.00635748
-0.00705883
-0.0126923
-0.0183032
-0.0239367
-0.029638
-0.0404072
-0.051267
-0.0571267
-0.0679864
-0.0837783
-0.0993892
-0.119819
-0.130113
-0.135317
-0.120475
-0.120588
-0.110588
-0.10552
-0.0954073
-0.0902263
-0.0749774
-0.0497059
-0.0294118
-0.00914027
0.00617647
0.0215611
0.0419683
0.0723982
0.102851
0.133371
0.158891
0.164412
0.169887
0.160317
0.160656
0.14586
0.130882
0.115747
0.0953846
0.0798416
0.0591629
0.0383937
0.0125792
0.00171947
0.0158145
0.0448869
0.0989367
0.187941
0.306946
0.47095
0.664977
0.843959
1.00296
1.09201
1.14118
1.13052
1.1
1.06955
0.99914
0.933756
0.843394
0.783009
0.702692
0.627421
0.552172
0.476968
0.411787
0.336674
0.296606
0.261606
0.231606
0.196652
0.171719
0.156833
0.141991
0.142172
0.137376
0.127489
0.112534
0.0974434
0.0772398
0.0619231
0.0465385
0.0311312
0.0107014
-0.00972851
-0.035181
-0.0606561
-0.0811538
-0.101697
-0.127285
-0.147941
-0.163597
-0.184253
-0.204887
-0.225452
-0.24095
-0.271312
-0.286538
-0.286674
-0.286719
-0.281719
-0.276697
-0.261674
-0.256652
-0.246629
-0.231584
-0.221516
-0.211425
-0.216244
-0.211018
-0.205701
-0.190362
-0.164977
-0.134548
-0.10405
-0.0784841
-0.0678733
-0.0572172
-0.0516063
-0.0511538
-0.0558145
-0.0606108
-0.070543
-0.0805656
-0.0855882
-0.100701
-0.11586
-0.126063
-0.14129
-0.156561
-0.171855
-0.187081
-0.192285
-0.202466
-0.217692
-0.227964
-0.238167
-0.253281
-0.273258
-0.283077
-0.297738
-0.30233
-0.301878
-0.28638
-0.270837
-0.255294
-0.239751
-0.214231
-0.193756
-0.168303
-0.142873
-0.117466
-0.0921267
-0.0717873
-0.0563348
-0.0407013
-0.0147511
0.00669684
0.0287783
0.0467195
0.0655883
0.0752715
0.0856335
0.0914027
0.0873982
0.0882805
0.0888914
0.0840724
0.078552
0.0721719
0.0696606
0.0509502
0.0358597
0.024457
0.00690046
-0.0116063
-0.0407466
-0.065362
-0.0951131
-0.114796
-0.139276
-0.163394
-0.182172
-0.210498
-0.233484
-0.246018
-0.238145
-0.234887
-0.226199
-0.217195
-0.212873
-0.203235
-0.193258
-0.173009
-0.157624
-0.142149
-0.121674
-0.096267
-0.0608824
-0.0255204
0.0148416
0.0452036
0.0706335
0.086086
0.0915611
0.0970814
0.0976471
0.09319
0.0837556
0.0693665
0.0549547
0.0454525
0.0358823
0.0212443
0.0115385
0.00178732
-0.00789593
-0.0226018
-0.0423077
-0.0570815
-0.0769005
-0.0867647
-0.101629
-0.116425
-0.136176
-0.160905
-0.180611
-0.195339
-0.195045
-0.174706
-0.164344
-0.153959
-0.133529
-0.118054
-0.102511
-0.0819231
-0.0613349
-0.0457466
-0.0301584
-0.0145701
0.00601809
0.0166063
0.0321493
0.0477375
0.0733258
0.098914
0.104502
0.115113
0.115724
0.111312
0.101923
0.0925339
0.0882127
0.068914
0.0596606
0.0454299
0.0312217
0.0220814
0.0129638
0.00384616
-0.0102262
-0.0242534
-0.0332353
-0.0421719
-0.051086
-0.06
-0.0739367
-0.0928281
-0.111742
-0.135724
-0.144751
-0.143846
-0.133032
-0.13224
-0.131471
-0.115769
-0.0850905
-0.0193891
0.0663122
0.192014
0.352715
0.558394
0.784027
0.999638
1.18027
1.31591
1.39156
1.42219
1.41283
1.36344
1.28907
1.17473
1.07536
0.961041
0.871697
0.772308
0.677873
0.583439
0.474027
0.389638
0.300272
0.215882
0.126448
0.051991
0.00255656
-0.0368778
-0.0613122
-0.0707014
-0.0850679
-0.0993891
-0.123688
-0.142986
-0.172285
-0.196584
-0.220882
-0.250181
-0.274457
-0.298733
-0.318009
-0.327285
-0.321584
-0.295928
-0.275272
-0.244638
-0.224027
-0.203394
-0.20276
-0.187149
-0.176584
-0.166063
-0.150566
-0.135113
-0.119638
-0.109186
-0.0887104
-0.0632579
-0.0428507
-0.0274208
-0.0219457
-0.0263348
-0.030543
-0.0396606
-0.0537783
-0.0728959
-0.0970362
-0.111176
-0.125271
-0.139367
-0.148484
-0.16267
-0.176878
-0.191109
-0.195407
-0.209842
-0.219389
-0.233959
-0.243507
-0.258054
-0.272557
-0.287014
-0.301448
-0.315882
-0.335317
-0.339729
-0.334208
-0.32371
-0.313235
-0.312805
-0.292353
-0.2719
-0.256425
-0.24095
-0.225498
-0.210023
-0.194547
-0.179005
-0.158462
-0.142896
-0.11733
-0.0817873
-0.0563122
-0.0258145
-0.000226229
0.0104751
0.016267
0.0221267
0.0231222
0.0142987
0.00567875
-0.00262443
-0.0104751
-0.00769229
-0.0140724
-0.0195023
-0.0290498
-0.0378733
-0.0511538
-0.0641855
-0.077172
-0.0903167
-0.103756
-0.122624
-0.132127
-0.152217
-0.167873
-0.173959
-0.170498
-0.157443
-0.154796
-0.147602
-0.140769
-0.129276
-0.108122
-0.0923304
-0.0768552
-0.0615837
-0.046448
-0.0363575
-0.0162896
0.00875565
0.0388009
0.0788009
0.108778
0.13371
0.148597
0.153462
0.153258
0.153032
0.147783
0.137534
0.127353
0.122217
0.112217
0.107195
0.0972172
0.0822625
0.0723304
0.067353
0.0623756
0.052353
0.0422625
0.0321946
0.0171493
0.00710408
-0.0129638
-0.028009
-0.0430317
-0.0680769
-0.0931674
-0.123303
-0.143439
-0.153575
-0.143688
-0.123801
-0.103914
-0.0890724
-0.0792534
-0.059457
-0.0396606
-0.00986421
0.00988692
0.0346154
0.0593213
0.104027
0.14371
0.173371
0.193032
0.197692
0.197353
0.186991
0.176629
0.166267
0.155905
0.145543
0.140249
0.135068
0.124977
0.119932
0.104796
0.0946833
0.0795928
0.0644796
0.0544118
0.0393439
0.0292534
0.00411765
-0.00604072
-0.0261765
-0.0463575
-0.0615611
-0.0717195
-0.0868778
-0.107036
-0.12224
-0.142511
-0.157805
-0.173077
-0.183303
-0.163552
-0.148801
-0.12405
-0.104299
-0.0845249
-0.0697738
-0.0500226
-0.0302941
-0.0155882
0.00404976
0.0235973
0.0481222
0.0625792
0.0819458
0.106222
0.135498
0.144706
0.148891
0.148122
0.142398
0.136787
0.126244
0.120792
0.10543
0.0951358
0.0849321
0.0797511
0.0745928
0.0644344
0.0492081
0.0437783
0.0330543
0.0169231
0.00018099
-0.0172398
-0.0405204
-0.0596833
-0.0846606
-0.105362
-0.131629
-0.158145
-0.184842
-0.216561
-0.228213
-0.23948
-0.220294
-0.205588
-0.19543
-0.184909
-0.178914
-0.167534
-0.150633
-0.128303
-0.12052
-0.112376
-0.098914
-0.0851131
-0.071086
-0.0518778
-0.0276018
-0.0033484
0.0108145
0.00486428
-0.00110858
-0.0170588
-0.0328733
-0.0535294
-0.0690498
-0.0794796
-0.089819
-0.105045
-0.115204
-0.120249
-0.130271
-0.140204
-0.145023
-0.154683
-0.159185
-0.173597
-0.182941
-0.197308
-0.206719
-0.221199
-0.235769
-0.250407
-0.270158
-0.29
-0.309909
-0.319842
-0.319819
-0.299819
-0.28491
-0.270045
-0.250226
-0.24543
-0.230633
-0.21086
-0.186063
-0.166357
-0.151652
-0.126991
-0.0973982
-0.072828
-0.0482805
-0.0187556
0.015724
0.0401584
0.0495475
0.0489367
0.0383032
0.0326923
0.0222398
0.0119005
0.00171947
-0.00334841
-0.00837105
-0.0183711
-0.0283258
-0.0382353
-0.0430769
-0.0427828
-0.0573529
-0.0617873
-0.0611312
-0.0654072
-0.0796154
-0.0887557
-0.102919
-0.122104
-0.13138
-0.145814
-0.160385
-0.175113
-0.189955
-0.194932
-0.195
-0.185204
-0.175498
-0.160837
-0.131244
-0.0767195
0.0077828
0.12224
0.286652
0.475995
0.695317
0.91457
1.10878
1.27296
1.39715
1.45129
1.48536
1.47939
1.45335
1.36233
1.25133
1.13048
1.01975
0.92414
0.808665
0.718258
0.597964
0.492828
0.382828
0.292941
0.208167
0.123529
0.0539593
-0.000475126
-0.0297738
-0.0488914
-0.0528054
-0.0566063
-0.0703394
-0.0840272
-0.102692
-0.116357
-0.124977
-0.128552
-0.137081
-0.140588
-0.134253
-0.128145
-0.11233
-0.106742
-0.106357
-0.096086
-0.0909728
-0.0810181
-0.0762443
-0.0665837
-0.0570362
-0.0526471
-0.0434163
-0.0393439
-0.0254299
-0.0167421
-0.00819005
-0.00979639
-0.0115159
-0.0132579
-0.00988689
-0.011448
-0.0179412
-0.0293665
-0.0407692
-0.0521041
-0.0683258
-0.0743665
-0.0852941
-0.0961539
-0.1019
-0.112534
-0.118009
-0.128348
-0.138507
-0.143484
-0.153303
-0.168032
-0.177738
-0.192421
-0.207127
-0.216833
-0.226538
-0.231244
-0.220928
-0.210588
-0.200249
-0.189932
-0.189638
-0.199299
-0.208891
-0.213462
-0.217964
-0.212353
-0.201697
-0.186018
-0.170272
-0.159434
-0.138507
-0.107534
-0.0816063
-0.0558824
-0.0353846
-0.0201584
-0.010181
0.00961538
0.0242534
0.0287104
0.0329412
0.0319683
0.0308145
0.0295023
0.0230091
0.021448
0.009819
0.0033484
-0.0028507
-0.0185747
-0.0337783
-0.043371
-0.0476244
-0.0565611
-0.0652036
-0.0735294
-0.0817195
-0.085
-0.0933258
-0.101697
-0.115023
-0.118416
-0.12681
-0.140339
-0.144005
-0.157783
-0.171629
-0.185566
-0.184638
-0.198891
-0.208303
-0.222783
-0.242285
-0.251742
-0.271154
-0.285588
-0.305023
-0.319525
-0.349072
-0.37362
-0.393167
-0.407805
-0.387602
-0.347534
-0.287602
-0.247738
-0.212941
-0.193258
-0.168643
-0.139072
-0.114525
-0.0999774
-0.0904073
-0.0657692
-0.0461086
-0.0263575
-0.00656109
0.0233484
0.0333258
0.0483484
0.0633937
0.0684389
0.0634842
0.063552
0.0636425
0.0687557
0.0688461
0.068914
0.0639593
0.0489819
0.0440271
0.0440724
0.0441629
0.0492986
0.0394118
0.0345701
0.0247964
0.0200905
0.0104977
0.000950232
-0.00359728
-0.0181448
-0.0177149
-0.0273077
-0.0369457
-0.0466516
-0.0564253
-0.0662217
-0.0759955
-0.0807466
-0.0855204
-0.10043
-0.115498
-0.135724
-0.156018
-0.181335
-0.196652
-0.216968
-0.24224
-0.277443
-0.317602
-0.337647
-0.342557
-0.312353
-0.277059
-0.231674
-0.181244
-0.140792
-0.0952489
-0.0446606
0.0209502
0.0965837
0.19224
0.312896
0.46862
0.649389
0.855204
1.04104
1.20188
1.29276
1.34362
1.33448
1.31534
1.28118
1.21201
1.11778
0.998484
0.90905
0.799525
0.699887
0.595113
0.495204
0.405158
0.314955
0.239548
0.153982
0.0782579
0.0124434
-0.0434389
-0.0743213
-0.0952715
-0.111267
-0.12733
-0.143484
-0.159638
-0.170882
-0.187172
-0.193529
-0.199955
-0.211516
-0.218167
-0.209909
-0.181719
-0.148416
-0.11491
-0.086086
-0.0670362
-0.0427602
-0.0183484
-0.00375566
0.0110634
0.0160634
0.0211991
0.016448
0.0168552
0.00742081
0.00309955
-0.00606335
-0.0100453
-0.00895928
-0.0128281
-0.0116968
-0.0106787
-0.00979638
-0.0140498
-0.0234389
-0.0279412
-0.0326018
-0.0374208
-0.0473756
-0.0574435
-0.0675566
-0.0876697
-0.10276
-0.107783
-0.122805
-0.147828
-0.172873
-0.202919
-0.222986
-0.238077
-0.248167
-0.258281
-0.268371
-0.268462
-0.263575
-0.25371
-0.238869
-0.23405
-0.229231
-0.214412
-0.184593
-0.159819
-0.135068
-0.125362
-0.125679
-0.121041
-0.111425
-0.10681
-0.107262
-0.107805
-0.113484
-0.114231
-0.114977
-0.110566
-0.110995
-0.106267
-0.101403
-0.101516
-0.0965837
-0.0966063
-0.0964932
-0.101244
-0.100747
-0.114864
-0.128348
-0.136018
-0.147692
-0.148462
-0.158462
-0.163032
-0.172353
-0.176674
-0.171041
-0.17552
-0.165272
-0.155407
-0.131063
-0.112104
-0.0936199
-0.0705656
-0.0529638
-0.0258145
0.000927635
0.0322625
0.063258
0.0838688
0.0891403
0.0891629
0.0889819
0.0887331
0.0884163
0.088077
0.087715
0.0773303
0.0769457
0.0716064
0.0662443
0.065905
0.065543
0.0601357
0.0596154
0.0590271
0.0533937
0.0477828
0.0372172
0.0266968
0.0111312
0.000542961
-0.0150905
-0.0357693
-0.0514254
-0.0670588
-0.0826471
-0.0932127
-0.108733
-0.114276
-0.129819
-0.140385
-0.145928
-0.141448
-0.126991
-0.0975113
-0.0730317
-0.0435294
-0.0140498
0.0154072
0.0498416
0.0842534
0.108665
0.118032
0.122398
0.121765
0.116063
0.105362
0.0947059
0.0890271
0.0833258
0.0775792
0.0717421
0.065905
0.0600905
0.0492986
0.043552
0.0328054
0.0271041
0.0214706
0.0159049
0.0103167
-0.000429846
-0.00642535
-0.0127149
-0.0193213
-0.0314932
-0.0443213
-0.0630769
-0.0827376
-0.0983032
-0.12457
-0.141335
-0.163371
-0.18043
-0.192443
-0.20414
-0.215453
-0.221222
-0.216538
-0.20138
-0.170814
-0.139887
-0.103484
-0.071629
-0.029276
0.00848415
0.041629
0.0550452
0.0536878
0.0376244
0.0217421
0.0109955
0.00527149
-0.000429869
-0.0111312
-0.0217873
-0.0323529
-0.0428959
-0.0533484
-0.058733
-0.0639819
-0.0691177
-0.0741629
-0.079095
-0.0789366
-0.0786425
-0.0782806
-0.0778959
-0.0775113
-0.0771493
-0.0868778
-0.0966968
-0.111606
-0.116652
-0.126742
-0.136878
-0.146991
-0.162149
-0.182308
-0.192489
-0.20267
-0.202851
-0.203009
-0.183167
-0.158281
-0.118348
-0.0884163
-0.0634615
-0.0435294
-0.0136199
0.0162217
0.0510633
0.0758597
0.0855656
0.0852489
0.0798869
0.0695023
0.0590724
0.0536199
0.04819
0.0427149
0.0322398
0.0267647
0.0263348
0.0210181
0.0208371
0.0157919
0.0158824
0.0111312
0.011448
0.0118326
0.00726245
0.00769231
-0.00192308
-0.0116063
-0.0163575
-0.0311765
-0.0460634
-0.0560407
-0.0760407
-0.0910407
-0.101041
-0.120995
-0.14095
-0.15586
-0.175792
-0.185701
-0.195611
-0.20552
-0.21043
-0.190385
-0.150317
-0.0902715
-0.0102489
0.0897738
0.239796
0.409819
0.624819
0.824774
1.02968
1.19459
1.30941
1.36921
1.37398
1.35873
1.28851
1.20328
1.08808
0.987873
0.887715
0.802647
0.722715
0.622964
0.523394
0.413982
0.319819
0.235882
0.162081
0.0983032
0.0243665
-0.029819
-0.064276
-0.0838914
-0.098552
-0.113213
-0.132896
-0.152602
-0.16733
-0.182081
-0.191833
-0.201561
-0.211267
-0.215973
-0.220679
-0.225362
-0.230023
-0.219661
-0.194276
-0.163891
-0.138484
-0.113077
-0.0926923
-0.0723529
-0.0420136
-0.0316742
-0.0213801
-0.0261086
-0.0258597
-0.0256561
-0.025543
-0.0304525
-0.0304072
-0.035362
-0.0403168
-0.0502036
-0.0599774
-0.064638
-0.0742534
-0.0788688
-0.0834616
-0.0829638
-0.0923756
-0.0966742
-0.0959276
-0.105158
-0.109412
-0.118665
-0.117964
-0.127285
-0.136652
-0.141063
-0.150543
-0.155091
-0.159661
-0.169186
-0.168643
-0.173009
-0.172262
-0.176448
-0.160588
-0.139638
-0.113665
-0.0876697
-0.066629
-0.0455882
-0.0295475
-0.0185068
-0.0125113
-0.0015837
-0.000701352
-0.00493212
-0.00923076
-0.023552
-0.0279185
-0.0423303
-0.04681
-0.0565158
-0.0665385
-0.071991
-0.0780543
-0.0748869
-0.0875792
-0.0961312
-0.100498
-0.110339
-0.120407
-0.135181
-0.144389
-0.152647
-0.159932
-0.171086
-0.171063
-0.175091
-0.183326
-0.186131
-0.193597
-0.195995
-0.203394
-0.200905
-0.198507
-0.196154
-0.188733
-0.191177
-0.188643
-0.186222
-0.194095
-0.202262
-0.195747
-0.18448
-0.148439
-0.10767
-0.0621267
-0.0366968
-0.0313349
-0.0359955
-0.0406561
-0.045362
-0.0500905
-0.0548416
-0.0646154
-0.074457
-0.0843439
-0.089276
-0.094276
-0.104367
-0.109548
-0.114819
-0.120136
-0.12043
-0.125634
-0.125769
-0.130815
-0.130815
-0.145747
-0.150566
-0.150385
-0.155181
-0.159977
-0.164706
-0.164367
-0.168982
-0.16862
-0.168258
-0.167873
-0.162443
-0.161923
-0.146335
-0.125611
-0.099819
-0.0840272
-0.0732127
-0.0623303
-0.0514706
-0.0356109
-0.0297285
-0.0238688
-0.0280091
-0.0271493
-0.0312443
-0.0253394
-0.0194344
-0.00852942
-0.00266968
-0.00178733
-0.0108824
-0.03
-0.0491403
-0.0782805
-0.0924661
-0.106742
-0.126041
-0.130339
-0.139593
-0.148756
-0.157896
-0.167014
-0.171131
-0.175272
-0.174457
-0.173688
-0.167919
-0.167172
-0.171471
-0.18086
-0.190362
-0.190045
-0.159819
-0.099638
-0.0144797
0.110747
0.276041
0.486403
0.716787
0.957195
1.14267
1.29317
1.37871
1.42425
1.4298
1.41536
1.37093
1.27649
1.18208
1.06769
0.978281
0.888869
0.804412
0.719909
0.630362
0.550814
0.461267
0.361674
0.252036
0.157262
0.0824434
0.0375792
0.00762443
-0.00744344
-0.0275566
-0.0426697
-0.0576923
-0.0626018
-0.0723529
-0.0770136
-0.0866968
-0.101425
-0.111199
-0.126063
-0.136041
-0.146063
-0.141086
-0.141086
-0.141041
-0.130905
-0.115724
-0.10052
-0.0853167
-0.0651131
-0.0449095
-0.0346833
-0.0244344
-0.0191629
-0.00884615
-0.00348416
0.00183259
0.0121493
0.0174887
0.0128054
-0.00187783
-0.0165611
-0.026267
-0.0259502
-0.0256335
-0.0353394
-0.0500905
-0.0798643
-0.104683
-0.139502
-0.164253
-0.168937
-0.178552
-0.193213
-0.197896
-0.202602
-0.207262
-0.211923
-0.216629
-0.226425
-0.236312
-0.246267
-0.256199
-0.261131
-0.261063
-0.271063
-0.281131
-0.286244
-0.281425
-0.286674
-0.277036
-0.262466
-0.242986
-0.223552
-0.20914
-0.204751
-0.190362
-0.17595
-0.161516
-0.147014
-0.132489
-0.112919
-0.113326
-0.113688
-0.109005
-0.104321
-0.0846606
-0.0600226
-0.0453846
-0.0455882
-0.0504977
-0.0700452
-0.0890498
-0.0973303
-0.109683
-0.116018
-0.126267
-0.130701
-0.139525
-0.143009
-0.141357
-0.144729
-0.14319
-0.1469
-0.146086
-0.150724
-0.150905
-0.151584
-0.147715
-0.139276
-0.136222
-0.133575
-0.131267
-0.119344
-0.102828
-0.0767647
-0.066086
-0.055724
-0.0455204
-0.0303846
-0.0152715
-0.00524886
0.00979638
0.0248416
0.0349548
0.0400905
0.0502489
0.0554072
0.0604978
0.0755883
0.0956335
0.100656
0.0906561
0.0756788
0.0557014
0.0306787
0.0156787
0.000701383
-0.00423075
-0.009095
-0.0138914
-0.0186199
-0.0283258
-0.0329638
-0.0476018
-0.057285
-0.0621719
-0.0673981
-0.0731221
-0.0745249
-0.0817873
-0.0900452
-0.0893212
-0.10448
-0.110317
-0.111538
-0.107919
-0.104321
-0.100701
-0.0920135
-0.0930542
-0.0888008
-0.0940271
-0.0788688
-0.0683258
-0.0573529
-0.0559276
-0.0539366
-0.0414479
-0.0285068
-0.010181
-0.0014932
-0.00246605
0.00180997
0.011267
0.0308145
0.0454073
0.0450453
0.0397059
0.0344118
0.029095
0.0288235
0.0336199
0.0235068
0.0234842
0.0185068
0.0085068
-0.00647056
-0.0214253
-0.0413348
-0.0511991
-0.0610633
-0.0659728
-0.0709955
-0.0811086
-0.086267
-0.0914479
-0.0965385
-0.0964932
-0.10138
-0.106222
-0.101063
-0.0959955
-0.0910181
-0.0860633
-0.0811765
-0.0813122
-0.0764932
-0.0616742
-0.0518778
-0.0370814
-0.0272624
-0.0224434
-0.0125792
-0.00271491
0.00214934
0.00703622
0.0269457
0.0368778
0.0468552
0.0469231
0.0470136
0.0421493
0.0373077
0.0275113
0.0178054
0.00821268
0.00366517
-0.00585972
-0.020362
-0.0298416
-0.0292986
-0.0487104
-0.0630317
-0.0823303
-0.0966968
-0.106154
-0.115679
-0.115271
-0.124932
-0.129593
-0.134253
-0.138959
-0.138756
-0.138643
-0.128643
-0.123756
-0.113959
-0.109253
-0.10957
-0.104932
-0.100317
-0.0957466
-0.101222
-0.0966968
-0.0772624
-0.0278281
0.0516063
0.171041
0.325475
0.509932
0.714389
0.923846
1.10837
1.25787
1.34242
1.36704
1.35676
1.32161
1.28154
1.18656
1.09663
0.976765
0.8819
0.782104
0.682376
0.577692
0.448032
0.333371
0.228733
0.134072
0.0443891
-0.0403394
-0.105181
-0.150068
-0.169955
-0.189774
-0.209548
-0.219299
-0.224095
-0.223914
-0.223756
-0.223597
-0.223416
-0.223258
-0.218077
-0.207919
-0.197783
-0.18767
-0.182579
-0.177557
-0.162579
-0.132624
-0.107692
-0.0877828
-0.0729185
-0.0630769
-0.0632805
-0.0684842
-0.0686425
-0.0787557
-0.0838235
-0.0838235
-0.0837556
-0.0886199
-0.0883937
-0.0930769
-0.0977376
-0.107421
-0.117127
-0.126855
-0.136584
-0.14629
-0.160973
-0.170633
-0.175317
-0.190068
-0.199932
-0.209819
-0.219729
-0.234638
-0.23957
-0.249502
-0.25448
-0.254502
-0.25957
-0.259683
-0.259842
-0.255
-0.250158
-0.240362
-0.230566
-0.230747
-0.235995
-0.22629
-0.201629
-0.177036
-0.152466
-0.132941
-0.113416
-0.0989367
-0.079457
-0.0649548
-0.0554299
-0.0508824
-0.0463122
-0.0466742
-0.041991
-0.0372624
-0.0374887
-0.0327602
-0.0330996
-0.028552
-0.0291177
-0.0347285
-0.0303167
-0.0408145
-0.0460633
-0.050905
-0.0551131
-0.0585068
-0.0609729
-0.0624661
-0.0679864
-0.0676471
-0.0716063
-0.0751357
-0.0834841
-0.0918778
-0.0954072
-0.094095
-0.09319
-0.0927149
-0.0877828
-0.0782579
-0.0741855
-0.0655203
-0.0623077
-0.0546606
-0.0425339
-0.0208371
0.00547512
0.0263801
0.0519231
0.0671493
0.0771493
0.0820136
0.0867873
0.0814932
0.0861539
0.0857919
0.0854073
0.0849774
0.0845249
0.0790045
0.073371
0.0726018
0.0666742
0.0556109
0.0444796
0.0383258
0.0372398
0.031267
0.0304977
0.0298416
0.029276
0.0288009
0.0334615
0.0282127
0.018009
0.00287329
-0.0122624
-0.0223529
-0.0323756
-0.0423529
-0.0572851
-0.0721719
-0.0770136
-0.0668778
-0.0467421
-0.0316063
-0.0164932
-0.0113575
-0.011267
-0.00624435
0.00873303
0.0286878
0.0585747
0.0833937
0.0981674
0.107896
0.112557
0.112195
0.11681
0.12138
0.120928
0.120407
0.119864
0.114231
0.103507
0.0976697
0.0867195
0.0805882
0.0742534
0.0677375
0.0561991
0.0547511
0.0484163
0.0472624
0.046267
0.0454298
0.0397285
0.0291629
0.0187104
0.0133484
0.0080769
0.00287328
-0.0022851
-0.0023756
-0.00733036
0.00280538
0.0229864
0.0530769
0.0829864
0.0876018
0.0866968
0.0852036
0.0778054
0.0645248
0.0402941
0.0103393
-0.0150453
-0.030724
-0.0413349
-0.0519005
-0.062172
-0.077172
-0.0967647
-0.100928
-0.109729
-0.1181
-0.126086
-0.12362
-0.125769
-0.132602
-0.134253
-0.145769
-0.152059
-0.158145
-0.159005
-0.169751
-0.180385
-0.180996
-0.186629
-0.182217
-0.17776
-0.168258
-0.16871
-0.174072
-0.174367
-0.174548
-0.169615
-0.159615
-0.154548
-0.139389
-0.114163
-0.078914
-0.0335973
0.00674208
0.0320588
0.0423529
0.0326471
0.0229864
0.00832579
0.0087104
0.00914027
0.00459275
-0.0148869
-0.0343213
-0.048733
-0.0631448
-0.0726018
-0.0871267
-0.101742
-0.111516
-0.126493
-0.136719
-0.152217
-0.152873
-0.163552
-0.174163
-0.179729
-0.195249
-0.195769
-0.196312
-0.19681
-0.19724
-0.197534
-0.192692
-0.192715
-0.192647
-0.192557
-0.192443
-0.19733
-0.192195
-0.187036
-0.176833
-0.171561
-0.151199
-0.125792
-0.095362
-0.0598642
-0.00938913
0.0361312
0.0716516
0.0871946
0.0927149
0.0932353
0.0787557
0.0643213
0.0499321
0.0355882
0.026267
0.0169457
0.00762443
-0.00667421
-0.0159728
-0.0252941
-0.0347511
-0.0593891
-0.0792534
-0.0842308
-0.0642081
-0.0191403
0.0459955
0.156086
0.291131
0.481109
0.671018
0.875882
1.03066
1.12032
1.17993
1.1595
1.13905
1.06857
0.9981
0.897602
0.787036
0.691516
0.585995
0.495453
0.389932
0.299502
0.229118
0.193801
0.163552
0.118303
0.0730995
0.0279186
0.0127828
0.00764705
0.0275113
0.0524434
0.0674434
0.0725566
0.0727828
0.0680996
0.0534842
0.0338462
0.0141629
-0.0106561
-0.0255882
-0.0406335
-0.0608145
-0.0810407
-0.0912217
-0.10629
-0.116222
-0.121063
-0.125882
-0.130701
-0.140633
-0.145634
-0.155769
-0.165973
-0.171267
-0.186652
-0.192149
-0.20276
-0.213462
-0.219253
-0.220113
-0.211018
-0.186946
-0.152896
-0.113891
-0.0699095
-0.0409502
-0.0269231
-0.0228733
-0.0188009
-0.0147059
-0.0106109
-0.00647059
-0.0122624
-0.0129864
-0.0236652
-0.0242986
-0.0298869
-0.0354299
-0.0309276
-0.0314027
-0.0318099
-0.0321493
-0.0324208
-0.0426244
-0.0577602
-0.0778733
-0.0929412
-0.107941
-0.127851
-0.132624
-0.147195
-0.151584
-0.160882
-0.165204
-0.164615
-0.16914
-0.178869
-0.188778
-0.198801
-0.208959
-0.219186
-0.229502
-0.239864
-0.245339
-0.245882
-0.221493
-0.182172
-0.137919
-0.10371
-0.084457
-0.0650905
-0.0504977
-0.0355882
-0.025181
-0.00911765
0.00285068
0.00574661
0.00961539
0.0142308
0.00929866
0.014638
0.0199548
0.0252263
0.0252489
0.0249774
0.0292987
0.0231448
0.021629
0.0247285
0.0174887
0.00486426
-0.00312217
-0.0215158
-0.0352941
-0.0446154
-0.0595927
-0.070362
-0.0820362
-0.094638
-0.108281
-0.127805
-0.153077
-0.178914
-0.205
-0.221199
-0.242353
-0.248484
-0.244412
-0.22
-0.195271
-0.165158
-0.134796
-0.11414
-0.103213
-0.0967873
-0.0849095
-0.0676018
-0.0498869
-0.0417873
-0.0282805
-0.0245023
-0.0104525
0.00371041
0.0229412
0.0372398
0.0415611
0.0459729
0.0504299
0.0549095
0.0594118
0.0539819
0.0436652
0.0385294
0.0336425
0.0290271
0.0197059
0.00563348
-0.00834842
-0.0223303
-0.0313575
-0.0454299
-0.0545475
-0.0686652
-0.0827828
-0.0918778
-0.100995
-0.105158
-0.114389
-0.123688
-0.127986
-0.142308
-0.161697
-0.171154
-0.180656
-0.185204
-0.184842
-0.17457
-0.164344
-0.15414
-0.149005
-0.143869
-0.138778
-0.123688
-0.103597
-0.0785068
-0.053371
-0.0232353
0.00192308
0.0121041
0.0272851
0.0324887
0.0426923
0.0429412
0.0531674
0.0583937
0.0637104
0.0691855
0.0599321
0.050905
0.0371267
0.0334842
0.0299774
0.0266063
0.028371
0.0202262
0.0121267
-0.000972855
-0.00925339
-0.0176923
-0.026267
-0.0249547
-0.0386652
-0.0473756
-0.0611086
-0.0649548
-0.073914
-0.0779864
-0.0921946
-0.111538
-0.125995
-0.145633
-0.155453
-0.135385
-0.0854751
0.00432127
0.104005
0.233597
0.388122
0.577624
0.802081
1.01647
1.20579
1.34498
1.40407
1.4281
1.41215
1.3912
1.32536
1.22966
1.13414
1.03382
0.963733
0.878869
0.799163
0.679593
0.565136
0.460792
0.366629
0.277624
0.18371
0.114864
0.0510633
0.0172851
-0.00647059
-0.025181
-0.0438914
-0.0676244
-0.0863801
-0.100136
-0.108914
-0.122738
-0.136697
-0.150792
-0.17
-0.189344
-0.208801
-0.233416
-0.238167
-0.233054
-0.218054
-0.203167
-0.188394
-0.183733
-0.189186
-0.194706
-0.200249
-0.190837
-0.181448
-0.172081
-0.167738
-0.163326
-0.148937
-0.134593
-0.125226
-0.12586
-0.121471
-0.122036
-0.127489
-0.137851
-0.143077
-0.148145
-0.153077
-0.157873
-0.167511
-0.171991
-0.18129
-0.185475
-0.199548
-0.213529
-0.222489
-0.236425
-0.245385
-0.264367
-0.268394
-0.272443
-0.291538
-0.300679
-0.319864
-0.32414
-0.343529
-0.353054
-0.362715
-0.377534
-0.392511
-0.402557
-0.397715
-0.387964
-0.348303
-0.313688
-0.284072
-0.26948
-0.264819
-0.265204
-0.260566
-0.240973
-0.22138
-0.196787
-0.177195
-0.152602
-0.127986
-0.0983258
-0.0736652
-0.0590045
-0.0441855
-0.0340724
-0.0184616
-0.0123303
-0.00552038
-0.00789593
-0.00432128
0.00538462
0.0111312
0.0278054
0.0351358
0.0377376
0.0304299
0.0230317
0.00554295
-0.00726248
-0.0104978
-0.0192308
-0.0284842
-0.0380996
-0.0431448
-0.0535973
-0.064638
-0.0712443
-0.0883937
-0.101063
-0.109208
-0.107896
-0.111991
-0.101425
-0.091086
-0.080905
-0.0658824
-0.0560181
-0.0462896
-0.0416516
-0.0320815
-0.017534
0.00696829
0.0264253
0.0458144
0.0701357
0.0894117
0.113642
0.127783
0.141991
0.151267
0.165656
0.175136
0.189706
0.199344
0.198982
0.193665
0.193371
0.19319
0.188122
0.183145
0.163281
0.153484
0.143824
0.129253
0.119751
0.110249
0.100724
0.0861765
0.0765158
0.0567647
0.0269005
0.00192305
-0.0231448
-0.0433258
-0.0586199
-0.0740272
-0.0745701
-0.0702263
-0.0660181
-0.0619683
-0.0530769
-0.0443439
-0.030724
-0.0222851
-0.0088914
0.00447963
0.0177828
0.0310634
0.0393213
0.0526018
0.0658371
0.0890724
0.117285
0.145498
0.158688
0.171878
0.180181
0.183597
0.182262
0.171177
0.165294
0.149548
0.143869
0.128258
0.122715
0.11733
0.107059
0.101968
0.0870136
0.0622172
0.0375792
0.0180995
0.00873303
-0.00558824
-0.0198416
-0.0390498
-0.0531901
-0.0723303
-0.0965158
-0.115837
-0.140249
-0.154729
-0.169321
-0.173959
-0.173688
-0.168529
-0.163552
-0.163756
-0.159163
-0.159774
-0.145475
-0.13129
-0.122195
-0.11319
-0.104231
-0.0953394
-0.0864932
-0.0726471
-0.0538688
-0.0401358
-0.0164254
0.0023303
0.011086
0.0249095
0.0338009
0.0478054
0.0619457
0.0661765
0.0655204
0.0649321
0.059457
0.054095
0.0488914
0.0488235
0.043914
0.0341855
0.0246606
0.0203394
0.00104073
-0.00834842
-0.0179864
-0.0229638
-0.0284615
-0.0396833
-0.0467647
-0.0648642
-0.078914
-0.098733
-0.119072
-0.134751
-0.160498
-0.176357
-0.197149
-0.207738
-0.2181
-0.223145
-0.217986
-0.217534
-0.201833
-0.195792
-0.179434
-0.162783
-0.150792
-0.133552
-0.120995
-0.103145
-0.0850226
-0.0666516
-0.0530995
-0.0344118
-0.0106108
0.0083258
0.0223982
0.041629
0.0459729
0.0454751
0.0401131
0.0349095
0.0198643
0.00995475
0.000203624
-0.00936651
-0.0137104
-0.0278054
-0.0367195
-0.0454977
-0.0641855
-0.0778507
-0.0914932
-0.110158
-0.123891
-0.137715
-0.146674
-0.160769
-0.170023
-0.184367
-0.188824
-0.203394
-0.213032
-0.222828
-0.232828
-0.238054
-0.238462
-0.233959
-0.234548
-0.235249
-0.236086
-0.231991
-0.217986
-0.19405
-0.175158
-0.156312
-0.132511
-0.113756
-0.0949774
-0.0761539
-0.0522625
-0.0282806
-0.0092534
0.0148642
0.0240045
0.0333032
0.0377149
0.0422398
0.0418778
0.041629
0.0364932
0.0264932
0.0216063
0.01681
0.0120588
0.00237556
-0.0023077
-0.0069457
-0.0115158
-0.0259955
-0.0404072
-0.0497738
-0.0641403
-0.0735747
-0.0880543
-0.0976018
-0.107195
-0.116878
-0.131629
-0.146493
-0.171516
-0.191674
-0.1819
-0.147262
-0.0826923
0.00678732
0.131199
0.305566
0.504887
0.729208
0.933507
1.10278
1.21704
1.28624
1.29548
1.29968
1.27394
1.21819
1.15251
1.07188
1.01629
0.940814
0.87043
0.785204
0.695113
0.600204
0.500475
0.420905
0.331516
0.252195
0.177964
0.123778
0.089638
0.0655656
0.0465611
0.0276923
0.0088914
-0.00986425
-0.0235973
-0.0423756
-0.0561991
-0.0750905
-0.0940272
-0.113122
-0.132353
-0.156742
-0.181267
-0.205905
-0.215679
-0.230588
-0.235588
-0.230724
-0.230973
-0.226312
-0.221765
-0.207308
-0.192941
-0.16862
-0.149389
-0.135204
-0.116086
-0.102014
-0.0929864
-0.0739819
-0.055
-0.0310634
-0.0121041
-0.00309956
0.000995468
0.010181
0.019457
0.0187783
0.018009
0.0071493
-0.00389142
-0.020362
-0.0275339
-0.0354525
-0.0493439
-0.0639819
-0.0792308
-0.099819
-0.115475
-0.136199
-0.146787
-0.172308
-0.187466
-0.20724
-0.226606
-0.245588
-0.264231
-0.287579
-0.300724
-0.303552
-0.301109
-0.293326
-0.275249
-0.276855
-0.278145
-0.289186
-0.290045
-0.28586
-0.281652
-0.267466
-0.258281
-0.249095
-0.244864
-0.230588
-0.21629
-0.196968
-0.17267
-0.153416
-0.144186
-0.134842
-0.130271
-0.120339
-0.10991
-0.103846
-0.101878
-0.103891
-0.109774
-0.109593
-0.113507
-0.11181
-0.119774
-0.127715
-0.140679
-0.148801
-0.162172
-0.170814
-0.174819
-0.184118
-0.193801
-0.203824
-0.219276
-0.235226
-0.251652
-0.268552
-0.285882
-0.28371
-0.282036
-0.270747
-0.259751
-0.258959
-0.253303
-0.257738
-0.252262
-0.246878
-0.231561
-0.21629
-0.206063
-0.195928
-0.19086
-0.170882
-0.150995
-0.126154
-0.10638
-0.0866742
-0.0720136
-0.0523303
-0.0426697
-0.0330091
-0.0232579
-0.0184615
-0.0135747
-0.00859729
-0.00348417
-0.00321267
0.00223982
0.00285068
0.00355204
0.00934389
0.00513574
0.000882352
-0.00332579
-0.00251131
-0.0115837
-0.0206109
-0.0346154
-0.0536425
-0.0726471
-0.0816968
-0.0558371
-0.0200679
0.0456109
0.161176
0.336584
0.526901
0.762104
0.947195
1.10217
1.20204
1.24179
1.27647
1.27109
1.26572
1.19534
1.11495
1.02955
0.944118
0.868665
0.798167
0.742602
0.667059
0.601606
0.521267
0.446041
0.370995
0.296041
0.236176
0.18138
0.156652
0.142014
0.132466
0.123077
0.108824
0.0897059
0.070724
0.0569231
0.0382805
0.0297738
0.0163801
0.00303167
-0.010362
-0.0237783
-0.0372398
-0.0557014
-0.0692082
-0.0927828
-0.116538
-0.140498
-0.169683
-0.199072
-0.218688
-0.223507
-0.218529
-0.208688
-0.198937
-0.199253
-0.204683
-0.205204
-0.195724
-0.18629
-0.1819
-0.172534
-0.153213
-0.143937
-0.139729
-0.125566
-0.106448
-0.0772625
-0.0679864
-0.0585747
-0.0490045
-0.0443213
-0.0445475
-0.0447285
-0.0447964
-0.0497964
-0.054638
-0.0642986
-0.0588462
-0.0632579
-0.0625792
-0.0617873
-0.0709276
-0.08
-0.0889819
-0.102896
-0.116765
-0.125566
-0.129367
-0.143258
-0.152262
-0.166403
-0.180701
-0.195226
-0.214955
-0.229819
-0.244729
-0.249638
-0.249548
-0.234412
-0.214253
-0.204072
-0.188891
-0.188643
-0.178371
-0.173122
-0.162896
-0.15776
-0.137692
-0.117624
-0.0973982
-0.0869231
-0.071086
-0.0496606
-0.0323756
-0.00918552
0.0100905
0.0302488
0.0511765
0.0676018
0.0792534
0.086086
0.0829864
0.0749095
0.0715611
0.0678507
0.0636878
0.0590724
0.0590046
0.0585747
0.0478507
0.0317647
0.0152941
0.00337103
-0.0139819
-0.0318326
-0.0502036
-0.074095
-0.0884389
-0.103077
-0.117919
-0.137828
-0.157783
-0.177805
-0.202896
-0.228009
-0.248099
-0.258213
-0.258416
-0.248846
-0.229683
-0.215995
-0.203032
-0.19586
-0.179661
-0.164457
-0.130249
-0.0968552
-0.063914
-0.0311764
0.00160637
0.0345023
0.0577602
0.0665158
0.0608824
0.0557918
0.0561991
0.0570814
0.0434389
0.0354072
0.0279864
0.0161086
0.0047285
-0.00615385
-0.0115837
-0.0215837
-0.031267
-0.045724
-0.0650905
-0.0845927
-0.109321
-0.134231
-0.149344
-0.164638
-0.18509
-0.195611
-0.216176
-0.241742
-0.25733
-0.277851
-0.293326
-0.298756
-0.29414
-0.284547
-0.284955
-0.280362
-0.275792
-0.271244
-0.261697
-0.232127
-0.197534
-0.162919
-0.123303
-0.0686878
-0.019095
0.0104751
0.0250453
0.0245928
0.0241629
0.0187783
0.0085068
-0.00162894
-0.0066742
-0.0215611
-0.0364027
-0.0411312
-0.0507466
-0.0502263
-0.0545928
-0.0638009
-0.072828
-0.0916968
-0.105475
-0.119095
-0.132579
-0.140928
-0.14414
-0.15224
-0.165317
-0.173348
-0.18138
-0.18448
-0.20267
-0.21095
-0.219412
-0.218054
-0.201833
-0.185792
-0.159932
-0.149253
-0.138733
-0.133394
-0.113213
-0.0931674
-0.0732127
-0.0383484
0.00142534
0.0561086
0.100656
0.140136
0.169547
0.173869
0.173077
0.172172
0.166154
0.15
0.128733
0.112398
0.121018
0.154661
0.228348
0.317149
0.461041
0.620045
0.81414
1.01842
1.21283
1.36749
1.44238
1.45751
1.41792
1.3736
1.28955
1.18572
1.06206
0.953484
0.844864
0.736199
0.632466
0.50862
0.384706
0.270724
0.171629
0.0823756
-0.00701359
-0.0965385
-0.151244
-0.181176
-0.17138
-0.131855
-0.0725113
-0.0232806
0.0258823
0.0649774
0.0990271
0.112986
0.116923
0.110769
0.104502
0.0931674
0.0767647
0.0653168
0.0538688
0.0474887
0.0361991
0.0249548
0.0137557
0.00260181
-0.00848417
-0.0194796
-0.0403167
-0.0559502
-0.0713575
-0.0865385
-0.0964253
-0.110995
-0.125339
-0.134548
-0.143688
-0.15276
-0.161787
-0.170792
-0.179751
-0.19862
-0.207443
-0.221222
-0.239955
-0.258688
-0.277489
-0.291403
-0.31052
-0.324796
-0.334253
-0.353869
-0.363665
-0.378688
-0.388914
-0.399389
-0.390113
-0.386086
-0.377262
-0.358597
-0.339977
-0.331471
-0.307986
-0.279525
-0.261063
-0.232534
-0.203914
-0.170158
-0.141335
-0.117443
-0.103529
-0.0945022
-0.090362
-0.091086
-0.091629
-0.0919683
-0.0870136
-0.0868326
-0.0864253
-0.0808371
-0.0751583
-0.0694117
-0.0635746
-0.0576923
-0.0568099
-0.0609276
-0.0600226
-0.0639819
-0.0626697
-0.0659502
-0.068733
-0.0757692
-0.0820136
-0.0973529
-0.101787
-0.110385
-0.113394
-0.121154
-0.133937
-0.147014
-0.160407
-0.174276
-0.18871
-0.203846
-0.189661
-0.171109
-0.14819
-0.13086
-0.119095
-0.107896
-0.092172
-0.0668326
-0.04681
-0.022172
0.00699089
0.0456787
0.0889366
0.126787
0.144185
0.141086
0.12724
0.122738
0.112511
0.106878
0.0960633
0.0902488
0.084638
0.0792307
0.069276
0.0597511
0.0507466
0.0372171
0.0241402
0.0115158
0.00427596
-0.00251136
-0.0138915
-0.0248643
-0.0305657
-0.041086
-0.056448
-0.0666743
-0.0767874
-0.0968326
-0.116923
-0.132127
-0.147489
-0.162986
-0.178643
-0.194434
-0.215407
-0.241561
-0.267964
-0.294502
-0.311177
-0.322919
-0.309751
-0.291652
-0.25862
-0.235656
-0.217715
-0.199819
-0.176968
-0.144095
-0.111244
-0.0633937
-0.0205204
0.017466
0.0505655
0.0738235
0.077285
0.0809502
0.0747737
0.0688461
0.0681448
0.067647
0.0623982
0.0573756
0.0525792
0.048009
0.0485973
0.044276
0.0399774
0.0307013
0.026448
0.0221493
0.0128507
0.00850678
-0.000859737
-0.0102941
-0.0247511
-0.0392534
-0.0588235
-0.0735068
-0.0883258
-0.108326
-0.128484
-0.148756
-0.174118
-0.18948
-0.209864
-0.230249
-0.245679
-0.251131
-0.246652
-0.237195
-0.212783
-0.193416
-0.174072
-0.149819
-0.125611
-0.106448
-0.0873303
-0.0582579
-0.0192308
0.0099095
0.0391403
0.0635294
0.0630317
0.0626244
0.0523077
0.0371041
0.0170814
0.0121946
0.0274208
0.0777828
0.143303
0.24405
0.384955
0.555928
0.771855
0.967647
1.16833
1.2938
1.34907
1.35416
1.3041
1.25391
1.14367
1.03337
0.908054
0.792715
0.687353
0.576946
0.481538
0.371154
0.270792
0.170407
0.100023
0.039638
-0.0107692
-0.0561765
-0.0965837
-0.121991
-0.127443
-0.117941
-0.0934615
-0.0740272
-0.0495928
-0.0301584
-0.000723978
0.0287104
0.0630995
0.0824661
0.0967647
0.0910634
0.0903168
0.0845928
0.083914
0.078371
0.0679412
0.0675792
0.0572851
0.0420362
0.0318778
0.0217647
0.00674208
-0.00821267
-0.0282127
-0.0533258
-0.078552
-0.103891
-0.129253
-0.159638
-0.180023
-0.205339
-0.230656
-0.25095
-0.266244
-0.286493
-0.296697
-0.301855
-0.296968
-0.297081
-0.302217
-0.29233
-0.292398
-0.277421
-0.272421
-0.257398
-0.24733
-0.232262
-0.212195
-0.182149
-0.147127
-0.107104
-0.0770814
-0.0520136
-0.0369005
-0.03681
-0.0367421
-0.0417873
-0.0419457
-0.0471946
-0.0525113
-0.0578959
-0.063371
-0.0637783
-0.0741855
-0.0745928
-0.085
-0.0954072
-0.105837
-0.11629
-0.126697
-0.142059
-0.147421
-0.162805
-0.173145
-0.183507
-0.193891
-0.204299
-0.219751
-0.230204
-0.230611
-0.230882
-0.225882
-0.23052
-0.224661
-0.218122
-0.205724
-0.182308
-0.152986
-0.107738
-0.0569005
-0.0157692
0.0254072
0.0564027
0.0772398
0.0876244
0.0925792
0.0970136
0.0959955
0.0995701
0.0927149
0.0854977
0.0778733
0.0748643
0.066448
0.0627602
0.0588461
0.0447511
0.0354072
0.0257918
0.0159276
0.00592759
-0.00414028
-0.00923078
-0.0243891
-0.0395249
-0.0546833
-0.0747285
-0.0896607
-0.109434
-0.11914
-0.133824
-0.133552
-0.123326
-0.113122
-0.107873
-0.107579
-0.102285
-0.0969683
-0.0816968
-0.0664932
-0.0413348
-0.0111539
0.0190271
0.0692081
0.129367
0.179434
0.209389
0.219253
0.219005
0.213643
0.198213
0.197692
0.187081
0.18138
0.165679
0.149932
0.139186
0.123462
0.117828
0.112285
0.10181
0.0864706
0.0661538
0.0558823
0.0405656
0.0202036
0.00479636
-0.0106335
-0.0260634
-0.036448
-0.0517421
-0.0719231
-0.101991
-0.131968
-0.151923
-0.162059
-0.157511
-0.153439
-0.149955
-0.14224
-0.125407
-0.0995475
-0.0947059
-0.0806788
-0.067353
-0.049276
-0.0313122
-0.0131674
0.0052036
0.0188688
0.0429638
0.0674434
0.0974208
0.107738
0.108507
0.109683
0.101357
0.0934841
0.0709502
0.0538009
0.0370362
0.0257013
0.0097285
-0.000972863
-0.011448
-0.0317873
-0.041991
-0.0470362
-0.0519005
-0.0565611
-0.0660181
-0.0703167
-0.079457
-0.0935294
-0.102602
-0.116719
-0.125928
-0.140204
-0.15457
-0.168982
-0.183507
-0.203167
-0.217919
-0.22776
-0.237715
-0.247715
-0.25776
-0.247873
-0.228077
-0.198348
-0.173665
-0.148982
-0.119321
-0.0846606
-0.0650679
-0.0405204
-0.0359955
-0.0315158
-0.0320588
-0.027647
-0.0182127
-0.0138009
-0.00434389
-0.004819
-0.0152262
-0.0305656
-0.0408145
-0.0459955
-0.0461086
-0.0460633
-0.0458597
-0.0604977
-0.0749095
-0.0891176
-0.103077
-0.106787
-0.105339
-0.108778
-0.107217
-0.110656
-0.114118
-0.117602
-0.121109
-0.119661
-0.133281
-0.142014
-0.15086
-0.159842
-0.173937
-0.193122
-0.212398
-0.231833
-0.236448
-0.231244
-0.216154
-0.191176
-0.171312
-0.151561
-0.131923
-0.112353
-0.0978733
-0.0834615
-0.0791629
-0.075
-0.0659955
-0.0270815
0.04181
0.140769
0.269819
0.433937
0.623145
0.832489
1.05199
1.23158
1.37629
1.43113
1.44613
1.39631
1.33665
1.26217
1.15785
1.05869
0.944706
0.855882
0.747104
0.648348
0.529615
0.420882
0.332149
0.238348
0.154457
0.0604525
-0.0136199
-0.0777828
-0.122036
-0.14638
-0.16586
-0.180475
-0.195226
-0.200091
-0.200091
-0.200204
-0.200407
-0.190701
-0.176109
-0.161629
-0.14224
-0.127873
-0.113552
-0.104299
-0.0901358
-0.0710181
-0.0619683
-0.0479638
-0.0339593
-0.0299321
-0.0258824
-0.0268326
-0.0177149
-0.0134615
-0.0140272
-0.024457
-0.0297285
-0.034819
-0.0347059
-0.0394118
-0.048914
-0.0583484
-0.0676923
-0.076991
-0.0912217
-0.100407
-0.109525
-0.113597
-0.11767
-0.12681
-0.145995
-0.155249
-0.16457
-0.183937
-0.203371
-0.212851
-0.232489
-0.24724
-0.252104
-0.247104
-0.232217
-0.227421
-0.217738
-0.2181
-0.218552
-0.22905
-0.224593
-0.225181
-0.215792
-0.206471
-0.197195
-0.177964
-0.168778
-0.154615
-0.14052
-0.116471
-0.0924435
-0.0733937
-0.0592761
-0.0500453
-0.0456335
-0.036086
-0.0264254
-0.0266516
-0.0167421
-0.0167195
-0.0115837
-0.0113801
-0.006086
-0.00567876
-0.0100226
-0.0190045
-0.0324887
-0.040362
-0.0474887
-0.0538009
-0.0541629
-0.0585294
-0.0570588
-0.0599095
-0.0625339
-0.0701357
-0.073009
-0.0812217
-0.0898869
-0.089095
-0.0938009
-0.089095
-0.0798869
-0.0762443
-0.0731222
-0.0755656
-0.078552
-0.0819457
-0.0758145
-0.0650905
-0.059819
-0.0548416
-0.0451131
-0.0355204
-0.0260407
-0.00674208
0.0172624
0.0358597
0.0589367
0.0714706
0.0832127
0.0891855
0.094276
0.10371
0.102647
0.0913801
0.0801357
0.0739819
0.0731222
0.0626471
0.0527376
0.0433484
0.0294796
0.011086
-0.0069457
-0.0195701
-0.02681
-0.0385068
-0.0497511
-0.0556335
-0.0662217
-0.0765611
-0.0866516
-0.106584
-0.126448
-0.136335
-0.151267
-0.16129
-0.171425
-0.171697
-0.182036
-0.182443
-0.182896
-0.178394
-0.183959
-0.179661
-0.170407
-0.161199
-0.147036
-0.137919
-0.118846
-0.109842
-0.10086
-0.0868552
-0.0677376
-0.0484389
-0.0290272
-0.0194797
-0.00481902
-9.05152e-05
0.00466062
0.00950225
0.0144117
0.0143891
0.014457
0.0146154
0.0148869
0.00518098
0.000497727
-0.00920816
-0.023914
-0.0335294
-0.0430543
-0.0524208
-0.0666969
-0.075905
-0.0800226
-0.084095
-0.0931674
-0.102217
-0.111312
-0.12043
-0.134638
-0.148891
-0.163167
-0.172443
-0.181765
-0.186176
-0.185679
-0.175249
-0.174887
-0.174502
-0.179163
-0.183869
-0.17862
-0.168439
-0.158303
-0.14319
-0.118077
-0.102964
-0.0928054
-0.0776471
-0.0574434
-0.0421493
-0.0268552
-0.0215158
-0.0111765
-0.0108371
-0.000542995
0.0047285
0.00995475
6.78645e-05
-0.00990951
-0.0249321
-0.0249548
-0.00497739
0.0450679
0.120181
0.230362
0.350679
0.526086
0.696629
0.90224
1.0629
1.18857
1.25421
1.2648
1.26034
1.20586
1.13638
1.03183
0.927217
0.827579
0.737896
0.663167
0.578371
0.493552
0.38371
0.288846
0.208982
0.134118
0.0742534
0.0143665
-0.0204978
-0.0404073
-0.045362
-0.0453394
-0.035362
-0.0204299
-0.00554299
-0.000656118
0.00414026
0.0088914
0.0135747
0.0182127
0.0277828
0.0273303
0.0268552
0.0164027
0.00604071
0.00572397
0.000475105
-0.00975114
-0.0199548
-0.0401358
-0.0652715
-0.0852941
-0.105226
-0.130091
-0.144842
-0.159548
-0.174208
-0.188846
-0.193416
-0.203009
-0.212624
-0.217262
-0.2119
-0.201561
-0.181199
-0.155837
-0.150475
-0.150091
-0.169683
-0.179253
-0.188824
-0.198394
-0.197919
-0.197443
-0.191991
-0.181561
-0.171176
-0.150837
-0.135588
-0.130407
-0.135339
-0.135317
-0.130362
-0.120407
-0.115452
-0.110452
-0.120475
-0.120498
-0.115566
-0.115656
-0.110747
-0.115792
-0.120815
-0.135792
-0.150679
-0.165498
-0.175272
-0.184977
-0.199615
-0.199186
-0.20871
-0.213235
-0.21776
-0.21233
-0.201923
-0.181584
-0.151267
-0.126018
-0.105882
-0.0958824
-0.085905
-0.0808824
-0.0706788
-0.0652263
-0.0693439
-0.0729186
-0.0856561
-0.0875792
-0.0835294
-0.068733
-0.0483484
-0.0376697
-0.0269231
-0.0161991
-0.00570136
0.00950227
0.024276
0.0285973
0.0324887
0.0309729
0.0341403
0.0319457
0.0343439
0.0312896
0.0228054
0.0189819
0.00984163
0.00545249
-0.00918552
-0.0189593
-0.0287783
-0.0335973
-0.0383484
-0.0380543
-0.0376697
-0.0371946
-0.0266516
-0.0160633
-0.000429861
0.0152715
0.0260407
0.0369231
0.0528507
0.0588461
0.0548416
0.0558371
0.0619005
0.0679864
0.074095
0.0852036
0.096267
0.0922851
0.0932579
0.0891855
0.0799321
0.075543
0.0709502
0.0711538
0.0611312
0.065905
0.0704525
0.0747738
0.073914
0.0679186
0.0567421
0.0453846
0.0288688
0.0120136
-0.00527147
-0.0233258
-0.0421493
-0.0569231
-0.0776244
-0.0890271
-0.100995
-0.1131
-0.120226
-0.127127
-0.12871
