ekg
0
0
-0.005
0.000714285
0.00222222
0.00409091
0.00115385
-2.79397e-10
0.00764706
0.00631579
0.00595238
0.0117391
0.012
0.00351852
-0.0146552
-0.0230645
-0.0377273
-0.0775714
-0.105405
-0.129231
-0.14122
-0.141628
-0.121222
-0.0981915
-0.0828571
-0.0495098
0.0220755
0.116727
0.189035
0.243729
0.297295
0.380556
0.453462
0.525896
0.598261
0.605493
0.572603
0.5046
0.441429
0.343165
0.200123
0.031747
-0.166824
-0.310747
-0.344775
-0.328846
-0.293172
-0.282737
-0.277474
-0.267374
-0.252277
-0.237476
-0.242857
-0.223505
-0.199266
-0.17527
-0.15615
-0.122261
-0.0885898
-0.079916
-0.0859917
-0.0871138
-0.07816
-0.0792913
-0.0803876
-0.0765267
-0.067782
-0.0742963
-0.0809124
-0.0826259
-0.0792553
-0.0808042
-0.0872759
-0.0883674
-0.0841946
-0.0800331
-0.0907516
-0.0862258
-0.0866242
-0.0969497
-0.102174
-0.0923313
-0.0874849
-0.087515
-0.0823964
-0.07731
-0.067341
-0.0674571
-0.0725141
-0.0725978
-0.0676796
-0.0576776
-0.0626757
-0.0526471
-0.047672
-0.0427225
-0.0428497
-0.0379487
-0.032868
-0.0377387
-0.0327612
-0.0278325
-0.0128537
-0.0128019
-0.0077512
0.00244075
0.00762911
0.00793023
0.0181567
0.028379
0.0285973
0.0235294
0.0234389
0.0333031
0.04319
0.0480995
0.0580769
0.0580543
0.0530317
0.0430769
0.0431222
0.0481448
0.0481674
0.0431674
0.0480995
0.053009
0.0530316
0.0531448
0.0532126
0.0582805
0.0583484
0.0633936
0.073371
0.0883484
0.0883484
0.088371
0.108462
0.108756
0.109412
0.105385
0.111629
0.108122
0.109955
0.112081
0.109502
0.102262
0.0800905
0.0777602
0.0800905
0.0820588
0.088552
0.0793665
0.0794344
0.0686199
0.0521946
0.0506109
0.054095
0.0527602
0.0364932
0.0352262
0.033914
0.0326471
0.021448
0.0252488
0.0241629
0.0182353
0.00746604
-0.00323532
0.00117645
0.000723958
0.000361964
0.00499997
0.0146606
0.0243891
0.009095
0.00877825
0.0135068
0.0182805
0.00787328
0.012104
0.0109502
0.00452486
-0.00208148
-0.00393668
-0.00104076
-0.0084842
-0.0112444
-0.0143892
-0.00753397
-0.0104073
-0.0179865
-0.0152037
-0.00690049
-0.00803171
-0.0234163
-0.0329638
-0.0317421
-0.0352263
-0.0337783
-0.0224887
-0.0112896
-0.0100905
-0.00891407
-0.0128281
-0.0117647
-0.0157014
-0.0196607
-0.0137331
-0.0179186
-0.0271946
-0.0316064
-0.0261765
-0.0308371
-0.0404751
-0.0400905
-0.0346833
-0.0292308
-0.0337557
-0.0282806
-0.0277828
-0.0322172
-0.0416064
-0.0360408
-0.025543
-0.0199774
-0.0193213
-0.0286426
-0.0279412
-0.0272398
-0.0315159
-0.0308371
-0.0251584
-0.019457
-0.0137331
-0.00303171
-0.00233035
-0.0166064
-0.025905
-0.0252489
-0.0246607
-0.0290272
-0.0283711
-0.0227376
-0.0220589
-0.0213122
-0.0255656
-0.0198417
-0.00407243
0.00169681
-0.00255658
-0.0118552
-0.0161539
-0.0104751
-0.00479639
0.000859712
-0.00352942
-0.0129412
-0.0124661
-0.00705883
0.00832579
0.0137104
0.0191176
0.0144344
0.0097285
-2.26302e-05
0.000135742
0.000271491
-0.00459276
-0.00945702
-0.00438914
0.0156787
0.020724
0.0207692
0.0157919
0.0108145
0.000837105
-0.00916289
-0.00418551
0.00574661
0.0107014
0.000701363
-0.00432126
-0.00934389
-0.0143213
-0.00920814
-0.00416289
-0.00914027
-0.00909502
0.0259502
0.10095
0.18595
0.25095
0.290928
0.340837
0.395679
0.47552
0.550339
0.625113
0.629842
0.569615
0.494389
0.409095
0.303801
0.183529
0.0182579
-0.162081
-0.327489
-0.382851
-0.368213
-0.338552
-0.318824
-0.313982
-0.299118
-0.284231
-0.269321
-0.264389
-0.254412
-0.229457
-0.199434
-0.174389
-0.149321
-0.109253
-0.0841403
-0.0740272
-0.0789367
-0.0788009
-0.0786425
-0.0784389
-0.0782353
-0.0730091
-0.0777602
-0.0875339
-0.0823303
-0.0671041
-0.07181
-0.0814706
-0.0811086
-0.0757919
-0.0754751
-0.0851358
-0.084819
-0.0845023
-0.0841629
-0.0887783
-0.0883484
-0.0828733
-0.0823982
-0.0769683
-0.0666063
-0.051267
-0.0559276
-0.0605882
-0.0502489
-0.0499095
-0.0495928
-0.0492534
-0.0439593
-0.0336425
-0.0332579
-0.0278281
-0.0224434
-0.0171041
-0.0167647
-0.0163801
-0.0109955
-0.00561086
-0.0102262
-0.00988688
0.000452489
0.00579185
0.00619909
0.00662896
0.0170362
0.0224208
0.0228054
0.0281448
0.0334615
0.0387557
0.0390498
0.0393213
0.0395928
0.0449548
0.045362
0.0407692
0.0461086
0.0464253
0.0467421
0.0420362
0.0423077
0.0426244
0.0329864
0.0383032
0.0435747
0.0438235
0.0340724
0.0343665
0.0396833
0.04
0.0453167
0.0457466
0.0515158
0.0526923
0.0541629
0.0658145
0.0826697
0.0897738
0.0922398
0.105068
0.118235
0.121471
0.124457
0.137059
0.144253
0.150973
0.152172
0.152579
0.157149
0.145995
0.139615
0.133281
0.127081
0.111018
0.104977
0.0990045
0.0881222
0.0822851
0.0663575
0.0652715
0.0540724
0.0427376
0.0261991
0.019457
0.0126471
0.00561087
-0.00178732
-0.0147059
-0.0177828
-0.0258145
-0.0335973
-0.036086
-0.0431674
-0.044638
-0.050362
-0.0501357
-0.0540272
-0.0575566
-0.0610634
-0.0596606
-0.0582805
-0.0619231
-0.0606561
-0.0594344
-0.0582805
-0.0621493
-0.0661539
-0.0652941
-0.0645023
-0.0688235
-0.0632806
-0.0578507
-0.0573982
-0.0619683
-0.0615611
-0.0561538
-0.0507692
-0.0553846
-0.0500452
-0.0496833
-0.0492308
-0.0537783
-0.0483032
-0.0478054
-0.0522624
-0.0567421
-0.0512217
-0.0456561
-0.0500453
-0.049457
-0.0488914
-0.0432579
-0.0425792
-0.0419004
-0.0311991
-0.0304299
-0.0346606
-0.0338914
-0.0281222
-0.0223303
-0.0265385
-0.0257466
-0.0199774
-0.0192308
-0.0234842
-0.0227602
-0.0120814
-0.0113801
-0.0206787
-0.0250226
-0.0144118
-0.0138235
-0.0182579
-0.0177828
-0.0123303
-0.0118778
-0.016448
-0.021086
-0.0207466
-0.0253846
-0.0250452
-0.0147059
-0.0143891
-0.0190498
-0.0187104
-0.0183937
-0.0130543
-0.0126471
-0.0122398
-0.0168552
-0.0164253
-0.0259276
-0.0304525
-0.0199774
-0.014457
-0.013914
-0.0183484
-0.00780541
-0.00223979
-0.00665155
-0.0111312
-0.00565608
-0.00518096
-0.0147285
-0.0143665
-0.0140497
-0.0187556
-0.0135067
0.0116969
0.05681
0.106946
0.166991
0.236923
0.306787
0.361629
0.436425
0.526131
0.635792
0.67043
0.660068
0.604661
0.539231
0.453824
0.313394
0.137964
-0.0674208
-0.247738
-0.333077
-0.348439
-0.328756
-0.31905
-0.314344
-0.304661
-0.294955
-0.280204
-0.275452
-0.250679
-0.22086
-0.200973
-0.176086
-0.141222
-0.106312
-0.0963801
-0.0964479
-0.0965384
-0.0865837
-0.0815837
-0.0816063
-0.0716516
-0.0716289
-0.0815837
-0.0815837
-0.0816063
-0.0815837
-0.0865385
-0.0815158
-0.0815158
-0.0864706
-0.0914253
-0.0914253
-0.0864027
-0.0913575
-0.096267
-0.0961991
-0.101109
-0.10595
-0.100792
-0.100656
-0.0954977
-0.0952941
-0.0900905
-0.0899321
-0.0847511
-0.0795249
-0.0742986
-0.0691176
-0.063914
-0.0636425
-0.063371
-0.0531674
-0.0479638
-0.0427149
-0.0374887
-0.0272624
-0.016991
-0.0117421
-0.00656109
-0.00140272
0.00377826
0.00395925
0.00909501
0.0142081
0.0193891
0.0195701
0.0197059
0.0248642
0.0300452
0.0302262
0.0354072
0.0406109
0.0407918
0.0359502
0.0410633
0.0411538
0.0413122
0.0414706
0.0416289
0.0467873
0.0419909
0.0422172
0.0473756
0.0525339
0.0477149
0.0478733
0.0529864
0.0581222
0.0582353
0.0583032
0.0634163
0.0686425
0.064095
0.0747511
0.0907014
0.0919909
0.0936425
0.100543
0.117738
0.125249
0.123054
0.125769
0.133122
0.134909
0.131063
0.131538
0.131041
0.114367
0.0963348
0.0922624
0.0878959
0.0686878
0.0599095
0.0565385
0.0538009
0.0468552
0.0358824
0.0357692
0.0260407
0.0114253
-0.00314479
-0.00269231
-0.00212669
-0.00649321
-0.00576924
-0.00504525
-0.00434389
-0.0137104
-0.0181674
-0.00766969
-0.00728507
-0.016991
-0.0218326
-0.0117195
-0.0116063
-0.0165158
-0.0214706
-0.0214706
-0.021448
-0.0264479
-0.0214706
-0.0165158
-0.0215384
-0.0265611
-0.0316063
-0.0266289
-0.0316516
-0.0366742
-0.0367194
-0.0367194
-0.0417194
-0.0467194
-0.0417194
-0.0366742
-0.0416063
-0.0465384
-0.046448
-0.0413348
-0.0462217
-0.0511086
-0.0509728
-0.0458371
-0.0507014
-0.0505882
-0.0454751
-0.0503168
-0.0601131
-0.0498643
-0.0345702
-0.0342534
-0.043914
-0.0435973
-0.0382579
-0.0328959
-0.0375339
-0.037172
-0.0317647
-0.0363575
-0.0409502
-0.0355656
-0.0352036
-0.0398643
-0.0395928
-0.0343439
-0.034095
-0.0338462
-0.0386425
-0.0334615
-0.0332805
-0.0380996
-0.0379412
-0.0377828
-0.0276244
-0.0324434
-0.0322624
-0.0271267
-0.0269683
-0.0318326
-0.0267421
-0.0216516
-0.0265158
-0.0263575
-0.0312217
-0.026086
-0.0309276
-0.0357466
-0.0456109
-0.0454751
-0.0353167
-0.0151131
0.0300905
0.0852489
0.155407
0.225498
0.300543
0.365566
0.440566
0.525566
0.620475
0.670339
0.650226
0.600091
0.524864
0.444593
0.309344
0.144118
-0.0611086
-0.236335
-0.316516
-0.316719
-0.296946
-0.282217
-0.282466
-0.262692
-0.247941
-0.238145
-0.233326
-0.218507
-0.188733
-0.173959
-0.149118
-0.119321
-0.0895701
-0.0897964
-0.0899321
-0.0850453
-0.075181
-0.0703167
-0.0704525
-0.0655656
-0.0656787
-0.0657466
-0.0708145
-0.065905
-0.0660407
-0.0761765
-0.0762896
-0.081448
-0.081629
-0.0867873
-0.0869231
-0.0820815
-0.0822624
-0.0873982
-0.0925113
-0.0876471
-0.0878054
-0.0879412
-0.0830543
-0.0781674
-0.0833032
-0.0834389
-0.0735294
-0.0636425
-0.0587783
-0.063914
-0.064095
-0.0643212
-0.069457
-0.0695023
-0.0695475
-0.059638
-0.0647285
-0.0647964
-0.0598416
-0.0549095
-0.0649774
-0.0650226
-0.0601131
-0.0502715
-0.045362
-0.0354751
-0.0156561
-0.0108371
-0.0159502
-0.0110407
-0.00113123
0.00377828
0.00371041
0.00366516
0.0135747
0.00848417
0.00839367
0.0083258
0.0132127
0.0181448
0.0130996
0.0230091
0.0378281
0.0376697
0.0275792
0.0274887
0.0374208
0.0323529
0.0373529
0.0472851
0.0571493
0.0569231
0.0566516
0.0614027
0.0662443
0.0713122
0.0716516
0.0922398
0.1031
0.104299
0.110792
0.112624
0.119864
0.117557
0.115475
0.123213
0.130679
0.137828
0.134661
0.130882
0.126357
0.115905
0.104661
0.0980317
0.0864254
0.0799322
0.0735068
0.0670362
0.0656335
0.0542986
0.0479864
0.0466742
0.0454525
0.0393891
0.0333937
0.0425113
0.0417194
0.0310407
0.0203394
0.014638
0.0139593
0.0083258
0.00771493
0.00210407
-0.00343891
-0.00895928
-0.00447963
-0.00504524
-0.000588231
-0.00615384
-0.00678732
-0.00246606
-0.00316741
-0.00882352
-0.0145023
-0.015181
-0.0158371
-0.0214932
-0.0221946
-0.0229412
-0.0236199
-0.0292986
-0.0299774
-0.0356335
-0.036267
-0.0369231
-0.0425792
-0.04319
-0.038733
-0.0342308
-0.0297511
-0.0302715
-0.0408371
-0.046629
-0.0477602
-0.049276
-0.0510633
-0.0530543
-0.0552262
-0.0576471
-0.0602941
-0.0633258
-0.0616063
-0.0549095
-0.0679412
-0.0655882
-0.0578507
-0.0595475
-0.0707014
-0.0761538
-0.0757692
-0.079638
-0.0782353
-0.0818552
-0.0755656
-0.074276
-0.0730317
-0.0668326
-0.060724
-0.069638
-0.068552
-0.0575566
-0.0417195
-0.0409728
-0.0503167
-0.0547964
-0.0594118
-0.0641176
-0.073914
-0.063733
-0.0535294
-0.0432805
-0.0330317
-0.0278054
-0.0275792
-0.0323529
-0.0370814
-0.0217873
-0.0113575
-0.0108597
-0.0104072
-0.00997737
-0.0145701
-0.0191176
-0.0186652
0.00176471
0.0122172
0.00771494
-0.00180995
-0.00138008
-0.000972847
-0.000565605
-0.000203613
0.00511313
0.000407245
-0.00432126
-0.00409501
0.00608598
0.0112217
0.0113575
0.0164253
0.021448
0.0164932
0.0115611
0.011629
0.0116742
0.0217647
0.0268326
0.03181
0.0316968
0.0315611
0.0314253
0.0312444
0.0310407
0.0207919
0.0155204
0.0152263
0.0199321
0.0196154
0.0243213
0.0289819
0.0385747
0.0381901
0.0278281
0.0274434
0.0270136
0.026629
0.0262217
0.0307692
0.0353167
0.0248643
0.0244118
0.023914
0.0234163
0.0229412
0.0224887
0.021991
0.021448
0.0159276
0.0104072
0.00988689
0.00938914
0.0189367
0.0634615
0.137919
0.222376
0.291833
0.331267
0.370656
0.430023
0.484389
0.558733
0.613032
0.62233
0.571719
0.491041
0.415362
0.309706
0.194072
0.0333484
-0.147443
-0.30319
-0.358937
-0.354661
-0.335407
-0.326063
-0.321674
-0.312262
-0.292805
-0.283281
-0.278756
-0.264253
-0.219683
-0.185
-0.165294
-0.145611
-0.11595
-0.0862896
-0.0716063
-0.0619457
-0.0572398
-0.0574434
-0.0575792
-0.0526697
-0.0477149
-0.0427376
-0.0477602
-0.0528281
-0.0628281
-0.0677602
-0.0577149
-0.0476923
-0.0426697
-0.0476471
-0.0526471
-0.0526697
-0.0526244
-0.0574887
-0.0473756
-0.0422851
-0.0421493
-0.0469683
-0.0467873
-0.046629
-0.0464253
-0.0512443
-0.0461086
-0.0409729
-0.0357919
-0.0355656
-0.0303394
-0.0250679
-0.0297738
-0.0344796
-0.0392534
-0.0390272
-0.0388009
-0.0335294
-0.0232353
-0.0129186
-0.0125792
-0.0122624
-0.0069457
-0.00162896
0.00368778
0.00395927
0.00416289
0.00938914
0.0146606
0.0149095
0.020181
0.0354977
0.0358824
0.031267
0.0315837
0.0368778
0.0271719
0.0324661
0.0377602
0.0380995
0.0384615
0.0387557
0.0440724
0.0444118
0.0347738
0.0301357
0.0404977
0.0457919
0.0409729
0.0459276
0.0506561
0.0500905
0.0392081
0.0330995
0.0419004
0.0406561
0.0393439
0.0429412
0.0516742
0.055724
0.0553394
0.0605204
0.0714932
0.078371
0.0711538
0.079638
0.0883937
0.0969684
0.095
0.107421
0.119072
0.109864
0.104887
0.0995928
0.0992534
0.0839367
0.073552
0.0680995
0.0625566
0.0519683
0.041267
0.0454977
0.0397511
0.0291629
0.0236878
0.0182805
0.0179638
0.0127376
0.00264706
-0.00237556
-0.00235294
-0.0123303
-0.0173077
-0.0172851
-0.0222398
-0.0271719
-0.0320814
-0.026991
-0.0269005
-0.0318778
-0.0268778
-0.0218326
-0.0217195
-0.0266063
-0.0265158
-0.0214253
-0.0163575
-0.0263122
-0.0262896
-0.0311991
-0.0411086
-0.051086
-0.051086
-0.0460407
-0.0509955
-0.0509729
-0.0459502
-0.045905
-0.0458597
-0.0508145
-0.0507692
-0.0557014
-0.0556561
-0.0606561
-0.0506787
-0.050724
-0.0508145
-0.0509502
-0.0510407
-0.051086
-0.0561312
-0.0511991
-0.051267
-0.0512896
-0.0513122
-0.0513348
-0.0413348
-0.0463348
-0.0513122
-0.0462896
-0.0462443
-0.0511538
-0.0560181
-0.0558597
-0.0506787
-0.0454977
-0.0453167
-0.045181
-0.045
-0.049819
-0.0496833
-0.0445475
-0.0494118
-0.0543213
-0.0592534
-0.0592534
-0.0592986
-0.0443665
-0.019457
0.0254525
0.070362
0.135249
0.205091
0.264887
0.329661
0.414457
0.514231
0.604027
0.613869
0.583733
0.518665
0.448643
0.348688
0.203778
0.013914
-0.19095
-0.330792
-0.365588
-0.350362
-0.330091
-0.319774
-0.309412
-0.294027
-0.278643
-0.263258
-0.247873
-0.222557
-0.202285
-0.172059
-0.141855
-0.106652
-0.0864253
-0.0761764
-0.0659276
-0.0557013
-0.0504977
-0.0503167
-0.0401584
-0.0400226
-0.0399095
-0.0398416
-0.0347964
-0.0347964
-0.034819
-0.0348416
-0.0349095
-0.0349774
-0.0400679
-0.0451357
-0.0402262
-0.040362
-0.0404525
-0.045543
-0.0406335
-0.0407466
-0.0458597
-0.0409502
-0.0360407
-0.0361538
-0.0412669
-0.0364253
-0.0216289
-0.0218552
-0.0320814
-0.032285
-0.0275113
-0.0327149
-0.0329185
-0.0281448
-0.0233258
-0.0235068
-0.0237104
-0.013914
-0.00907239
-0.00923076
-0.00941175
0.000407258
0.0102489
0.00509052
0.00493214
0.0147738
0.0196154
0.0195023
0.0144118
0.0193439
0.0243213
0.0193213
0.0193213
0.0191855
0.0238462
0.0182353
0.0122851
0.016086
0.00970589
-0.00194569
-0.00395927
-0.00128958
-0.00395927
-0.0117647
-0.00950225
-0.00201357
-0.00423076
-0.00606334
0.00764707
0.011991
0.0171493
0.0230996
0.0394796
0.0510181
0.0475792
0.0542308
0.0660407
0.0781222
0.0804977
0.0830543
0.0908824
0.0990498
0.0976018
0.0964254
0.105181
0.0987104
0.0918326
0.0845249
0.0866969
0.0832127
0.0738462
0.0735068
0.0675113
0.0663575
0.0502715
0.0492308
0.0482353
0.0323077
0.026448
0.0206335
0.0199095
0.0192534
0.0187104
0.0232127
0.0228507
0.0126697
-0.00237556
-0.00235294
-0.00728506
-0.0121493
-0.0120136
-0.0119005
-0.00676471
-0.00660634
-0.0114706
-0.00640272
-0.0012896
-0.00115386
-0.00104074
-0.000950241
0.00414026
-0.000746621
-0.000678746
-0.000656119
0.00434388
0.00936651
0.00436651
0.00932126
0.00925339
0.00918552
0.00904977
0.00884615
0.0136652
0.00850678
0.00828054
0.0129864
0.0127149
0.00751131
0.00730769
0.0070362
0.00674208
0.00147059
0.00613122
0.0107919
0.000452489
-0.00484163
-0.000181001
-0.00552037
-0.0157692
-0.0209955
-0.00622173
-0.00644797
-0.0116063
-0.0117195
-0.0118778
-0.0120362
-0.0171493
-0.0222172
-0.0273077
-0.0324208
-0.0425339
-0.0476471
-0.0378054
-0.0129412
0.0269231
0.0917873
0.166584
0.216335
0.251131
0.31086
0.39552
0.470158
0.544796
0.574412
0.558982
0.503597
0.438281
0.357986
0.232692
0.0874661
-0.0977149
-0.272851
-0.367919
-0.387873
-0.367715
-0.342557
-0.332376
-0.327127
-0.321787
-0.301448
-0.296109
-0.285701
-0.270249
-0.239796
-0.214367
-0.193891
-0.168439
-0.143054
-0.127715
-0.12733
-0.121946
-0.111606
-0.10629
-0.105995
-0.105701
-0.0954525
-0.0952036
-0.0999321
-0.0997059
-0.0945023
-0.0993213
-0.0991403
-0.0989593
-0.0887783
-0.088552
-0.0983258
-0.0931448
-0.0880543
-0.0879864
-0.0929412
-0.0828959
-0.0728507
-0.0777828
-0.0726697
-0.0675339
-0.0524661
-0.0623756
-0.0622172
-0.0570588
-0.0519457
-0.0518326
-0.0566516
-0.0464932
-0.0413348
-0.0411991
-0.0409955
-0.0357692
-0.0255656
-0.0253167
-0.0200226
-0.0047285
0.00554299
0.00581448
0.00613123
0.0214027
0.0316063
0.0318326
0.0320815
0.0322851
0.0374208
0.0425566
0.0427149
0.0528507
0.0530091
0.0582127
0.053371
0.0634842
0.0635973
0.0536878
0.0537557
0.0538009
0.053914
0.0490498
0.0491855
0.054276
0.0543439
0.0544344
0.0495475
0.054638
0.0546833
0.0597059
0.0646833
0.0695928
0.0645249
0.0645701
0.069819
0.080362
0.086267
0.0824208
0.093733
0.100317
0.107285
0.114638
0.12233
0.130113
0.127783
0.125226
0.122398
0.124208
0.125475
0.121131
0.115928
0.104932
0.0935068
0.0769457
0.0702941
0.0685068
0.0614706
0.0491856
0.046629
0.0438914
0.0308824
0.0226923
0.0141855
0.0105656
0.00205883
-0.00608598
-0.00382353
-0.00615385
-0.0180317
-0.0243665
-0.0249774
-0.0196833
-0.0187104
-0.0175113
-0.0213575
-0.0202489
-0.0242081
-0.0282353
-0.0273077
-0.026448
-0.0256561
-0.0248869
-0.0242081
-0.0286425
-0.0281448
-0.0277828
-0.0225339
-0.0173982
-0.0173077
-0.0222398
-0.0221493
-0.0270136
-0.0319231
-0.0368552
-0.0267647
-0.0266063
-0.036448
-0.0362896
-0.0261312
-0.0259728
-0.0357919
-0.0356561
-0.0354977
-0.0302941
-0.0400679
-0.0398643
-0.0396833
-0.044457
-0.0542534
-0.0540498
-0.0487557
-0.0483484
-0.0528733
-0.0473982
-0.0318326
-0.0312444
-0.0356787
-0.0301358
-0.0145928
-0.0140045
-0.0183937
-0.0178281
-0.0172851
-0.0217421
-0.0211765
-0.0157014
-0.0102262
-0.00975113
-0.0143213
-0.013914
-0.013552
-0.01819
-0.0228507
-0.0125113
-0.00719456
-0.0119457
-0.0217195
-0.0215385
-0.0163575
-0.0161991
-0.0160407
-0.00590497
-0.000814475
-0.000701349
-0.00561086
-0.00554298
-0.0104525
-0.0153167
-0.015181
-0.0150452
-0.0149321
-0.024819
-0.0246606
-0.0145023
-0.00434389
-0.00923076
-0.0141855
-0.0142308
-0.0192986
-0.0292986
-0.0243213
-0.0243891
-0.0245249
-0.0146832
0.0250905
0.079819
0.144548
0.204231
0.268846
0.328394
0.392941
0.442466
0.526923
0.581267
0.580611
0.52
0.454412
0.388846
0.303281
0.182692
0.0270588
-0.16362
-0.309253
-0.359864
-0.350498
-0.331176
-0.316742
-0.307285
-0.297805
-0.278281
-0.26871
-0.264095
-0.244502
-0.209932
-0.195385
-0.175792
-0.146199
-0.116538
-0.106787
-0.107014
-0.102285
-0.102579
-0.0978507
-0.0881222
-0.0884389
-0.0887556
-0.0990724
-0.0994118
-0.0947285
-0.09
-0.0952715
-0.0905882
-0.0859276
-0.0912443
-0.0965158
-0.09181
-0.0821267
-0.0824435
-0.0776923
-0.0729864
-0.0782806
-0.0935521
-0.108778
-0.109027
-0.114276
-0.10948
-0.104706
-0.0999548
-0.100181
-0.105339
-0.10552
-0.0957466
-0.0809729
-0.0811539
-0.0813122
-0.0664932
-0.056629
-0.0567195
-0.05681
-0.0519231
-0.0420362
-0.0421493
-0.0423077
-0.0424887
-0.0326018
-0.0176923
-0.0128054
-0.0079638
-0.00312218
0.0017647
0.00665158
0.0165158
0.0314253
0.0213801
0.0263122
0.0362217
0.0411538
0.0360634
0.0309502
0.0408371
0.0507466
0.0556561
0.0504977
0.0553394
0.0602489
0.0652036
0.0751358
0.0900453
0.0949774
0.0798869
0.0797511
0.084638
0.0895249
0.0844344
0.0843665
0.089457
0.0897964
0.0954525
0.101357
0.117579
0.119118
0.11595
0.127986
0.15043
0.153145
0.14086
0.133348
0.135543
0.137398
0.133643
0.13905
0.148462
0.141652
0.133869
0.135543
0.136968
0.108054
0.0938009
0.0792987
0.0648643
0.0507692
0.036991
0.0385973
0.0408145
0.0389819
0.0281901
0.028371
0.019276
0.00545249
0.00158371
0.00766969
0.013733
0.00475113
0.000678735
0.00658371
0.0174208
0.0182127
0.0138461
0.00934388
0.00975112
0.0100226
0.0101131
0.0151131
0.0100905
0.00499999
-0.000135754
0.00475113
0.00466063
-0.0154751
-0.0155882
-0.0156561
-0.0157466
-0.0259276
-0.0261765
-0.0214027
-0.0166516
-0.0119005
-0.0121267
-0.0122851
-0.0124208
-0.00760182
-0.00280544
-0.00294118
-0.0129864
-0.0230543
-0.0181222
-0.0230995
-0.0280317
-0.0279864
-0.0279412
-0.0278507
-0.0277602
-0.0226697
-0.0225792
-0.0274661
-0.0273303
-0.0271267
-0.0269004
-0.0266063
-0.0313122
-0.0310407
-0.0257466
-0.0253846
-0.03
-0.0246833
-0.0243439
-0.0290045
-0.028733
-0.0284615
-0.0282353
-0.0329864
-0.0327376
-0.0275113
-0.0273303
-0.0321719
-0.0320362
-0.0318778
-0.0316742
-0.0364253
-0.0361765
-0.0359955
-0.0358145
-0.0356561
-0.0405204
-0.0353846
-0.0302262
-0.0300453
-0.0348869
-0.0296833
-0.034457
-0.0441855
-0.043914
-0.0386425
-0.0433484
-0.0480317
-0.0477376
-0.0575113
-0.0573529
-0.0472398
0.0028733
0.0679638
0.133054
0.213145
0.28319
0.353213
0.418235
0.513235
0.6031
0.667919
0.662692
0.607398
0.547081
0.466742
0.351425
0.176131
-0.0391629
-0.234457
-0.364729
-0.395023
-0.375362
-0.365701
-0.355995
-0.346267
-0.321561
-0.306855
-0.292104
-0.282308
-0.257443
-0.227579
-0.202738
-0.167896
-0.133032
-0.108145
-0.0982353
-0.0883258
-0.0834163
-0.0835294
-0.0786199
-0.0686878
-0.0688009
-0.0738914
-0.0739819
-0.0690498
-0.0691403
-0.0742308
-0.0743213
-0.0693891
-0.0694344
-0.0794796
-0.0845475
-0.0795927
-0.0745928
-0.0795249
-0.0844344
-0.0793665
-0.0793213
-0.084276
-0.084276
-0.0792986
-0.0792986
-0.0842986
-0.074276
-0.0742308
-0.0741629
-0.079095
-0.0740724
-0.0740272
-0.0739593
-0.0838688
-0.0787783
-0.0686878
-0.0685973
-0.0735068
-0.0634163
-0.0583484
-0.0582579
-0.04819
-0.0281448
-0.0330769
-0.0280091
-0.0229412
-0.0128959
-0.00280543
0.00233032
0.0124887
0.0226471
0.0227376
0.0226244
0.0272398
0.0315385
0.0305656
0.0292986
0.0377149
0.0458371
0.038552
0.0308597
0.0277828
0.0297059
0.02181
0.0192534
0.0220362
0.0202941
0.0142534
0.0191629
0.035
0.041448
0.0429864
0.0493439
0.0605882
0.0618552
0.0633258
0.07
0.0819004
0.0891176
0.0916063
0.099276
0.112127
0.120317
0.123778
0.127353
0.135815
0.134027
0.131946
0.134457
0.136425
0.137602
0.127783
0.122059
0.115747
0.109299
0.102896
0.0965159
0.0952036
0.0889367
0.0827602
0.076629
0.0755882
0.0596154
0.053733
0.0529864
0.0523529
0.0469005
0.0415837
0.0413575
0.0361765
0.0310181
0.0308597
0.0307014
0.0255656
0.0154751
0.010362
0.0102262
0.00511312
-6.51926e-09
-0.000135752
0.0047285
0.00459275
0.00445701
0.00427601
0.00904977
0.00377828
-0.00149322
-0.0117873
-0.0170815
-0.0224208
-0.0277602
-0.0231448
-0.0185294
-0.0189367
-0.0243665
-0.024819
-0.0302715
-0.0356787
-0.0361312
-0.0366063
-0.0321041
-0.0376018
-0.0430995
-0.0486199
-0.0491629
-0.0546833
-0.0551584
-0.0506335
-0.0511086
-0.0515158
-0.0519231
-0.0473077
-0.047647
-0.0528959
-0.05319
-0.0534389
-0.0536199
-0.0637557
-0.0688914
-0.0740271
-0.0791176
-0.0641629
-0.0192308
0.0406787
0.105588
0.16552
0.230407
0.300294
0.365204
0.450158
0.545068
0.634932
0.634819
0.589729
0.519615
0.439525
0.32448
0.169412
-0.0356561
-0.245679
-0.385611
-0.405498
-0.375362
-0.350181
-0.344955
-0.339751
-0.319615
-0.304434
-0.294163
-0.283846
-0.253507
-0.228122
-0.207692
-0.177285
-0.136855
-0.116403
-0.115928
-0.110498
-0.100091
-0.0946606
-0.0942534
-0.0888462
-0.0834842
-0.0830995
-0.0827149
-0.0723529
-0.0669909
-0.0716063
-0.0712217
-0.0658823
-0.0604977
-0.0651131
-0.0697737
-0.0645023
-0.0642308
-0.0639366
-0.0686652
-0.0633937
-0.0581448
-0.0578733
-0.0526018
-0.0473303
-0.0470362
-0.0467421
-0.0464706
-0.0412217
-0.0409728
-0.045724
-0.0405204
-0.0353394
-0.0401357
-0.0398642
-0.0345928
-0.0242986
-0.0240271
-0.0187557
-0.0135068
-0.00325791
-0.00800904
-0.00280542
0.00237557
0.0125566
0.00776019
0.0129638
0.0231448
0.0283258
0.0234842
0.0235973
0.0336652
0.0387557
0.0388688
0.0439819
0.0440498
0.0491177
0.0441629
0.0441855
0.0441855
0.0442082
0.0392534
0.0342987
0.0393665
0.034457
0.0345475
0.034638
0.0397285
0.0348416
0.0249774
0.0251131
0.0352036
0.0402036
0.0399774
0.0394344
0.0436425
0.0477828
0.0519231
0.0510181
0.0601358
0.0591403
0.0630543
0.0620136
0.066448
0.0715611
0.0673529
0.0685068
0.0700226
0.0669683
0.0644796
0.0723077
0.0698869
0.0665837
0.0621946
0.0570814
0.0518326
0.0466968
0.0465837
0.051448
0.0663122
0.0612217
0.051086
0.045905
0.0406787
0.0354525
0.035181
0.0449095
0.0397285
0.0346833
0.0347059
0.0397059
0.0397285
0.0347738
0.0398416
0.0399321
0.0400453
0.030181
0.0253167
0.0254751
0.0206335
0.0107919
0.0109276
0.016086
0.00126697
-0.00355204
0.00660633
0.00676471
0.0019457
-0.0028733
0.00230769
-0.00253393
-0.00237556
-0.00723982
-0.0121041
-0.0169231
-0.0217195
-0.0215611
-0.0214027
-0.0262443
-0.031086
-0.0309276
-0.0257919
-0.0256109
-0.0304299
-0.0402941
-0.0402036
-0.0451131
-0.0399774
-0.0348643
-0.0347285
-0.0395475
-0.0493439
-0.0441855
-0.0440045
-0.0488009
-0.0485973
-0.0434389
-0.0382806
-0.0430995
-0.0379186
-0.0328054
-0.0276471
-0.0324434
-0.0372172
-0.0319683
-0.0266516
-0.0313575
-0.0310634
-0.0257919
-0.0255204
-0.0302941
-0.0301357
-0.0300226
-0.0349548
-0.0399095
-0.0349095
-0.0349095
-0.0398869
-0.0448642
-0.0499095
-0.0500226
-0.0501131
-0.0352036
0.00970589
0.074638
0.14457
0.20448
0.264321
0.339163
0.394005
0.483846
0.573643
0.628462
0.608303
0.55319
0.493145
0.413077
0.288032
0.122986
-0.0820815
-0.267127
-0.367104
-0.377104
-0.347104
-0.327081
-0.317036
-0.311991
-0.291923
-0.28181
-0.276652
-0.266448
-0.241267
-0.221131
-0.200995
-0.170905
-0.135814
-0.115656
-0.105407
-0.095181
-0.0899774
-0.0847511
-0.0845475
-0.0793665
-0.0791855
-0.0839367
-0.0836652
-0.0833937
-0.0831448
-0.0879412
-0.0777602
-0.0726471
-0.0725566
-0.0774208
-0.0772625
-0.0721946
-0.072172
-0.0770362
-0.0769231
-0.0768326
-0.0767873
-0.0767421
-0.0717421
-0.0617421
-0.0617195
-0.0666742
-0.0666742
-0.0567873
-0.0569231
-0.0570362
-0.0521493
-0.0523077
-0.0524434
-0.0575339
-0.0526923
-0.0479186
-0.03819
-0.0333937
-0.0335973
-0.0288009
-0.0289366
-0.0340724
-0.0292986
-0.0246154
-0.0248869
-0.0250905
-0.0153394
-0.0106108
-0.00585972
-0.00110859
0.00361992
0.0133937
0.0032353
0.00312218
0.00296381
-0.00221718
-0.0123529
-0.0075113
-0.00285067
-0.0034389
-0.00425338
0.00463802
0.0182127
0.0215385
0.0245475
0.0321267
0.0342308
0.031086
0.0229638
0.0251584
0.0326923
0.0355882
0.0288462
0.0377376
0.0424434
0.0381448
0.0397738
0.0520136
0.0745249
0.0822851
0.0852941
0.0984616
0.111968
0.115814
0.114864
0.113756
0.10733
0.110543
0.108281
0.110294
0.11138
0.101357
0.0904072
0.0889593
0.0824434
0.0710407
0.0597285
0.0534842
0.0422398
0.0311539
0.0251131
0.0290724
0.0280543
0.0271493
0.0213575
0.0256561
0.0200905
0.00468327
-0.00563348
-0.00595022
-0.00622171
-0.0114253
-0.00160632
0.00321268
-0.00190044
-0.0119231
-0.0169909
-0.0171493
-0.0223756
-0.0176471
-0.0129864
-0.00330316
-0.00855203
-0.0187556
-0.0189593
-0.0141403
-0.00927601
-0.0244118
-0.0196154
-0.0198642
-0.0151131
-0.0103846
-0.00572398
-0.0061086
-0.0164253
-0.0266968
-0.0219683
-0.00226244
0.00246607
-0.00285068
-0.00821267
-0.00355203
-0.00882352
-0.0140724
0.000610865
0.0102489
0.00988688
-0.00547511
-0.0108597
-0.00622171
-0.0165385
-0.0168326
-0.00221719
0.00742082
0.00214933
-0.0130995
-0.00834841
-0.00355203
-0.00373303
0.00108598
0.00085973
-0.00438914
-0.0145475
-0.0197511
-0.015
-0.0152941
-0.0206561
-0.0110633
0.0235068
0.0780769
0.132624
0.197172
0.261697
0.316244
0.38586
0.475475
0.575091
0.634661
0.629253
0.553801
0.473348
0.387986
0.30767
0.167353
0.0021267
-0.173009
-0.313122
-0.378213
-0.378258
-0.373122
-0.352896
-0.332647
-0.31733
-0.301946
-0.291538
-0.276176
-0.260837
-0.240475
-0.21509
-0.179751
-0.139412
-0.0990045
-0.0786425
-0.0683484
-0.0630317
-0.0576923
-0.0573982
-0.0621946
-0.0570362
-0.0719231
-0.0718552
-0.06681
-0.0617195
-0.0616063
-0.0664932
-0.0663801
-0.0662443
-0.0661086
-0.0660407
-0.0560407
-0.0560407
-0.0660407
-0.0660633
-0.0660407
-0.0759955
-0.0959955
-0.0910181
-0.0710634
-0.0561086
-0.0461312
-0.0361312
-0.031086
-0.0410181
-0.0509502
-0.0559729
-0.0610181
-0.0660181
-0.0659728
-0.0560181
-0.0460181
-0.0460181
-0.0409955
-0.0259276
-0.0108145
-0.0156787
-0.0255882
-0.030543
-0.0254751
-0.0203167
-0.0101131
2.26228e-05
0.000135744
-0.0147059
-0.0195475
-0.00941177
0.00576923
0.0109955
0.0211991
0.0313575
0.0265158
0.0217421
0.0169231
0.0321041
0.0323756
0.0177376
0.0130995
0.0133937
0.0137104
0.0140724
0.0194344
0.0347964
0.0451584
0.035543
0.035905
0.046267
0.0566742
0.0671267
0.0675339
0.0779864
0.0836199
0.0895023
0.0906335
0.107059
0.118778
0.110747
0.118009
0.130656
0.148778
0.147195
0.155543
0.163552
0.156222
0.153507
0.150407
0.141674
0.127217
0.116968
0.111063
0.109842
0.0886199
0.0723982
0.066267
0.0602262
0.054276
0.0484163
0.0525792
0.0517873
0.0360633
0.0304525
0.0349547
0.034638
0.0195701
0.0197059
0.0248869
0.0200226
0.00999998
0.00970586
0.0190498
0.0230317
0.0218552
0.0202941
0.0183258
0.010905
0.00314478
0.000180976
-0.0078507
-0.0105883
-0.0180543
-0.020181
-0.01681
-0.0177149
-0.0176923
-0.0167873
-0.0152263
-0.0134842
-0.00687784
-0.0104072
-0.00900453
-0.00748869
-0.0159502
-0.014457
-0.0179864
-0.0115158
-0.015181
-0.00409502
0.00185521
-0.00233031
-0.00662896
-0.00106335
-0.00554299
-0.00495475
-0.00436651
-0.00877828
-0.0131448
-0.0173982
-0.0167195
-0.0161086
-0.0155204
-0.0148643
-0.0191629
-0.0084389
-0.00766967
-0.0118552
-0.0161086
-0.0154299
-0.00968325
-0.00884615
-0.00300904
-0.00712669
-0.0111991
-0.0202715
-0.0193891
-0.0185746
-0.0226923
-0.0318099
-0.0360633
-0.0353394
-0.0346154
-0.038914
-0.0382353
-0.0325339
-0.0317647
-0.0409728
-0.0452489
-0.0495475
-0.0538009
-0.0630317
-0.0572624
-0.0564706
-0.0606561
-0.059819
-0.0589819
-0.0581674
-0.0572851
-0.0564027
-0.0506108
-0.044819
-0.0489819
-0.0530995
-0.0422398
-0.0413801
-0.0454977
-0.0446833
-0.0389367
-0.0382127
-0.0425566
-0.0419683
-0.036448
-0.0309729
-0.0304977
-0.0251357
-0.0248642
-0.0246154
-0.0293665
-0.0341403
-0.028914
-0.0236651
-0.0234389
-0.0283032
-0.02819
-0.0330769
-0.0479864
-0.0529864
-0.0430316
-0.0230543
0.0168779
0.0817421
0.161606
0.236516
0.276425
0.34629
0.436109
0.540928
0.620679
0.665385
0.675113
0.609819
0.54948
0.474095
0.36371
0.213371
0.0080317
-0.197308
-0.342624
-0.382896
-0.363145
-0.353348
-0.333529
-0.338688
-0.328846
-0.309027
-0.29414
-0.289253
-0.269321
-0.224366
-0.199321
-0.174231
-0.154185
-0.124095
-0.103959
-0.108823
-0.108688
-0.103529
-0.0983258
-0.108167
-0.098009
-0.092828
-0.0926244
-0.102421
-0.107217
-0.101991
-0.101697
-0.111403
-0.111154
-0.100882
-0.105588
-0.110317
-0.105045
-0.104751
-0.104457
-0.109208
-0.104005
-0.0938009
-0.0935973
-0.0934389
-0.0783484
-0.0782805
-0.0782127
-0.0731674
-0.0681448
-0.0680995
-0.0680317
-0.0630091
-0.0580317
-0.0530543
-0.0530996
-0.0481901
-0.0383032
-0.0433711
-0.0384389
-0.038552
-0.0336652
-0.0287783
-0.0288914
-0.0190272
-0.00916292
-0.00427604
-0.00436655
0.000520334
0.000384584
0.00531672
0.00522622
0.0101131
0.02
0.0199095
0.0247963
0.024638
0.0295022
0.0343665
0.0342081
0.0390271
0.0438687
0.0437104
0.0385068
0.0382805
0.0330317
0.0327602
0.0374661
0.0422172
0.0420136
0.0468326
0.0515158
0.0559502
0.0651584
0.0640498
0.0676923
0.0712896
0.0699774
0.0685973
0.0721041
0.0804299
0.0888009
0.0876244
0.097104
0.102262
0.0979864
0.0992986
0.111018
0.118258
0.121109
0.119095
0.121516
0.122964
0.118394
0.108099
0.102556
0.0970587
0.0865157
0.0809954
0.0804298
0.0748189
0.0591855
0.0534389
0.0476018
0.0367873
0.026086
0.0204299
0.0248417
0.00934391
0.00395931
-0.00135744
-0.00171944
-0.00708144
-0.0224208
-0.0177375
-0.0230543
-0.0283258
-0.0335973
-0.0338688
-0.0341629
-0.0444796
-0.0497738
-0.0500679
-0.0454072
-0.0557466
-0.0610407
-0.0513575
-0.0516968
-0.0520136
-0.057353
-0.0526923
-0.0530543
-0.0533711
-0.0536652
-0.0489819
-0.0442987
-0.0445475
-0.044819
-0.0401132
-0.040362
-0.0456335
-0.0459276
-0.0362218
-0.0364706
-0.0417195
-0.0419684
-0.0372173
-0.0424435
-0.0476697
-0.0479865
-0.0432806
-0.0435521
-0.0438236
-0.0440951
-0.0393892
-0.0396607
-0.0399322
-0.040181
-0.0404299
-0.0406561
-0.045905
-0.0411313
-0.0413123
-0.0414933
-0.0416516
-0.03681
-0.0319457
-0.0371041
-0.0322625
-0.0223982
-0.017534
-0.0176697
-0.0178055
-0.00796383
-0.00814483
-0.00832582
0.00142531
0.0111764
0.000950195
-0.0142987
-0.0195928
0.00513571
0.0448868
0.0896154
0.169366
0.244118
0.293891
0.338643
0.433371
0.533122
0.612873
0.67267
0.662511
0.622421
0.552375
0.472353
0.35233
0.197398
0.0225339
-0.187308
-0.327104
-0.351878
-0.341606
-0.321335
-0.306063
-0.290769
-0.280498
-0.260226
-0.244955
-0.239661
-0.219367
-0.194118
-0.153914
-0.12871
-0.113507
-0.0933485
-0.0782353
-0.0681222
-0.0679865
-0.0629186
-0.0578507
-0.0528055
-0.0528055
-0.0528055
-0.0528507
-0.0628507
-0.062896
-0.0579865
-0.058077
-0.0631901
-0.0633032
-0.0634616
-0.0636426
-0.0638236
-0.0640272
-0.0642761
-0.0645249
-0.0647059
-0.0649095
-0.0601132
-0.0603394
-0.0605657
-0.0658145
-0.0610408
-0.056267
-0.0564933
-0.0566969
-0.0519005
-0.0470815
-0.0522399
-0.0423982
-0.0375792
-0.0377602
-0.042896
-0.0380317
-0.0331901
-0.0333485
-0.0335295
-0.0237783
-0.00907243
-0.00934393
-0.0146154
-0.00988691
-0.00513577
-0.000362016
0.00441174
0.0141855
0.0139593
0.0137556
0.0135294
0.0183032
0.0180543
0.00785067
0.012647
0.0174208
0.0172172
0.0170588
0.0219683
0.0268552
0.0267873
0.0267421
0.0316968
0.0366742
0.0416516
0.0416968
0.0417421
0.0517647
0.0518552
0.0519683
0.0620588
0.0720588
0.0720588
0.0722172
0.0825339
0.0880316
0.0888461
0.0900452
0.101493
0.108145
0.105226
0.11276
0.115633
0.118778
0.1069
0.109842
0.112443
0.109661
0.0913574
0.0873755
0.0875565
0.0767646
0.0653393
0.0538234
0.0523529
0.0459728
0.0296606
0.0284388
0.0222397
0.0111311
0.000180926
-0.000746671
0.0033936
-0.002353
-0.00794123
-0.013439
-0.0138915
-0.0142534
-0.0195023
-0.0196833
-0.0198869
-0.0250453
-0.0251811
-0.0153394
-0.0205204
-0.0256788
-0.0308145
-0.0259729
-0.0211539
-0.0262896
-0.0214028
-0.0215385
-0.0216742
-0.0217874
-0.0219005
-0.0121041
-0.0125113
-0.0181222
-0.0239593
-0.0200679
-0.021448
-0.0229638
-0.0197512
-0.0169231
-0.0245701
-0.0275113
-0.0255204
-0.0284389
-0.0310634
-0.0383937
-0.0403394
-0.0417421
-0.0423529
-0.0421267
-0.0411991
-0.0399774
-0.0387104
-0.0374887
-0.0263122
-0.0152489
-0.00918552
-0.0130769
-0.00699094
-0.00599547
-0.0100452
-0.0141176
-0.00825791
-0.0075113
-0.00687782
-0.0113574
-0.00590496
-0.0054751
-0.00502261
-0.00957012
-0.0091855
-0.00382352
-0.00846152
-0.0131222
-0.0227828
-0.022466
-0.0271719
-0.0218778
-0.0165837
-0.0212896
-0.0209728
-0.0256335
-0.0252941
-0.02
-0.0246606
-0.0192986
-0.0239366
-0.0185747
-0.02319
-0.032828
-0.0274661
-0.0221041
-0.0117421
-0.0213348
-0.025905
-0.0254525
-0.025
-0.0245701
-0.0191176
-0.0186878
-0.0232353
-0.0228507
-0.0175113
-0.0121719
-0.0168326
-0.0215837
-0.0114027
-0.00626697
-0.00617647
-0.0111086
-0.011086
-0.0111312
-0.0112217
-0.0163801
-0.0116063
-0.0119231
-0.0323077
-0.0327602
-0.0282127
-0.0286199
-0.0240498
-0.0195249
-0.0150905
-0.0156787
-0.0262896
-0.0319457
-0.0276018
-0.0333032
-0.0339819
-0.024638
-0.0202262
-0.0258597
-0.0315385
-0.0372398
-0.0329638
-0.0386878
-0.0444344
-0.0451357
-0.0458597
-0.0516289
-0.0524208
-0.0332353
0.0109955
0.0552489
0.104525
0.163778
0.223032
0.257217
0.31638
0.400588
0.499842
0.569072
0.588303
0.567511
0.501606
0.440634
0.359638
0.233688
0.0677149
-0.113258
-0.269208
-0.340158
-0.346086
-0.331991
-0.322805
-0.298529
-0.289163
-0.284729
-0.280317
-0.26586
-0.25138
-0.241878
-0.222376
-0.192828
-0.158235
-0.133575
-0.118914
-0.114253
-0.114548
-0.114819
-0.110136
-0.100475
-0.0957919
-0.091086
-0.0913801
-0.0816968
-0.0720362
-0.0723756
-0.0726923
-0.068009
-0.0683484
-0.0687104
-0.0691177
-0.0595249
-0.0598643
-0.0652036
-0.065543
-0.0559729
-0.0514027
-0.0468326
-0.0472851
-0.0376923
-0.0330317
-0.0433032
-0.0486425
-0.0440498
-0.039457
-0.0398416
-0.0402489
-0.0357014
-0.0411086
-0.0414932
-0.0319005
-0.0323303
-0.0377149
-0.0380543
-0.0284389
-0.0187783
-0.0190724
-0.0243439
-0.0246606
-0.0100226
-0.00542986
-0.00588235
0.00859729
0.0231222
0.0277376
0.0323077
0.0318778
0.026448
0.0260181
0.0306109
0.0452262
0.0498416
0.0543665
0.0585747
0.0573529
0.0657919
0.0539819
0.0469457
0.0396154
0.0420136
0.0441403
0.0409502
0.0476471
0.0495475
0.0468326
0.0395022
0.0426923
0.0514706
0.0559955
0.0613348
0.0624434
0.0590045
0.0507013
0.0524887
0.059457
0.0766742
0.0840045
0.0815384
0.0793665
0.0826244
0.0861086
0.0995023
0.12767
0.145452
0.147783
0.139593
0.145701
0.146018
0.140543
0.139367
0.132873
0.126357
0.104864
0.093371
0.0820136
0.070724
0.0694796
0.0632353
0.0570362
0.045905
0.0397964
0.033733
0.0227828
0.00701356
0.00135744
0.00576921
-0.0047964
-0.010362
-0.00590499
-0.00142536
-0.00185523
-0.0122398
-0.0176471
-0.0230996
-0.0185068
-0.0238688
-0.0242534
-0.0196607
-0.0200453
-0.0154299
-0.0108371
-0.0112444
-0.021629
-0.0270136
-0.0224435
-0.00789596
-0.00334844
-0.00880094
-0.0142987
-0.0197964
-0.0302489
-0.0357014
-0.0312217
-0.0217873
-0.0223303
-0.0278281
-0.0233484
-0.00886879
-0.0193892
-0.0299321
-0.0254978
-0.0159955
-0.0214706
-0.0369683
-0.0324887
-0.0329638
-0.0383484
-0.043733
-0.0391629
-0.0295701
-0.0199095
-0.0102489
-0.000610869
-0.00585973
-0.0260407
-0.0362217
-0.0363801
-0.0315385
-0.0317421
-0.031991
-0.0322172
-0.0273982
-0.00755656
0.0522398
0.142036
0.221787
0.271561
0.32129
0.395995
0.460679
0.515385
0.580113
0.599864
0.559706
0.469593
0.379502
0.264434
0.134457
-0.0354525
-0.215339
-0.365136
-0.419887
-0.404661
-0.374457
-0.354231
-0.348937
-0.338575
-0.323167
-0.30276
-0.29733
-0.2769
-0.236471
-0.20595
-0.185317
-0.144615
-0.108914
-0.0782579
-0.0675566
-0.0718552
-0.0711765
-0.0704977
-0.069819
-0.0591855
-0.0486425
-0.0530995
-0.0576018
-0.0621719
-0.0567647
-0.0513575
-0.0509502
-0.0456109
-0.0352715
-0.0299095
-0.0345701
-0.0343213
-0.0341176
-0.0338461
-0.0336199
-0.0384389
-0.0382127
-0.0479412
-0.0526697
-0.0424661
-0.0322398
-0.0320362
-0.0318552
-0.0267194
-0.0215837
-0.0213801
-0.0211991
-0.0159955
-0.0157692
-0.0105203
-0.0103394
-0.00522623
-6.7858e-05
0.0101358
0.015362
0.0305656
0.0307466
0.0308824
0.0359276
0.0409502
0.0459955
0.0460634
0.0411312
0.0461765
0.0462444
0.0513801
0.0514706
0.0565385
0.0516516
0.0467874
0.0469231
0.0520362
0.052172
0.0422851
0.0423756
0.0474887
0.0426245
0.0428054
0.0480543
0.0533711
0.0437104
0.0440272
0.049276
0.0495249
0.0497512
0.055
0.0652715
0.0655656
0.0708371
0.0711539
0.0865837
0.0922851
0.103371
0.109842
0.111561
0.113529
0.115814
0.118394
0.121222
0.119367
0.112579
0.110633
0.108303
0.100566
0.087353
0.0835747
0.0840272
0.0685747
0.0572398
0.0554525
0.0484842
0.0413575
0.0290045
0.026448
0.0185747
0.0103394
-0.00328053
-0.00712669
-0.0108824
-0.0242534
-0.0271946
-0.0297511
-0.0315837
-0.0324434
-0.0372624
-0.0361991
-0.034638
-0.0329638
-0.0363122
-0.0297285
-0.0281222
-0.0365611
-0.0350905
-0.0287104
-0.0223756
-0.026086
-0.0298642
-0.023733
-0.0277149
-0.0368099
-0.0409955
-0.0352715
-0.0295927
-0.0389593
-0.0383258
-0.0326923
-0.0370588
-0.0414027
-0.0407918
-0.0352036
-0.0445927
-0.0439593
-0.0333258
-0.0276697
-0.0270136
-0.0363348
-0.0306335
-0.0299095
-0.0291629
-0.0334389
-0.0276923
-0.0169457
-0.0211991
-0.0154525
-0.014638
-0.0138009
-0.0129185
-0.00705881
0.00382355
0.00475114
0.00567874
0.0116063
0.0125566
0.0135068
0.0144344
0.015362
0.0163122
0.0122625
0.00819006
0.0140724
0.00997739
0.000859743
0.00169685
0.00751133
0.00828056
-0.000995463
-0.000294102
0.000361999
-0.00398189
-0.00832578
-0.0026923
-0.00212669
-0.0065837
-0.0160407
-0.0105656
-0.0101131
-0.0146606
-0.0191855
-0.0137556
-0.0183258
-0.0228959
-0.0224208
-0.0169457
-0.0214253
-0.0258597
-0.0303167
-0.0247964
-0.0242986
-0.0238009
-0.0283258
-0.0228959
-0.0275113
-0.0321267
-0.03181
-0.0416063
-0.0464706
-0.0463122
-0.0261991
0.0188235
0.0638235
0.118824
0.183733
0.253575
0.303348
0.383122
0.477805
0.582421
0.636991
0.636539
0.591063
0.525498
0.459955
0.339412
0.158891
-0.0416063
-0.227081
-0.342534
-0.368009
-0.363439
-0.348846
-0.344186
-0.324548
-0.309955
-0.295294
-0.290566
-0.275792
-0.256018
-0.236244
-0.206403
-0.171538
-0.146697
-0.131833
-0.121946
-0.112036
-0.112149
-0.11224
-0.117262
-0.122285
-0.122308
-0.122308
-0.117285
-0.112308
-0.112308
-0.11724
-0.112127
-0.111991
-0.116878
-0.121719
-0.121538
-0.11638
-0.116222
-0.116018
-0.110769
-0.105543
-0.110294
-0.110023
-0.104728
-0.099457
-0.104163
-0.108824
-0.103462
-0.0981222
-0.102738
-0.107353
-0.0969909
-0.0966742
-0.0963575
-0.0960407
-0.0857466
-0.0804751
-0.0902036
-0.0849095
-0.0696606
-0.0644344
-0.0641855
-0.053914
-0.0436878
-0.0384615
-0.0382353
-0.033009
-0.0228054
-0.0176018
-0.0123756
-0.00717195
0.00798643
0.0131448
0.0183258
0.0234842
0.0335973
0.038733
0.0388688
0.0439593
0.0490271
0.0491176
0.0442081
0.049276
0.0542986
0.0593213
0.0593665
0.0644118
0.0694344
0.0694796
0.0645249
0.0745475
0.0895249
0.0894344
0.0793665
0.0892986
0.0943213
0.0895475
0.09
0.105679
0.116606
0.122851
0.124344
0.141199
0.153484
0.156267
0.164366
0.172466
0.185271
0.182624
0.184457
0.180407
0.175136
0.163778
0.156357
0.158077
0.144185
0.129932
0.115566
0.116199
0.112172
0.0934615
0.080181
0.0723981
0.065362
0.0592307
0.0489366
0.0393665
0.0351583
0.0259954
0.0268325
0.0276244
0.0234389
0.0192081
0.00993211
0.00554297
0.00106333
-0.00348417
-0.0031448
-0.00291856
-0.00780543
-0.0127828
-0.0178733
-0.0230091
-0.0281674
-0.0333258
-0.0385294
-0.0337783
-0.0390045
-0.0442308
-0.044457
-0.0447059
-0.0449321
-0.0501584
-0.0553846
-0.0506109
-0.0507919
-0.0509728
-0.0561765
-0.0513801
-0.0565611
-0.0566968
-0.0518778
-0.0420136
-0.0421493
-0.0422624
-0.0424208
-0.0425792
-0.0377376
-0.0479186
-0.0480996
-0.0432127
-0.0433032
-0.0483937
-0.0484615
-0.0485068
-0.0485294
-0.0535294
-0.053552
-0.0485294
-0.0534842
-0.0533937
-0.0532805
-0.0481222
-0.0529185
-0.0527149
-0.0475113
-0.0472851
-0.0520362
-0.0467873
-0.0415611
-0.0413575
-0.0461765
-0.0460181
-0.0408597
-0.0357014
-0.0405204
-0.0403394
-0.0401584
-0.0399774
-0.0447964
-0.0446606
-0.0345023
-0.029276
-0.0390498
-0.0388688
-0.0386652
-0.0384389
-0.0432127
-0.0379864
-0.0276923
-0.0273756
-0.0320362
-0.0316968
-0.0313122
-0.035905
-0.0504977
-0.0500905
-0.0296833
0.0057466
0.0561312
0.131448
0.221697
0.261923
0.312127
0.387308
0.497489
0.582602
0.62267
0.62767
0.57267
0.51767
0.437602
0.332511
0.182398
0.00228506
-0.162805
-0.292941
-0.3381
-0.323281
-0.308439
-0.288575
-0.28371
-0.273869
-0.264005
-0.244163
-0.229344
-0.214502
-0.189661
-0.159819
-0.129977
-0.110136
-0.0902941
-0.0754977
-0.070724
-0.0759502
-0.0711539
-0.0613801
-0.0615837
-0.0617873
-0.0620136
-0.0522172
-0.0524208
-0.0576018
-0.0577828
-0.053009
-0.0582127
-0.0633937
-0.0635068
-0.0586652
-0.0588235
-0.0739819
-0.0691177
-0.0692308
-0.0693213
-0.0743891
-0.064457
-0.0545249
-0.0495928
-0.0545928
-0.049638
-0.0497285
-0.049819
-0.0498869
-0.0449548
-0.0400679
-0.0402036
-0.0452941
-0.0353846
-0.0354977
-0.0355882
-0.0406561
-0.0407014
-0.0357466
-0.0407919
-0.0358824
-0.0309955
-0.0261086
-0.0261991
-0.026267
-0.0163122
-0.00638009
-0.00142534
-0.00149322
0.00339366
0.00828054
0.00819004
0.00812217
0.0130769
0.0180317
0.0179864
0.0229412
0.0278733
0.0278507
0.0278959
0.0279186
0.0329186
0.0329186
0.0279186
0.0278733
0.0278507
0.0328507
0.0328959
0.0329186
0.0378959
0.0428507
0.0427828
0.0476471
0.0525113
0.0574661
0.0625792
0.0779186
0.0885973
0.0897059
0.0859955
0.0875113
0.0943439
0.101674
0.104412
0.11233
0.120226
0.122851
0.125204
0.122217
0.123733
0.119593
0.109638
0.108891
0.102511
0.100928
0.084457
0.0780317
0.0766968
0.0753846
0.0641177
0.0578733
0.0567195
0.0456335
0.039638
0.0387556
0.0380317
0.0324661
0.0269909
0.0316063
0.0312896
0.0259955
0.0156787
0.0153394
0.0150453
0.00977376
0.00952489
0.0042534
0.00402715
-0.00117646
-0.00640271
-0.00162895
-0.00183257
-0.0070362
-0.0222624
-0.0174661
-0.0126471
-0.0178281
-0.0230769
-0.0232805
-0.0184615
-0.0236652
-0.023914
-0.0241629
-0.0243439
-0.0345023
-0.0346833
-0.024819
-0.0199547
-0.0250679
-0.030181
-0.0202489
-0.0152941
-0.0253167
-0.0304299
-0.0256335
-0.0259955
-0.0366516
-0.0426697
-0.0439593
-0.040362
-0.0371267
-0.0342308
-0.0316516
-0.0391629
-0.0516063
-0.0538235
-0.0456787
-0.0522624
-0.0534163
-0.0439819
-0.0388235
-0.0378733
-0.046448
-0.0498869
-0.0483032
-0.0467421
-0.0502036
-0.0437104
-0.0422398
-0.0508371
-0.0544796
-0.0481448
-0.0468326
-0.0456335
-0.0396154
-0.0387104
-0.0329412
-0.0422851
-0.0417647
-0.0312896
-0.0257919
-0.0252489
-0.0247285
-0.0241855
-0.0235973
-0.023009
-0.0224434
-0.0218326
-0.0261538
-0.0254751
-0.0248416
-0.0192081
-0.0185068
-0.0227828
-0.0220814
-0.0113348
-0.0055656
0.000181008
-0.00414026
0.00151585
-0.00282804
-0.00223981
0.00828056
0.0188235
0.0193213
0.00977377
0.0151358
0.0154525
0.0157919
0.0161539
0.0214932
0.0218552
0.0222398
0.0175113
0.0177149
0.0128959
0.00805431
0.00814481
0.00821268
0.0083258
0.00843892
0.00846155
0.0184389
0.0183711
0.0132806
0.00816743
0.0130543
0.0129864
0.00794119
0.00782807
0.00764707
0.00746608
0.00226246
0.00201359
-0.00328053
-0.0035294
-0.00377827
-0.00409501
-0.00945701
-0.0148416
-0.0102036
-0.00561085
0.00404978
-0.00126696
-0.00162895
-0.00208144
-0.00751131
-0.00789592
-0.0132805
-0.0136878
-0.0191176
-0.0195023
-0.0248642
-0.0102715
0.0192987
0.0538914
0.118439
0.192941
0.252421
0.281855
0.356244
0.435634
0.510045
0.534502
0.518891
0.46819
0.397466
0.346787
0.256063
0.125317
-0.030362
-0.200995
-0.306629
-0.337308
-0.337964
-0.328597
-0.324208
-0.309819
-0.300362
-0.285905
-0.276471
-0.272014
-0.262489
-0.237941
-0.203348
-0.178688
-0.149005
-0.119299
-0.089638
-0.0799548
-0.0802036
-0.0854299
-0.0806561
-0.0808371
-0.0859955
-0.0811538
-0.0713575
-0.0665385
-0.0716968
-0.0719005
-0.0670814
-0.0672172
-0.0773077
-0.0774208
-0.0725339
-0.0776244
-0.0776923
-0.0727828
-0.0578281
-0.0578733
-0.0578733
-0.0478959
-0.0428959
-0.0478281
-0.0427149
-0.0326018
-0.0274887
-0.0223529
-0.0272172
-0.0320815
-0.0369005
-0.0466742
-0.0514706
-0.0362896
-0.026086
-0.020905
-0.0157692
-0.00567874
-0.00554298
-0.0104072
-0.0102941
0.00479638
0.0049095
0.0150679
0.0202036
0.0202941
0.0204072
0.00556561
0.000723986
0.0108597
0.0210181
0.0261765
0.0313122
0.036448
0.0315837
0.0266742
0.0317421
0.04181
0.0468778
0.0519005
0.0518778
0.0569004
0.0419457
0.0370136
0.0470362
0.0570588
0.0521041
0.0521041
0.0570814
0.0570588
0.0570588
0.0569909
0.0568778
0.0567421
0.0566968
0.0567873
0.0670362
0.0676244
0.0685747
0.079819
0.0962217
0.102986
0.105113
0.102466
0.114751
0.126787
0.133348
0.134253
0.139683
0.14448
0.138326
0.130995
0.127489
0.123439
0.109299
0.100407
0.0918326
0.0836199
0.071086
0.0693665
0.0635747
0.0535294
0.0438235
0.0392308
0.0296833
0.0202489
0.0158824
0.0166063
0.0174434
0.0133484
0.00923077
0.0100453
0.0107692
0.0013801
-0.00316742
-0.00282805
0.00744345
0.00269231
-0.00210406
0.0030543
-0.0017647
-0.0115611
-0.0163801
-0.011267
-0.0161538
-0.0210407
-0.0159728
-0.0059276
-0.0108371
-0.0156787
-0.0205204
-0.020362
-0.0251358
-0.0299095
-0.0297059
-0.0295023
-0.0392308
-0.0389367
-0.0386199
-0.0383484
-0.0481222
-0.0529186
-0.0477828
-0.0426471
-0.0524208
-0.0471493
-0.0418552
-0.0365385
-0.0461765
-0.0458145
-0.0404751
-0.0351357
-0.0397511
-0.0393439
-0.0338914
-0.0283937
-0.0379186
-0.0424661
-0.0421041
-0.0417421
-0.0463348
-0.0459276
-0.0404977
-0.0450905
-0.044638
-0.0392308
-0.0338688
-0.0335068
-0.0331448
-0.0278054
-0.0224661
-0.0271267
-0.02681
-0.0215837
-0.0163801
-0.0161538
-0.0208824
-0.0156561
-0.0104299
-0.015181
-0.0199321
-0.00970588
0.000542987
0.000791848
-0.00398191
-0.00375567
-0.00352941
-0.0132805
-0.0180543
-0.0228507
-0.0275792
-0.0322624
-0.0319909
-0.00671944
0.0334842
0.0736878
0.128914
0.20414
0.259367
0.30957
0.389774
0.494932
0.585068
0.600204
0.590317
0.53543
0.475543
0.400634
0.265701
0.0957919
-0.094095
-0.249005
-0.318937
-0.333846
-0.318756
-0.308733
-0.29871
-0.288665
-0.283597
-0.268507
-0.253416
-0.238326
-0.223235
-0.193122
-0.158054
-0.137964
-0.117851
-0.102692
-0.0875566
-0.0824208
-0.0872624
-0.0871493
-0.0820588
-0.0769683
-0.0768778
-0.0717873
-0.0666968
-0.0615611
-0.0664253
-0.0662896
-0.0661538
-0.0660181
-0.0709049
-0.0658145
-0.0657013
-0.0606108
-0.0655203
-0.0654751
-0.065362
-0.0602715
-0.0552036
-0.0551584
-0.0501131
-0.0550452
-0.06
-0.06
-0.0599547
-0.0599095
-0.0598416
-0.059819
-0.0597737
-0.0597285
-0.0546606
-0.0595928
-0.0595023
-0.0644118
-0.0593213
-0.0542534
-0.0491855
-0.0541403
-0.054095
-0.0440498
-0.0440045
-0.0339593
-0.0389367
-0.0338914
-0.0288235
-0.023733
-0.0136425
-0.00352941
0.00160634
0.00176471
0.0119231
0.0171041
0.0173077
0.0225113
0.0227149
0.0279186
0.0281222
0.0283484
0.0285747
0.0338009
0.0290724
0.0293892
0.0347059
0.035
0.0352489
0.0404751
0.045724
0.0509502
0.0461312
0.051267
0.0664027
0.0665611
0.07681
0.0872172
0.0928054
0.0986199
0.0997511
0.111131
0.11776
0.124751
0.127217
0.130113
0.138122
0.131086
0.128801
0.131244
0.133371
0.119864
0.115566
0.11543
0.109615
0.0934842
0.0873077
0.0911991
0.0801584
0.0691629
0.0632127
0.0572624
0.0513801
0.0455656
0.044819
0.0391403
0.0385747
0.0281448
0.0227602
0.0224887
0.0222851
0.0171493
0.0170362
0.0219005
0.0166516
0.0111991
0.0155656
0.00968325
0.0035294
-0.00289594
0.00545247
-0.00158374
-0.00900456
-0.0169231
-0.0151132
-0.0183258
-0.0312896
-0.0290046
-0.0314254
-0.0333937
-0.0495928
-0.0448417
-0.0391403
-0.0428507
-0.0464027
-0.0449774
-0.0336199
-0.0323303
-0.036086
-0.0298869
-0.0287557
-0.0276471
-0.0316064
-0.0256561
-0.024819
-0.0290272
-0.0333937
-0.0279412
-0.0226018
-0.0272625
-0.0319005
-0.0265385
-0.0261312
-0.030724
-0.030362
-0.0250453
-0.0246833
-0.0293213
-0.0289367
-0.0285294
-0.0280769
-0.032534
-0.0319683
-0.0314027
-0.0358145
-0.0401584
-0.0395023
-0.0338688
-0.0332127
-0.0375792
-0.0319457
-0.0313349
-0.035724
-0.0400905
-0.0394797
-0.038914
-0.0383484
-0.0377376
-0.027172
-0.021629
-0.0360634
-0.0354751
-0.0299095
-0.0243665
-0.0287783
-0.0331448
-0.0275566
-0.0219231
-0.0212217
-0.0155204
-0.00986426
-0.00920814
-0.0135068
-0.0128281
-0.012172
-0.0165158
-0.0258597
-0.0252263
-0.0246833
-0.0241629
-0.0286426
-0.0231674
-0.0178054
-0.0224661
-0.0271041
-0.0267873
-0.0315611
-0.0313575
-0.0361539
-0.0360407
-0.0360181
-0.0309955
-0.0309729
-0.0309729
-0.0310181
-0.0310407
-0.026086
-0.0211539
-0.0112896
-0.016448
-0.0166063
-0.01681
-0.0170588
-0.0173077
0.00744345
0.0571267
0.101742
0.15638
0.221018
0.285634
0.340204
0.419819
0.504389
0.613891
0.673371
0.672873
0.622353
0.566787
0.506267
0.400747
0.230249
0.0196833
-0.185837
-0.311312
-0.346833
-0.337376
-0.327896
-0.318303
-0.308688
-0.299095
-0.284434
-0.279729
-0.265
-0.245294
-0.22052
-0.205724
-0.175905
-0.136109
-0.116267
-0.11138
-0.111516
-0.106674
-0.121787
-0.121878
-0.101968
-0.0920362
-0.0920814
-0.0971041
-0.0971267
-0.0971493
-0.102149
-0.112149
-0.107149
-0.102172
-0.107172
-0.112172
-0.107195
-0.10224
-0.102262
-0.0972624
-0.0923077
-0.0873529
-0.0873755
-0.0923982
-0.0824434
-0.0774887
-0.0774887
-0.082466
-0.0724434
-0.0673982
-0.0673077
-0.067285
-0.0573077
-0.0573303
-0.0623077
-0.057285
-0.0473077
-0.0473303
-0.052285
-0.0472624
-0.0322398
-0.0321945
-0.032104
-0.0220362
-0.0120135
-0.0119909
-0.0119909
-0.00201353
0.00794122
0.00794122
0.00794122
0.0179186
0.0278733
0.0278507
0.0228055
0.027715
0.0326245
0.0325114
0.0373982
0.0472399
0.0570589
0.0518779
0.0467195
0.0465385
0.0513575
0.0461991
0.0460408
0.0508371
0.0556335
0.0554978
0.0552942
0.0650905
0.0698643
0.0696607
0.074457
0.0842987
0.0943666
0.0946607
0.0902263
0.091086
0.0972625
0.0986878
0.10543
0.117511
0.120113
0.123009
0.130882
0.133484
0.13086
0.133009
0.129683
0.130588
0.125566
0.119615
0.1231
0.121425
0.114819
0.0982806
0.0917648
0.0902715
0.0788236
0.0674887
0.0611313
0.0597964
0.0485973
0.042534
0.0315385
0.0306788
0.0250227
0.0194344
0.0188462
0.0182353
0.0126923
0.00712673
0.00153849
-0.00398187
-0.00443436
-0.00984161
-0.0152941
-0.0157692
-0.0212217
-0.0216968
-0.0272398
-0.0227828
-0.0282579
-0.0337556
-0.0342986
-0.029819
-0.0302941
-0.0357918
-0.031267
-0.0266968
-0.0321267
-0.0377375
-0.0386651
-0.0398642
-0.0513575
-0.0581674
-0.0603167
-0.0576923
-0.0654072
-0.0685746
-0.0621493
-0.060724
-0.069095
-0.0772172
-0.0749321
-0.0722172
-0.0838461
-0.0796832
-0.0744796
-0.0734615
-0.0821946
-0.0809955
-0.0698643
-0.0687556
-0.0676244
-0.0715158
-0.0654072
-0.0743213
-0.0732579
-0.0722624
-0.0613575
-0.0605204
-0.059819
-0.0542986
-0.053914
-0.0535973
-0.0533258
-0.0480995
-0.0428959
-0.0426697
-0.0424661
-0.0373077
-0.0371267
-0.0419231
-0.0417647
-0.0266516
-0.0214932
-0.0262896
-0.016086
-0.015905
-0.0107013
-0.0154977
-0.0153394
-0.000180993
2.26274e-05
-0.00468326
-0.00936651
-0.00904977
-0.0137104
-0.013371
-0.00307691
0.00719458
0.00251132
-0.00214932
0.0031448
0.0134389
0.00871042
-0.00101808
-0.000791844
-0.00058822
-0.00536197
-0.00513573
-0.00497735
-0.00481898
-0.00966061
-0.0145249
-0.00945699
-0.00441174
-0.00432124
-0.014276
-0.00436649
0.00538464
-0.00493211
-0.0103167
-0.0107466
-0.0112443
-0.0167194
-0.0122398
-0.00782803
-0.00346152
-0.014095
-0.0247511
-0.0204525
-0.0161765
-0.0218778
-0.0326018
-0.028371
-0.0241855
-0.0299774
-0.0308145
-0.0267194
-0.0226923
-0.0335973
-0.0345023
-0.0304525
-0.0313575
-0.0372172
-0.0330995
-0.0340498
-0.0399321
-0.035724
0.00341629
0.0674887
0.136561
0.205656
0.274661
0.343597
0.402534
0.481493
0.58043
0.669299
0.678213
0.632127
0.570973
0.484774
0.39862
0.252511
0.0713575
-0.154774
-0.320837
-0.376855
-0.362896
-0.338891
-0.324774
-0.330633
-0.326471
-0.317308
-0.303054
-0.298824
-0.284615
-0.255385
-0.231041
-0.201606
-0.167127
-0.132602
-0.1131
-0.103597
-0.089095
-0.0745023
-0.0698416
-0.0701584
-0.0655204
-0.0708597
-0.0711765
-0.0665158
-0.0568326
-0.0620588
-0.0672398
-0.0674661
-0.0626697
-0.0578507
-0.0529638
-0.0430995
-0.0382353
-0.0382805
-0.0483032
-0.053371
-0.0584615
-0.0635294
-0.0586199
-0.048733
-0.0388235
-0.0388688
-0.0439593
-0.034095
-0.0291855
-0.0242081
-0.0292534
-0.0193665
-0.0194796
-0.0245701
-0.0296832
-0.019819
-0.0149547
-0.0150679
-0.0152036
-0.0153846
-0.0155204
-0.0256109
-0.025724
-0.00588235
0.0240045
0.0389593
0.0438688
0.0487783
0.0536878
0.0486199
0.0535294
0.0634615
0.0734163
0.073371
0.0732806
0.0781448
0.0780543
0.0679864
0.0728733
0.0776923
0.0825339
0.0773756
0.0822172
0.0970588
0.106946
0.0968778
0.0917195
0.0964253
0.0859502
0.080181
0.0840045
0.0925113
0.0808145
0.0638235
0.0714706
0.0788462
0.0761991
0.0686878
0.0766516
0.085181
0.0843891
0.0843213
0.0852489
0.102466
0.106018
0.115475
0.130091
0.139434
0.138326
0.136765
0.13948
0.141335
0.132081
0.121991
0.116584
0.106176
0.0907692
0.0852489
0.0795475
0.0737783
0.0579638
0.0520815
0.0561539
0.0503168
0.0346154
0.0139593
0.00343892
-0.00190045
0.00294117
0.00285068
0.0027828
-0.0121719
-0.0220362
-0.0268778
-0.0167421
-0.0165385
-0.0213575
-0.0211765
-0.0259502
-0.0306561
-0.0354299
-0.0302489
-0.0250452
-0.0297964
-0.0395249
-0.0392534
-0.0389366
-0.0435973
-0.0483032
-0.0430543
-0.0428281
-0.0476018
-0.0473982
-0.0422172
-0.036991
-0.0367421
-0.0314932
-0.0262896
-0.0310181
-0.0357466
-0.0354977
-0.0302941
-0.0300453
-0.034819
-0.0346606
-0.0295475
-0.0293891
-0.0342081
-0.0340498
-0.028914
-0.0337783
-0.0386652
-0.0336425
-0.0336199
-0.0334615
-0.0381674
-0.0378281
-0.0424434
-0.0420136
-0.0465837
-0.0461991
-0.0457692
-0.0452489
-0.0396833
-0.0391176
-0.0385294
-0.0429186
-0.0423303
-0.0368326
-0.0313122
-0.0307919
-0.0252941
-0.0298643
-0.0294118
-0.0338914
-0.0384163
-0.0280091
0.00235294
0.0477149
0.112986
0.19819
0.273462
0.318733
0.378937
0.464072
0.564276
0.634525
0.674774
0.640023
0.585339
0.505724
0.406154
0.266629
0.0821041
-0.122353
-0.31181
-0.391222
-0.390543
-0.374842
-0.35914
-0.343439
-0.332715
-0.311946
-0.291199
-0.275452
-0.259729
-0.23405
-0.193439
-0.157828
-0.13724
-0.116674
-0.0861538
-0.0706561
-0.0751131
-0.0745928
-0.0591177
-0.058733
-0.0633937
-0.0680769
-0.0627376
-0.0573982
-0.0670815
-0.0718326
-0.0716064
-0.0663801
-0.0761086
-0.0758597
-0.0756335
-0.0804073
-0.0852036
-0.075
-0.0697964
-0.0746154
-0.0794118
-0.0792308
-0.0740724
-0.073914
-0.0737783
-0.0636652
-0.0635521
-0.0633937
-0.0682579
-0.0681222
-0.0579864
-0.0578281
-0.0526923
-0.0525792
-0.0474208
-0.0522172
-0.0470362
-0.0368552
-0.0316742
-0.0314706
-0.026267
-0.0160634
-0.010905
-0.0107466
-0.0105882
-0.00542987
-0.000271505
-0.000113131
0.00502262
0.0151357
0.0152715
0.00540723
0.0055656
0.010724
0.00590497
0.00104072
0.0061991
0.0113575
0.00651583
-0.0033258
-0.0031448
-0.00291855
-0.00771494
-0.00751132
-0.00228507
0.0079638
0.00819004
0.0134163
0.0236878
0.0340045
0.034276
0.0345475
0.054819
0.0600905
0.065362
0.0707692
0.0814027
0.0923303
0.0836199
0.0952489
0.102127
0.104253
0.101742
0.104683
0.107964
0.106425
0.104729
0.102783
0.0954751
0.0877376
0.0893439
0.0901132
0.09
0.0840046
0.0726018
0.0712218
0.0649095
0.0586652
0.0524661
0.0413349
0.0353168
0.0243439
0.0234389
0.0226245
0.0219231
0.0163801
0.0159955
0.0157014
0.0104978
0.0104073
0.00536202
0.00531677
0.000271518
0.000271518
0.000248894
0.000226274
0.000158396
4.52772e-05
0.00495478
0.00481904
-0.000361957
-0.0055882
-0.00579182
-0.00104069
-0.00133481
-0.00165155
-0.00201355
-0.00737554
-0.0127149
-0.00305428
-0.00339364
-0.00373302
-0.00907239
-0.00938914
-0.00472851
-0.00513576
-0.0107014
-0.0166063
-0.0128054
-0.0193213
-0.0210634
-0.0230769
-0.0154299
-0.0130769
-0.0211312
-0.0293439
-0.0325113
-0.0403394
-0.0428959
-0.0450453
-0.0466742
-0.0526697
-0.0427602
-0.036991
-0.0356787
-0.0392534
-0.0379186
-0.031629
-0.0303394
-0.0290045
-0.0276697
-0.0264254
-0.0302489
-0.0341177
-0.0380317
-0.0321041
-0.0362896
-0.0405656
-0.0399774
-0.0395249
-0.0441629
-0.0488009
-0.0434842
-0.0432127
-0.0529412
-0.0576471
-0.0473303
-0.0420136
-0.0516516
-0.0562444
-0.0508371
-0.0504299
-0.055
-0.0595023
-0.0489819
-0.0484389
-0.0528507
-0.0521946
-0.0465158
-0.0458823
-0.0552036
-0.0495023
-0.0438235
-0.0431674
-0.0475113
-0.0468778
-0.046267
-0.0456787
-0.0450905
-0.0496154
-0.0441855
-0.043733
-0.0532805
-0.0478507
-0.0374887
-0.0421719
-0.0418778
-0.041629
-0.0364253
-0.0412443
-0.0461086
-0.0360407
-0.0360407
-0.0410407
-0.0410407
-0.0360633
-0.0361538
-0.036267
-0.0363801
-0.0315611
-0.0267647
-0.0319909
-0.0322172
-0.0274661
-0.0227149
-0.0279638
-0.0232353
-0.0085294
-0.00884615
-0.00911763
-0.00441176
0.00522625
0.00479639
0.00438915
0.0139819
0.0185294
0.0230995
0.0176697
0.0222172
0.0267194
0.021267
0.0158371
0.015362
0.014819
0.019276
0.0337783
0.0782579
0.152692
0.217127
0.281606
0.331041
0.400385
0.474751
0.54414
0.633507
0.67276
0.656968
0.586199
0.535339
0.44948
0.33362
0.197783
0.00690044
-0.178937
-0.299729
-0.325475
-0.301244
-0.287014
-0.287692
-0.293326
-0.283959
-0.26457
-0.260091
-0.250588
-0.236109
-0.206629
-0.187081
-0.162511
-0.127964
-0.103394
-0.0937783
-0.0941855
-0.0846154
-0.08
-0.080362
-0.0807466
-0.0761765
-0.0765385
-0.08181
-0.0821041
-0.0724208
-0.0726923
-0.0779186
-0.0731674
-0.0734615
-0.0737104
-0.0789367
-0.0841855
-0.079457
-0.0796833
-0.0798869
-0.0801357
-0.075362
-0.0755656
-0.075724
-0.0709276
-0.0711312
-0.0713122
-0.0764932
-0.0616968
-0.0619683
-0.0671719
-0.0673756
-0.0626244
-0.0528507
-0.0530091
-0.0481674
-0.0433484
-0.038552
-0.0387557
-0.0389593
-0.0292082
-0.0244344
-0.024638
-0.0248643
-0.0200905
-0.0103167
-0.00552037
-0.00570136
0.00411764
0.00895927
0.00882353
0.00866516
0.00848416
0.00832579
0.00821267
0.0130769
0.0179412
0.0228733
0.0177828
0.0226697
0.0325792
0.0425339
0.0374887
0.0424434
0.0524208
0.0473982
0.0473756
0.0473077
0.0522398
0.0521946
0.0471267
0.0570362
0.0669457
0.0668778
0.0618326
0.0668778
0.0721493
0.0677602
0.0637104
0.0699548
0.0914254
0.0882127
0.095362
0.107851
0.130724
0.138778
0.136765
0.154434
0.156878
0.158959
0.155543
0.161516
0.161629
0.155928
0.144706
0.143371
0.142104
0.125882
0.114661
0.113416
0.10724
0.0861991
0.075181
0.0742082
0.0683032
0.0575792
0.0469231
0.0463348
0.040905
0.0306561
0.0304525
0.0302036
0.025
0.019819
0.0146154
0.0193891
0.0142081
-0.000904979
-0.0060181
-0.00613122
-0.0111991
-0.0212896
-0.021629
-0.0172398
-0.01819
-0.0244118
-0.0259729
-0.0228507
-0.03
-0.0375566
-0.0405204
-0.0438688
-0.0470815
-0.0600226
-0.0576244
-0.059819
-0.0665385
-0.0674887
-0.0625792
-0.0516968
-0.0602715
-0.0588009
-0.0574434
-0.0561312
-0.0597964
-0.0635294
-0.0573756
-0.0512443
-0.0451131
-0.0490045
-0.0429864
-0.036991
-0.0410407
-0.0402489
-0.0396154
-0.0340498
-0.0384615
-0.0428733
-0.0422851
-0.0416742
-0.041086
-0.040543
-0.035
-0.0343891
-0.0387557
-0.0381448
-0.0325339
-0.0318778
-0.0261991
-0.0205882
-0.0199548
-0.0192534
-0.0185068
-0.0178281
-0.0121267
-0.00638009
-0.000701359
0.00495476
0.0106109
0.0113122
0.0120136
0.0126697
0.0133937
0.00918552
0.00995475
0.00563348
0.00128959
0.00199095
-0.00733032
-0.00667421
-0.00599547
-0.00522624
-0.00950226
-0.0137783
-0.00798643
-0.0071267
-0.00626697
-0.00545249
-0.00457013
-0.00871041
-0.0128959
-0.0121267
-0.0113575
-0.0156335
-0.0199774
-0.0193665
-0.00875567
-0.0031448
-0.00266968
-0.00228507
-0.00690045
-0.0165837
-0.0163801
-0.0162217
-0.0160407
-0.025905
-0.0208371
-0.0108145
-0.0107919
-0.0258145
-0.0258824
-0.0159502
-0.0160407
-0.0161765
-0.0113575
-0.00658372
-0.0117647
-0.0269683
-0.0322398
-0.0325113
-0.0327828
-0.0281222
0.0214932
0.0861086
0.160724
0.220294
0.289796
0.354299
0.418778
0.508213
0.597602
0.682014
0.656448
0.59586
0.520249
0.434706
0.329186
0.158643
-0.0368778
-0.237353
-0.35776
-0.373213
-0.34862
-0.333937
-0.329231
-0.31457
-0.284887
-0.275136
-0.270339
-0.265475
-0.245566
-0.230611
-0.215633
-0.180701
-0.145792
-0.125882
-0.120905
-0.11595
-0.115996
-0.110995
-0.101018
-0.0910634
-0.0911086
-0.106109
-0.111086
-0.106109
-0.101131
-0.106109
-0.106063
-0.0959955
-0.0958823
-0.100769
-0.100679
-0.0905656
-0.0904072
-0.090181
-0.0799548
-0.0747059
-0.0743891
-0.079095
-0.0788914
-0.073733
-0.0784842
-0.08319
-0.0779186
-0.0626697
-0.0524208
-0.0572172
-0.0570362
-0.0569005
-0.0567195
-0.0564932
-0.0512896
-0.0461312
-0.0509502
-0.0457692
-0.0406335
-0.0354977
-0.0353167
-0.0301584
-0.0200453
-0.0149774
-0.00988688
0.000158373
0.010181
0.010181
0.0102036
0.0102715
0.0253394
0.0354072
0.0354751
0.0454977
0.0504525
0.0504072
0.0454299
0.0504751
0.0554751
0.0555204
0.0555882
0.0606109
0.060543
0.0604977
0.0654751
0.0704299
0.0753846
0.0803846
0.0753846
0.0753394
0.0752262
0.0700679
0.0698869
0.0797059
0.0795928
0.0797285
0.085181
0.0959955
0.107036
0.10819
0.119321
0.125294
0.131357
0.127534
0.123778
0.12957
0.124796
0.114412
0.108371
0.106991
0.100158
0.0928281
0.085
0.0821267
0.0699095
0.0485973
0.0432353
0.0484389
0.0387331
0.0290724
0.0243439
0.0145702
-0.000226229
-0.00499999
-0.00477375
0.000429871
0.00576923
0.00615385
-0.00352941
-0.00337104
-0.00832579
-0.0184163
-0.0136425
-0.0088914
-0.00909502
-0.014276
-0.0195701
-0.0149095
-0.0152715
-0.0206561
-0.026086
-0.0264706
-0.03181
-0.0321719
-0.0275792
-0.0329412
-0.0432579
-0.0536199
-0.0489593
-0.049276
-0.0595701
-0.0499095
-0.0302941
-0.0207014
-0.041086
-0.0514706
-0.0518778
-0.0472624
-0.0526018
-0.0479186
-0.0432353
-0.0435068
-0.0538009
-0.0641176
-0.0594344
-0.0547059
-0.0649774
-0.0603167
-0.0506561
-0.0509502
-0.0612443
-0.0565385
-0.05181
-0.0470136
-0.0522172
-0.0424208
-0.0426018
-0.0427602
-0.0479638
-0.0481674
-0.0433484
-0.0434615
-0.0435747
-0.038733
-0.0338235
-0.0338914
-0.0490045
-0.0541629
-0.0542986
-0.0594344
-0.0546154
-0.0447964
-0.0399548
-0.0451358
-0.0403394
-0.0355204
-0.0356561
-0.0407692
-0.0358823
-0.0309955
-0.031086
-0.0261765
-0.0213348
-0.0214932
-0.0315837
-0.0366968
-0.0418778
-0.0470588
-0.0371719
0.00773757
0.0776018
0.177534
0.247511
0.312489
0.382398
0.457262
0.522172
0.582036
0.641833
0.611629
0.541448
0.456244
0.366018
0.255837
0.0956787
-0.0795023
-0.274751
-0.394955
-0.400113
-0.380339
-0.355566
-0.340792
-0.331018
-0.316312
-0.301584
-0.28181
-0.276991
-0.252149
-0.217285
-0.177421
-0.147579
-0.11776
-0.0829864
-0.0681674
-0.0683258
-0.0735068
-0.0636425
-0.0587783
-0.0488688
-0.0389819
-0.034095
-0.0441855
-0.0442986
-0.0394344
-0.0345701
-0.0446606
-0.0447964
-0.0349774
-0.040181
-0.035362
-0.035543
-0.0258145
-0.0210407
-0.0161765
-0.0163122
-0.0215611
-0.02181
-0.0220588
-0.0173077
-0.0126018
-0.0178507
-0.0280543
-0.0232805
-0.0185747
-0.018914
-0.0242081
-0.0194796
-0.00977375
-0.005
-0.010181
-0.00533937
-0.00556561
-0.00574661
-0.010905
-0.00604073
-0.0011991
0.00373303
0.00864253
0.0185294
0.0183937
0.0132579
0.0131674
0.0230543
0.0329185
0.0278281
0.0277602
0.0376697
0.0425113
0.0423756
0.0472172
0.0570362
0.0569005
0.0568326
0.0617873
0.0666968
0.0666968
0.0617647
0.06181
0.0666968
0.0614253
0.055905
0.0550226
0.0638235
0.0623982
0.0557466
0.0586199
0.0710407
0.0730091
0.064819
0.0667195
0.0740498
0.0670362
0.0608597
0.0656787
0.0766063
0.0837557
0.0821041
0.0911765
0.100611
0.100226
0.0996154
0.103643
0.10724
0.0954073
0.0929638
0.0897285
0.0856561
0.0706335
0.0649548
0.069095
0.0582127
0.0523529
0.041448
0.0404977
0.0296154
0.0188009
0.0130543
0.0122851
0.00660633
-0.00391404
0.000746599
0.000520355
0.000452482
-0.0044344
-0.00423077
0.000950222
-0.0138914
-0.0186425
-0.0233484
-0.0180317
-0.0226244
-0.0321719
-0.0267647
-0.0264027
-0.0259955
-0.030543
-0.0251357
-0.0247738
-0.0293665
-0.0289819
-0.0285973
-0.0182353
-0.0178054
-0.0173529
-0.00692307
-0.00153845
-0.0111765
-0.0107918
-0.00545248
-0.000135736
-0.00475112
-0.00938913
-0.00411764
0.00113123
0.0013801
-0.00337103
-0.00319003
-0.00800904
-0.0178054
-0.0176018
-0.0224661
-0.0173303
-0.0221946
-0.0220814
-0.0220588
-0.0220588
-0.0320136
-0.0269457
-0.0219004
-0.0218099
-0.0216742
-0.0265611
-0.0214706
-0.0163348
-0.0211312
-0.0209728
-0.0158145
-0.0156335
-0.0254072
-0.020181
-0.0199547
-0.0246833
-0.0294344
-0.0292308
-0.0240498
-0.0388462
-0.0486425
-0.0435068
-0.0134163
0.0266968
0.0867873
0.166787
0.241742
0.296742
0.346742
0.441697
0.536652
0.631697
0.661765
0.651765
0.601787
0.526878
0.441991
0.292081
0.112217
-0.0875566
-0.277262
-0.371968
-0.391652
-0.371244
-0.350837
-0.34043
-0.329977
-0.324502
-0.299072
-0.283643
-0.273235
-0.257805
-0.232443
-0.197104
-0.171742
-0.15138
-0.126018
-0.105701
-0.105385
-0.105091
-0.0998416
-0.089638
-0.0844344
-0.0842308
-0.0840724
-0.0788914
-0.0836878
-0.0884389
-0.0931901
-0.0879412
-0.0876697
-0.0974661
-0.102308
-0.0971946
-0.107036
-0.111878
-0.111765
-0.101629
-0.106493
-0.111312
-0.111154
-0.100973
-0.100792
-0.100633
-0.0954751
-0.0903167
-0.0951131
-0.0949095
-0.0847285
-0.0745249
-0.074276
-0.0790724
-0.068914
-0.0587556
-0.068552
-0.0683484
-0.05819
-0.0480317
-0.0428054
-0.0425792
-0.0323756
-0.0271719
-0.0219683
-0.0168099
-0.0066742
-0.00156107
-0.0014027
0.00373305
0.0188462
0.0289593
0.024095
0.0242308
0.0344118
0.0346606
0.0249321
0.0252036
0.0304299
0.0306787
0.0260181
0.0313349
0.031629
0.0369457
0.0322625
0.0325113
0.0377602
0.0380317
0.0432806
0.0535068
0.0637104
0.0639593
0.0641629
0.0743213
0.0844797
0.0847964
0.0853394
0.101131
0.112262
0.113733
0.115475
0.122443
0.129819
0.127647
0.13095
0.144367
0.147715
0.14586
0.138688
0.141131
0.137896
0.128846
0.118937
0.113167
0.111855
0.0952942
0.0885973
0.0816969
0.0694797
0.0620815
0.0545023
0.0466742
0.0434616
0.0299321
0.0262217
0.0226471
0.0194118
0.00662896
-0.00076922
-0.0026018
-0.00373302
-0.00914027
-0.00866516
-0.00251131
-0.00113122
-0.00475114
-0.00346154
-0.00223983
-0.00606335
-0.0149548
-0.0189367
-0.0180317
-0.0171493
-0.0163122
-0.0106335
-0.00511315
-0.00970591
-0.0144344
-0.0142534
-0.0141629
-0.0140498
-0.0239593
-0.023914
-0.0239367
-0.0239367
-0.023914
-0.0238914
-0.0238914
-0.0238462
-0.0238009
-0.0187557
-0.0137104
-0.0185973
-0.0184615
-0.00834842
-0.00321267
-0.00803168
-0.0128733
-0.00773756
-0.00257918
-0.0123756
-0.0121267
-0.0119004
-0.0116516
-0.0163575
-0.0160181
-0.0106561
-0.0102715
-0.0148416
-0.0144118
-0.00898189
-0.00848416
-0.0129412
-0.0223982
-0.0269231
-0.0364027
-0.0408824
-0.0404299
-0.0350226
-0.0346154
-0.0492081
-0.0488235
-0.0434615
-0.0431448
-0.042828
-0.0375566
-0.0323077
-0.0370814
-0.0368778
-0.0366742
-0.0314706
-0.036267
-0.041086
-0.0409276
-0.0357692
-0.0405656
-0.050362
-0.0451584
-0.0399095
-0.039638
-0.0443665
-0.0441176
-0.0388462
-0.043552
-0.0532353
-0.0479412
-0.0426471
-0.047353
-0.0520588
-0.0518552
-0.0516742
-0.0515611
-0.0614932
-0.0614706
-0.0364706
-0.0014706
0.0484163
0.113235
0.192986
0.242647
0.287262
0.36681
0.466335
0.54586
0.600317
0.594751
0.554163
0.47862
0.413032
0.312421
0.17681
0.0162443
-0.179321
-0.324864
-0.365339
-0.360769
-0.341222
-0.326652
-0.312036
-0.302421
-0.287828
-0.268258
-0.258643
-0.248982
-0.224344
-0.194661
-0.164932
-0.145181
-0.130453
-0.110701
-0.105905
-0.106109
-0.101357
-0.0865837
-0.0817647
-0.0869683
-0.0871946
-0.0773982
-0.0825792
-0.0877828
-0.0879638
-0.0781222
-0.0832579
-0.0883937
-0.0885294
-0.0835973
-0.0835973
-0.0886199
-0.0836652
-0.0786878
-0.0786878
-0.0837557
-0.0788235
-0.0738462
-0.0788462
-0.0838688
-0.083914
-0.078914
-0.0839367
-0.0839819
-0.0790271
-0.0790271
-0.0790271
-0.0840724
-0.0691855
-0.0692986
-0.0694344
-0.0646154
-0.0547511
-0.049819
-0.0498869
-0.0500452
-0.040181
-0.0302715
-0.0254072
-0.020543
-0.0156335
-0.00567871
-0.000769209
0.00414029
0.0140724
0.0240272
0.0289593
0.0338462
0.043733
0.0436652
0.043552
0.0433484
0.0481674
0.0530543
0.0529412
0.0578054
0.0576697
0.0575792
0.0474434
0.0522398
0.0620588
0.0619231
0.0567873
0.0666516
0.0715384
0.081448
0.0813348
0.0811765
0.0810407
0.0809955
0.0909502
0.100905
0.11095
0.121018
0.125973
0.135905
0.13595
0.136063
0.141109
0.146086
0.15095
0.140814
0.140679
0.140543
0.140362
0.130091
0.12491
0.119638
0.109412
0.0993213
0.0992534
0.0941403
0.0840045
0.0788688
0.0737557
0.0736652
0.0636199
0.0535068
0.0583937
0.0533258
0.0482806
0.0382353
0.0381448
0.0330317
0.0229185
0.0227828
0.0226244
0.0174887
0.00739818
0.0122851
0.0171267
0.0119909
0.00690044
0.0117647
0.00660634
0.00647059
0.00638008
0.00124434
0.00106334
-0.00411766
-0.0142987
-0.0145023
-0.0147285
-0.0149095
-0.0150679
-0.0102489
-0.0104525
-0.0206335
-0.0257919
-0.0259729
-0.0211765
-0.0263801
-0.0215611
-0.0217647
-0.0219683
-0.0271267
-0.0273077
-0.0225339
-0.0178281
-0.0230543
-0.0282805
-0.0235068
-0.0337104
-0.0438462
-0.0440045
-0.0392308
-0.0444796
-0.0496833
-0.0398642
-0.0400452
-0.045181
-0.0502941
-0.0454072
-0.0455204
-0.0506109
-0.0506561
-0.0506787
-0.0456787
-0.0456561
-0.0505882
-0.0455656
-0.035543
-0.0354977
-0.0454525
-0.0454072
-0.0453846
-0.0453167
-0.0502715
-0.0452941
-0.0403846
-0.0404525
-0.0454977
-0.0506109
-0.0557466
-0.0608371
-0.0658824
-0.060905
-0.060905
-0.0658824
-0.060905
-0.0259502
0.0240045
0.0689819
0.143937
0.218891
0.268869
0.323937
0.409005
0.504072
0.574186
0.594321
0.55448
0.479548
0.414638
0.324729
0.209842
0.0299774
-0.144819
-0.299593
-0.369412
-0.369231
-0.338982
-0.318756
-0.303575
-0.298394
-0.288213
-0.278032
-0.252896
-0.242805
-0.22767
-0.202557
-0.172489
-0.142466
-0.122421
-0.102376
-0.0923756
-0.0873303
-0.0872624
-0.0821946
-0.0721946
-0.0671493
-0.0720588
-0.0720136
-0.0670136
-0.0669683
-0.0719004
-0.0718099
-0.0666968
-0.0615837
-0.061448
-0.0563801
-0.0514253
-0.0514253
-0.0564253
-0.0564253
-0.0514027
-0.0513574
-0.0513122
-0.0513348
-0.0513574
-0.0513348
-0.0512896
-0.051267
-0.0512443
-0.0511991
-0.0561538
-0.0511538
-0.0411538
-0.0311086
-0.0310633
-0.0310407
-0.0310633
-0.0310633
-0.0361538
-0.0263575
-0.0115385
-0.0066742
-0.0068552
-0.00205882
0.00278281
-0.00233032
-0.00248869
0.00735295
0.0122398
0.0121267
0.0119683
0.01681
0.0166742
0.0165837
0.0164932
0.0263575
0.026267
0.0212443
0.0261991
0.0311312
0.036086
0.0310634
0.0360407
0.0510407
0.0560407
0.055905
0.060543
0.0748643
0.0738462
0.0724887
0.0658145
0.0688009
0.061448
0.0536878
0.0605882
0.0624887
0.0697738
0.0725566
0.0859502
0.0951358
0.0953846
0.0866968
0.0891855
0.0926923
0.09181
0.0961539
0.10052
0.114661
0.113416
0.11681
0.114729
0.102059
0.0835068
0.0740498
0.0738009
0.0631448
0.0473303
0.0464706
0.0455882
0.0397511
0.033914
0.0330996
0.032353
0.0316968
0.0260633
0.0255204
0.0300905
0.0297964
0.024638
0.0195701
0.0195701
0.0096154
0.00466065
-0.000294104
0.00477377
-9.04873e-05
-0.00493212
0.000203628
0.005362
0.000520375
-0.00936651
-0.0142986
-0.0191855
-0.0240498
-0.028914
-0.0187783
-0.0036199
-0.0134615
-0.0133258
-0.0132127
-0.0181222
-0.0180543
-0.018009
-0.0129638
-0.0179412
-0.0279412
-0.0279864
-0.0280317
-0.0230769
-0.0281674
-0.0282805
-0.0234163
-0.023552
-0.0286878
-0.0238009
-0.023914
-0.0190498
-0.0192308
-0.00941176
0.00538462
0.000181001
-0.00497738
-0.000113118
-0.000203617
-0.000294115
-0.0103846
-0.00549773
-0.0106109
-0.0156787
-0.015724
-0.010724
-0.010724
-0.0157466
-0.0207919
-0.0208145
-0.0158371
-0.0208597
-0.0258823
-0.0209276
-0.0259276
-0.0309502
-0.0359955
-0.036086
-0.0461991
-0.041267
-0.00638008
0.0435068
0.108326
0.178167
0.248009
0.312851
0.382647
0.462443
0.552262
0.622082
0.626968
0.576878
0.516878
0.426923
0.327036
0.16724
-0.0175113
-0.222285
-0.362036
-0.401742
-0.381425
-0.366086
-0.355724
-0.345317
-0.329887
-0.314412
-0.298959
-0.283575
-0.258281
-0.238009
-0.217715
-0.182443
-0.142217
-0.116991
-0.111787
-0.106584
-0.101357
-0.106131
-0.100905
-0.0956787
-0.100475
-0.100249
-0.1
-0.0997511
-0.0995022
-0.094276
-0.0940724
-0.0889366
-0.0888009
-0.0886878
-0.0935746
-0.0934615
-0.0933484
-0.0982352
-0.0931221
-0.0829864
-0.0778959
-0.0878054
-0.0877828
-0.0827828
-0.0828054
-0.0827828
-0.0776923
-0.072647
-0.0726018
-0.0676018
-0.0576697
-0.0526923
-0.0527149
-0.0477149
-0.0427375
-0.0327828
-0.032828
-0.0328959
-0.0228959
-0.0178733
-0.0178507
-0.012828
-0.00280541
0.00221721
0.00226247
0.00728509
0.0173303
0.0173982
0.0175113
0.0276697
0.0328054
0.0329638
0.0231448
0.0283032
0.0334841
0.0336199
0.0337556
0.0338235
0.0338688
0.0239366
0.0240045
0.034095
0.0391629
0.0342307
0.034276
0.0443212
0.0443439
0.0443665
0.0393891
0.0493665
0.0593439
0.0643213
0.0742534
0.0791176
0.0940498
0.0941629
0.114502
0.125136
0.126131
0.127443
0.134005
0.14086
0.1331
0.130769
0.128733
0.131697
0.12448
0.121991
0.124095
0.115724
0.106674
0.101765
0.095905
0.0844344
0.0728054
0.0662444
0.0597285
0.0582805
0.0469005
0.0355656
0.034276
0.0330543
0.031923
0.0258823
0.0199547
0.0141629
0.00857463
0.00807689
0.0125339
0.00680993
-0.0041403
-0.0054299
-0.00705886
-0.00882356
-0.0108824
-0.0183937
-0.0214027
-0.0246154
-0.0328281
-0.0358145
-0.0334842
-0.030905
-0.0378959
-0.0392987
-0.0348869
-0.039638
-0.0437783
-0.0375792
-0.0314027
-0.0402489
-0.0391177
-0.0430543
-0.0320815
-0.0311765
-0.0302715
-0.0294344
-0.0286425
-0.0278959
-0.0272398
-0.0167195
-0.00631222
-0.0159728
-0.0156787
-0.0154299
-0.0151584
-0.0198869
-0.0195928
-0.0143665
-0.0241629
-0.0338914
-0.0335973
-0.0282805
-0.0279186
-0.0324887
-0.0320362
-0.0266063
-0.0261312
-0.0305882
-0.0300226
-0.024457
-0.0238688
-0.0332353
-0.0326244
-0.0270588
-0.0314706
-0.0308597
-0.0252715
-0.0147285
-0.0142081
-0.0187104
-0.0132805
-0.0178959
-0.0174434
-0.0219683
-0.0165611
-0.0111538
-0.010724
-0.0152941
-0.00988686
-0.00452487
-0.009095
-0.0136199
-0.00312215
0.00242084
-0.00703617
-0.0114479
-0.010905
-0.0103167
-0.0196832
-0.0190724
-0.00848414
-0.0028959
-0.00728504
-0.0117421
-0.00628957
-0.000859708
-0.0104298
-0.0100679
-0.00979635
-0.00452486
-0.0142986
-0.00914025
-0.0040045
-0.008914
-0.0138461
-0.0088235
-0.00384613
-0.008914
-0.0139366
-0.0090045
-0.00414025
-0.00429862
-0.00943436
-0.00461536
-0.00984161
-0.0200905
-0.030362
-0.0106561
0.0240045
0.0686878
0.123348
0.202941
0.272489
0.307014
0.376561
0.471041
0.580475
0.624887
0.624321
0.57371
0.508054
0.452443
0.361878
0.23129
0.0506788
-0.139864
-0.275407
-0.350973
-0.351516
-0.342014
-0.327489
-0.307941
-0.298394
-0.283756
-0.279095
-0.264412
-0.254751
-0.240023
-0.215272
-0.185498
-0.155679
-0.130769
-0.11586
-0.10595
-0.106018
-0.101063
-0.096086
-0.081086
-0.076086
-0.0811086
-0.0811538
-0.0862443
-0.0913122
-0.0963122
-0.0963122
-0.0913122
-0.0962896
-0.101222
-0.106131
-0.106063
-0.100973
-0.105905
-0.100905
-0.100905
-0.100905
-0.100882
-0.0958371
-0.0857466
-0.0806109
-0.0754299
-0.0702715
-0.0601131
-0.065
-0.0648642
-0.0547511
-0.054638
-0.0495023
-0.0493439
-0.0442081
-0.0390724
-0.0439366
-0.0438009
-0.0436651
-0.0435068
-0.0383484
-0.0332127
-0.0230769
-0.0129864
-0.0129185
-0.00785066
-0.00280542
0.00226247
0.00235297
0.00744347
0.0224887
0.0225113
0.0225792
0.0276245
0.0426471
0.0426697
0.0427149
0.0477602
0.0478054
0.0528507
0.0478733
0.0478959
0.0529186
0.0579186
0.0479412
0.0479638
0.0529864
0.0579638
0.0529412
0.0629186
0.0678959
0.0678507
0.0677602
0.0676244
0.0775339
0.0776018
0.0778733
0.0833711
0.0942082
0.100339
0.096629
0.113258
0.120294
0.127805
0.12552
0.133235
0.145769
0.143032
0.140045
0.141516
0.147149
0.136652
0.13
0.127511
0.124389
0.115973
0.0972625
0.0882579
0.0789819
0.0647285
0.0557693
0.0471267
0.048914
0.0311312
0.0240498
0.0178507
0.0177149
0.00841628
-0.000588238
0.000384605
-0.00368779
-0.00780544
-0.0169231
-0.021086
-0.0152489
-0.0194344
-0.0236426
-0.0129186
-0.0123303
-0.0268779
-0.0315158
-0.031267
-0.0311765
-0.0412217
-0.0512896
-0.0464027
-0.0465611
-0.0417195
-0.0369005
-0.0371041
-0.0323303
-0.0425339
-0.0477149
-0.0528733
-0.0530091
-0.0631222
-0.0631674
-0.0581901
-0.0531901
-0.0581901
-0.0581901
-0.05319
-0.0532127
-0.0581901
-0.0581448
-0.0530769
-0.0480091
-0.0529638
-0.0578959
-0.0528733
-0.0478507
-0.0527828
-0.0576923
-0.0475566
-0.0423756
-0.0521493
-0.0469005
-0.0416742
-0.0414253
-0.0461539
-0.0408371
-0.0304751
-0.0351358
-0.0397738
-0.0343892
-0.0339593
-0.033552
-0.0431448
-0.0377828
-0.0324887
-0.0321946
-0.0369231
-0.0316742
-0.021448
-0.0311991
-0.0359729
-0.0307919
-0.0156335
-0.0154751
-0.0203168
-0.0151584
-0.0150226
-0.0148643
-0.0146833
-0.00452488
-0.00436651
-0.00420814
0.000950232
0.0061086
0.0113122
0.0115385
0.00676471
0.0120362
0.0173077
0.0175792
0.0178507
0.00807693
0.0033258
0.00352942
0.0337104
0.0888235
0.158891
0.223937
0.273959
0.338982
0.404005
0.479005
0.558914
0.638756
0.643597
0.593394
0.52819
0.447941
0.362738
0.222489
0.0522624
-0.153009
-0.308258
-0.348507
-0.328801
-0.30905
-0.299276
-0.29448
-0.279706
-0.264955
-0.255113
-0.255294
-0.240498
-0.215679
-0.190814
-0.175973
-0.151131
-0.111244
-0.0863348
-0.0864253
-0.0815837
-0.0717421
-0.0668778
-0.0669683
-0.0570362
-0.0521267
-0.0571493
-0.0621946
-0.0622851
-0.0573982
-0.0574887
-0.0676244
-0.0677602
-0.0628733
-0.0679638
-0.0680769
-0.0581901
-0.0533032
-0.0584163
-0.0635068
-0.0636199
-0.0587331
-0.0588236
-0.0639367
-0.0540724
-0.0542082
-0.0593213
-0.059457
-0.0596154
-0.0597511
-0.0698416
-0.0699548
-0.0600452
-0.0601357
-0.0652262
-0.0703394
-0.0654525
-0.0605204
-0.0656335
-0.0657466
-0.0608371
-0.0559276
-0.0559729
-0.041086
-0.0261991
-0.0212896
-0.0213801
-0.0165158
-0.0066742
-0.00674208
-0.0118326
-0.00199095
0.00785068
0.0127828
0.0076923
0.0175566
0.0274208
0.0222851
0.0171719
0.0220588
0.0320136
0.0319683
0.0318778
0.0367873
0.0367194
0.0366968
0.031629
0.0365385
0.0414932
0.0464932
0.0414932
0.0564706
0.061448
0.0664027
0.0663122
0.0813348
0.0966516
0.0923303
0.0932805
0.094457
0.0959276
0.0976923
0.104774
0.117217
0.115068
0.117919
0.11552
0.122805
0.119774
0.116357
0.107308
0.112511
0.10681
0.0954072
0.0938009
0.0822851
0.0708597
0.0594344
0.0530317
0.0517194
0.0354751
0.0342534
0.0330543
0.0369457
0.0259502
0.0150226
0.00916286
-0.00156112
-0.00705885
-0.0174661
-0.0128959
-0.00832581
-0.0136878
-0.0190498
-0.0194118
-0.0147059
-0.025
-0.0303394
-0.0257466
-0.0261086
-0.031448
-0.03181
-0.0321946
-0.0325566
-0.0329412
-0.0335747
-0.0344344
-0.0304977
-0.0318552
-0.043552
-0.0404977
-0.0377149
-0.040362
-0.0434389
-0.0468552
-0.0451584
-0.0482579
-0.051086
-0.0536425
-0.0507692
-0.0571719
-0.0627602
-0.0624887
-0.0565158
-0.0553394
-0.0541629
-0.0480769
-0.0469909
-0.0409276
-0.0449774
-0.0440498
-0.0431674
-0.0523077
-0.0465158
-0.0407014
-0.0399547
-0.0393439
-0.0338688
-0.0234615
-0.0330543
-0.0376697
-0.0273077
-0.0219231
-0.0265158
-0.0211086
-0.0157466
-0.010362
-0.00999999
-0.0146832
-0.0143665
-0.0190045
-0.0185973
-0.00819004
-0.0027828
-0.00235294
-0.00696832
0.00341629
0.00377828
-0.000859722
-0.00549773
-0.00511312
0.000226248
-0.00938914
-0.00898189
0.00140272
0.00680996
-0.0026923
-0.0121493
-0.00665158
-0.00615384
-0.00570135
-0.00529411
0.000113128
0.000565616
-0.00891403
-0.00346153
0.00196833
0.00737557
-0.00221719
-0.0018552
-0.00153846
-0.00628959
-0.0110633
-0.0108597
-0.00570136
-0.00554299
-0.00545249
0.00459277
0.00461539
-0.00038461
-0.000452485
0.00436652
-0.000814475
-0.00604072
-0.00628959
0.00337104
0.00298643
-0.00239819
-0.0128054
-0.00821267
-0.00364253
0.000950232
-0.00447963
4.52567e-05
-0.000429856
-0.00590497
-0.00140271
0.00300906
0.0123982
0.00183258
0.0012896
0.00576923
0.000294121
-0.00518099
0.00427602
0.0537104
0.103145
0.157557
0.226968
0.296357
0.345679
0.404955
0.504231
0.598484
0.66776
0.651968
0.606199
0.540475
0.479774
0.384027
0.223281
0.0325339
-0.158235
-0.304005
-0.349729
-0.355407
-0.341041
-0.336652
-0.327195
-0.307692
-0.303167
-0.28862
-0.279027
-0.264434
-0.254796
-0.225136
-0.19043
-0.160679
-0.140905
-0.131086
-0.126267
-0.126448
-0.121606
-0.116787
-0.111946
-0.107059
-0.102149
-0.0872172
-0.0822624
-0.0872851
-0.0923303
-0.092353
-0.0923303
-0.0922398
-0.0921267
-0.0820362
-0.0819457
-0.0818552
-0.07681
-0.0717647
-0.0716968
-0.0665837
-0.061448
-0.0613349
-0.0512217
-0.0560634
-0.060905
-0.0557466
-0.0506109
-0.0504525
-0.0403167
-0.0301358
-0.0299548
-0.0347738
-0.0395701
-0.0293891
-0.0241855
-0.0240045
-0.0188235
-0.0136878
-0.00855204
-0.00343891
0.00665158
0.00674208
0.00683258
0.00692308
0.0120136
0.0121267
0.00726244
0.00737557
0.0224434
0.0325339
0.0326471
0.0427376
0.0527828
0.0628281
0.0628959
0.0579186
0.0529186
0.0479186
0.0429864
0.0431222
0.0532805
0.0584163
0.0533937
0.0531448
0.0625566
0.0717195
0.0706109
0.0642534
0.0575566
0.0454977
0.0330769
0.030181
0.0422172
0.0444796
0.0422851
0.0457014
0.049819
0.0549321
0.0612443
0.0787783
0.0873077
0.096448
0.0959276
0.115566
0.120091
0.114389
0.113326
0.126946
0.135045
0.132353
0.133665
0.134005
0.128575
0.117805
0.106855
0.105837
0.0897964
0.0837783
0.0728281
0.0668778
0.0560181
0.045181
0.0393665
0.0385747
0.0279412
0.0174661
0.0171267
0.0169005
0.00671945
0.00156108
0.00638009
0.0162217
0.00608597
0.000950223
0.000814479
0.000678731
-0.00438915
-0.0144344
-0.00952489
-0.019638
-0.0297285
-0.034819
-0.0349095
-0.03
-0.0350226
-0.0250453
-0.0150905
-0.0201357
-0.0301584
-0.040181
-0.0402262
-0.0452489
-0.0452715
-0.0452489
-0.0402715
-0.0503394
-0.055362
-0.0553846
-0.0504525
-0.0604751
-0.0604751
-0.0554977
-0.0605882
-0.0656787
-0.065724
-0.0557692
-0.0508597
-0.050905
-0.050905
-0.0458823
-0.0458597
-0.0507918
-0.0506787
-0.0455656
-0.0454525
-0.0502941
-0.0451131
-0.0399321
-0.0347511
-0.039457
-0.0391176
-0.0388009
-0.0334842
-0.0330995
-0.0276697
-0.0173077
-0.0169909
-0.0267194
-0.0364706
-0.0462896
-0.0461312
-0.0459502
-0.00576922
0.0443439
0.114389
0.174457
0.239548
0.304615
0.369615
0.449615
0.534548
0.634434
0.644321
0.604321
0.534367
0.449389
0.349434
0.199502
0.00463801
-0.215204
-0.374932
-0.409593
-0.389186
-0.353778
-0.343326
-0.337828
-0.322353
-0.311855
-0.291312
-0.275701
-0.245091
-0.21948
-0.193846
-0.16319
-0.127579
-0.0970362
-0.0865158
-0.0810407
-0.0755882
-0.070181
-0.0747964
-0.0694344
-0.0591177
-0.0538462
-0.0585747
-0.0583258
-0.0581222
-0.0629412
-0.0627376
-0.0625566
-0.0574208
-0.0572851
-0.0571267
-0.0520136
-0.0469457
-0.0419005
-0.0418552
-0.0417873
-0.0367421
-0.0366516
-0.0415837
-0.0415385
-0.0415611
-0.0416063
-0.046629
-0.0466516
-0.041629
-0.0365611
-0.0364932
-0.0364706
-0.0265158
-0.0265611
-0.0266063
-0.0266516
-0.0216968
-0.0167195
-0.0217873
-0.0168552
-0.00692308
-0.00696833
-0.0020362
0.00289593
0.0128281
0.00771493
0.00757919
0.0124434
0.0223303
0.0172172
0.0121493
0.0121041
0.0170815
0.0170588
0.00699096
0.00692309
0.00687783
0.00183259
-0.00323528
-0.00828053
-0.00828053
-0.0182353
-0.01819
-0.0131674
-0.00314477
-0.0080769
-0.00796378
0.00714934
0.0123077
0.0174887
0.0176244
0.0276697
0.0326697
0.037715
0.0427602
0.0529638
0.0683711
0.074095
0.0801131
0.0864027
0.0979864
0.0948869
0.102149
0.104796
0.107873
0.101041
0.0990271
0.106674
0.108937
0.110769
0.101923
0.102149
0.0914027
0.0799547
0.0683258
0.0617647
0.065362
0.0540271
0.0477149
0.0364479
0.0352036
0.024095
0.0180316
0.0170814
0.0112443
0.000520337
-9.05059e-05
0.00443439
0.00911765
0.00386879
0.0035973
0.00332581
0.00309957
-0.0021493
-0.00239817
0.00242084
0.0022851
-0.00287327
-0.00305426
0.00171949
-0.00350675
-0.00871037
-0.00393661
0.000791889
0.00538465
0.00472853
0.00873305
0.0124661
0.0110407
-0.000633467
-0.0076923
-0.0151357
-0.0228733
-0.0308597
-0.0238461
-0.0216063
-0.0241177
-0.0312896
-0.0329864
-0.0340271
-0.0392986
-0.0386878
-0.0325113
-0.0311538
-0.0348416
-0.0335747
-0.0323756
-0.0311538
-0.0299774
-0.0338914
-0.0328507
-0.0317873
-0.0357918
-0.0349095
-0.0291403
-0.0234163
-0.022828
-0.0223303
-0.0168552
-0.0113122
-0.0207918
-0.0253394
-0.0249321
-0.0244796
-0.0190498
-0.0187104
-0.0184163
-0.0180995
-0.0178054
-0.0175566
-0.0223303
-0.0271041
-0.0319231
-0.0267647
-0.0265837
-0.0313348
-0.0411086
-0.0358823
-0.0356108
-0.0403167
-0.0400226
-0.0297511
-0.029457
-0.0391176
-0.0387783
-0.0334389
-0.0280317
-0.0275566
-0.0320814
-0.026629
-0.0261538
-0.0306335
-0.0301357
-0.029638
-0.0241629
-0.0336878
-0.0332579
-0.0278507
-0.0274208
-0.0319683
-0.0315611
-0.0212443
-0.025905
-0.0306335
-0.0254299
-0.0203167
-0.0202262
-0.0251357
-0.0251131
-0.0201357
-0.0152036
-0.0252715
-0.0204299
-0.0156561
-0.0158597
-0.016086
-0.0113801
-0.00671946
-0.0120588
-0.0173529
-0.00771493
-0.00309954
-0.00848416
-0.00886878
-0.00432127
-0.00977376
-0.015181
-0.0156335
-0.0111312
-0.00165158
-0.00710407
-0.0125792
-0.00809955
0.0063801
0.035905
0.0904525
0.169955
0.23448
0.27405
0.32862
0.413122
0.502579
0.567036
0.616425
0.615769
0.565136
0.509525
0.428891
0.323235
0.182624
0.0170588
-0.178552
-0.30414
-0.334661
-0.325158
-0.315701
-0.301244
-0.301742
-0.287195
-0.272647
-0.2581
-0.253529
-0.238914
-0.209321
-0.179661
-0.15991
-0.135136
-0.115362
-0.105588
-0.110747
-0.11086
-0.100995
-0.0911538
-0.096267
-0.0913575
-0.081448
-0.0715158
-0.0765385
-0.0765385
-0.0715611
-0.0715611
-0.0715385
-0.0715384
-0.0665611
-0.0665611
-0.0715611
-0.071629
-0.0717421
-0.0667873
-0.0668099
-0.0618552
-0.0569231
-0.0519231
-0.0569457
-0.0520362
-0.0471493
-0.0522172
-0.0522398
-0.0472624
-0.0373303
-0.0373982
-0.0374434
-0.0375566
-0.0326697
-0.0277828
-0.0278733
-0.0280317
-0.02819
-0.0283032
-0.0334163
-0.0235747
-0.013733
-0.0188688
-0.014095
-0.00932127
0.000520362
0.000429862
0.00531674
0.0101357
0.0149548
0.0147964
0.014638
0.0244344
0.0342534
0.029095
0.0288914
0.0336652
0.0435068
0.0484163
0.0433258
0.0532127
0.0581448
0.0580091
0.0576923
0.0671493
0.0663575
0.0602262
0.0687783
0.0720362
0.0749547
0.0624208
0.0594796
0.0613575
0.0634163
0.0558371
0.0536652
0.0621493
0.0614932
0.0569683
0.058552
0.0661991
0.074638
0.0734842
0.0875566
0.09681
0.105995
0.109887
0.118462
0.121606
0.114231
0.106131
0.112195
0.107285
0.0967421
0.090905
0.0949548
0.0939819
0.0830543
0.0720815
0.0711765
0.0653394
0.0595249
0.0487104
0.0479638
0.0323756
0.0168778
0.0164706
0.0161991
0.0160181
0.00590498
0.00076923
-0.00436652
-0.00445702
-0.0145023
-0.0195701
-0.0146154
-0.019638
-0.0296154
-0.0345928
-0.0295701
-0.0345023
-0.0444796
-0.0445023
-0.0445249
-0.0445475
-0.0445928
-0.0346606
-0.0347059
-0.0447738
-0.049819
-0.0498643
-0.0448869
-0.0499321
-0.0449774
-0.0400679
-0.0351357
-0.040181
-0.0452715
-0.0454072
-0.040543
-0.0356561
-0.0408145
-0.0309728
-0.0311312
-0.0312896
-0.0314253
-0.0265837
-0.0267421
-0.0319457
-0.0321719
-0.0274208
-0.0276018
-0.0227602
-0.00794118
-0.0130769
-0.0231448
-0.03319
-0.0282805
-0.0183258
-0.0183484
-0.0183484
-0.0133484
-0.0133258
-0.0132353
-0.0131448
-0.00307692
0.00196833
-0.0079638
-0.0179186
-0.0228507
-0.0228054
-0.0227376
-0.00273755
0.0322172
0.0821719
0.142149
0.212081
0.276968
0.3419
0.421833
0.531742
0.616652
0.651584
0.616538
0.551516
0.491516
0.401561
0.291674
0.106855
-0.0979186
-0.277647
-0.367353
-0.367036
-0.351742
-0.341357
-0.325928
-0.310475
-0.294977
-0.279434
-0.268891
-0.248394
-0.227896
-0.207353
-0.191833
-0.156335
-0.120814
-0.105272
-0.0997511
-0.089276
-0.0888462
-0.0884163
-0.0780317
-0.0726697
-0.0723077
-0.0769683
-0.0667195
-0.0665385
-0.0713349
-0.0711312
-0.0759502
-0.0758145
-0.0756561
-0.0754751
-0.0752941
-0.0751358
-0.075
-0.0698643
-0.0697511
-0.0746606
-0.0745928
-0.0795249
-0.0695023
-0.0595023
-0.0594344
-0.0543891
-0.0493439
-0.0492986
-0.0541855
-0.049095
-0.0490498
-0.0489593
-0.0488462
-0.0387104
-0.0336425
-0.028552
-0.0284389
-0.0283032
-0.0231448
-0.0129864
-0.00780542
-0.00266968
0.00744344
0.00757919
0.00776019
0.0129186
0.0130543
0.0182353
0.0184389
0.0286425
0.0338235
0.0340272
0.0292534
0.0344344
0.0346606
0.0299548
0.0202263
0.0254299
0.0355656
0.030724
0.0309276
0.0311086
0.031267
0.0264706
0.0216742
0.0318552
0.0320136
0.0372172
0.0374434
0.0526018
0.0527149
0.0528054
0.0578959
0.0779864
0.08819
0.0885294
0.094095
0.104932
0.111086
0.112557
0.119344
0.131516
0.124186
0.122262
0.125452
0.128439
0.121154
0.11362
0.110679
0.0972398
0.0829864
0.0728054
0.0717873
0.070362
0.0689819
0.0576697
0.0513801
0.0501584
0.0390498
0.0330317
0.0320588
0.031086
0.0202262
0.014457
0.0137556
0.00812217
-0.00230769
-0.00260182
0.0021493
0.0019683
0.00185518
0.00171943
0.0065158
0.00638006
-0.00371044
0.00119906
0.00604068
0.00592756
0.000859685
0.00076919
0.00567869
0.00556557
-0.0045928
-0.015
-0.0156788
-0.021629
-0.0228507
-0.0194344
-0.0212896
-0.0284389
-0.0309729
-0.0289593
-0.027353
-0.0356788
-0.0537783
-0.0515611
-0.0540045
-0.0559276
-0.0620815
-0.0573756
-0.0566516
-0.0702715
-0.0737557
-0.0722851
-0.0608597
-0.0594118
-0.0579864
-0.0566516
-0.0653394
-0.0690272
-0.0726923
-0.0564706
-0.0453167
-0.0541855
-0.0531901
-0.047353
-0.0416063
-0.0509276
-0.0502489
-0.0495701
-0.0488462
-0.0530769
-0.052353
-0.0416968
-0.0459955
-0.0452715
-0.0445701
-0.0389819
-0.0333484
-0.0326471
-0.031991
-0.0263575
-0.020724
-0.0250679
-0.024457
-0.0188688
-0.0132353
-0.0125792
-0.0119231
-0.00628959
-0.00561085
-0.0049095
-0.00423076
-0.00355203
-0.00776017
-0.00192307
-0.00113121
-0.000339359
0.000520367
-0.00359728
-0.00773755
-0.0118778
-0.0109502
-0.0150905
-0.00429865
0.00647059
0.00223982
-0.00201358
-0.00133485
-0.00070136
-0.00513574
-0.00466063
0.0007466
0.00110859
-0.00850679
-0.0081448
-0.00289593
-0.00269231
-0.0124887
-0.0173303
-0.0122398
-0.00217194
-0.00710407
-0.00705883
-0.00205883
-0.00205883
-0.0120588
-0.00714932
-0.00226244
-0.0123529
-0.0174208
-0.0124887
0.00239819
-0.00271492
-0.00782805
-0.00798641
0.00190046
0.00180997
-0.00828053
-0.00839365
-0.00852939
-0.00864252
0.00122174
0.0559955
0.115701
0.175385
0.235023
0.314638
0.379253
0.443846
0.523416
0.622941
0.707421
0.701901
0.661335
0.590634
0.519887
0.40914
0.238394
0.0426245
-0.178122
-0.323846
-0.354593
-0.345362
-0.326131
-0.326833
-0.317466
-0.298077
-0.293643
-0.289208
-0.284751
-0.255294
-0.235747
-0.221086
-0.191425
-0.156765
-0.132059
-0.117308
-0.112557
-0.112805
-0.113032
-0.118213
-0.108394
-0.0985747
-0.103665
-0.108756
-0.108824
-0.0938914
-0.0989367
-0.103914
-0.0988914
-0.0938914
-0.0938688
-0.0987783
-0.0937104
-0.0936425
-0.0935068
-0.0983258
-0.0931674
-0.0880317
-0.082828
-0.0875792
-0.0823529
-0.0771493
-0.0819457
-0.0817421
-0.0715384
-0.0663574
-0.0711538
-0.0709276
-0.0657466
-0.0606108
-0.0654751
-0.0603394
-0.0502715
-0.0451584
-0.0449774
-0.049819
-0.0447285
-0.039638
-0.0395475
-0.0344796
-0.029457
-0.019457
-0.024457
-0.0194796
-0.00450223
0.00049777
0.000520393
0.000520393
0.0104525
0.0153846
0.0153847
0.0104073
0.0154073
0.0154073
0.0104299
0.0204299
0.0254525
0.025543
0.0206109
0.0206561
0.0307014
0.0358371
0.0359955
0.0361312
0.0312443
0.0314027
0.0315837
0.0317195
0.0369004
0.0371493
0.0423756
0.0524887
0.0575792
0.0627375
0.0678507
0.0728959
0.0780317
0.0832127
0.0832805
0.0932353
0.108167
0.113371
0.118688
0.134072
0.149457
0.14991
0.150566
0.151357
0.15224
0.147896
0.138122
0.138167
0.13819
0.133235
0.118235
0.113213
0.103235
0.0932127
0.0831674
0.0780543
0.0729865
0.0579412
0.0478054
0.0476471
0.0425113
0.0374434
0.0274208
0.0273756
0.0223303
0.0122398
0.00710406
0.00696831
-0.00312218
-0.00825793
-0.0134389
-0.0136199
-0.0137104
-0.0238462
-0.0240045
-0.0191403
-0.0192308
-0.0293213
-0.029457
-0.0295928
-0.0397512
-0.0448869
-0.0400453
-0.035181
-0.0452941
-0.0553847
-0.0505204
-0.0456335
-0.045724
-0.0508824
-0.0460634
-0.0411991
-0.0463122
-0.0514706
-0.0466516
-0.04181
-0.0469457
-0.0471267
-0.0373303
-0.0374887
-0.0426245
-0.0428055
-0.0330317
-0.0332579
-0.0334389
-0.0336652
-0.0238688
-0.0140498
-0.0142082
-0.0194344
-0.019638
-0.0197512
-0.0248417
-0.0299548
-0.0200905
-0.015181
-0.0202715
-0.0303846
-0.025543
-0.0206788
-0.0258371
-0.0310408
-0.0311991
-0.0413122
-0.046448
-0.0466516
-0.0418326
-0.0469684
-0.0571041
-0.0572851
-0.0524661
-0.0526471
-0.0578733
-0.0581222
-0.0683711
-0.0835973
-0.0788688
-0.0441403
0.0156335
0.0604072
0.130136
0.204842
0.264593
0.319389
0.409185
0.513959
0.618801
0.64371
0.61362
0.55862
0.488756
0.403982
0.249208
0.049457
-0.165272
-0.335
-0.384729
-0.374457
-0.359118
-0.343756
-0.333416
-0.3181
-0.307738
-0.292421
-0.282149
-0.261923
-0.241697
-0.226493
-0.191358
-0.156222
-0.126063
-0.11595
-0.11086
-0.100792
-0.100701
-0.0906561
-0.0856788
-0.0756788
-0.0756788
-0.0707466
-0.0658598
-0.0659503
-0.0710407
-0.0661539
-0.0663122
-0.0664706
-0.0715837
-0.0717421
-0.0669457
-0.0621267
-0.0573077
-0.0625566
-0.0628055
-0.0630091
-0.0631674
-0.0633937
-0.0586652
-0.058914
-0.0591629
-0.0494344
-0.0447285
-0.0449774
-0.0452036
-0.0404977
-0.0358145
-0.0361086
-0.0364027
-0.0317421
-0.0220814
-0.0223303
-0.0226018
-0.0129186
-0.0082353
-0.00352941
-0.00884615
0.000814486
0.00049774
0.000271503
0.00506788
0.0148416
0.0146154
0.0094344
0.00927603
0.0141177
0.0189819
0.018914
0.0238688
0.0287783
0.0336878
0.0335973
0.0384842
0.0433484
0.0431901
0.0380317
0.0428281
0.0526018
0.0473756
0.0471267
0.0518779
0.0615837
0.0613122
0.056086
0.0658371
0.070543
0.0702489
0.0699095
0.0794797
0.0840724
0.0838462
0.0889141
0.104163
0.114729
0.110634
0.106787
0.113167
0.119932
0.117195
0.11991
0.127738
0.115407
0.102828
0.0999321
0.101629
0.0976471
0.0927828
0.0919231
0.0852941
0.0734389
0.056629
0.0498643
0.0481675
0.0365159
0.0199322
0.0183485
0.01681
0.0153168
0.00898194
0.0077376
0.00653849
-0.00461537
-0.010905
-0.00744343
-0.00923077
-0.0161538
-0.0232579
-0.0207466
-0.0185973
-0.0317647
-0.0350905
-0.033371
-0.0313801
-0.0441403
-0.0465837
-0.0435747
-0.044819
-0.0452715
-0.0498416
-0.0389366
-0.0379186
-0.0419683
-0.041086
-0.0352489
-0.039457
-0.0436652
-0.0479638
-0.0423303
-0.0417421
-0.0411991
-0.0357919
-0.0304977
-0.0302489
-0.0350905
-0.0350679
-0.0250905
-0.0250905
-0.0250905
-0.0201131
-0.0151584
-0.015181
-0.025181
-0.0202262
-0.0152715
-0.0152489
-0.0102036
-0.00518099
-0.000158369
-0.00506787
-0.0149774
-0.0099095
-0.00477375
-0.00957013
-0.0193439
-0.0241403
-0.0289367
-0.0386878
-0.0434615
-0.0432353
-0.0379864
-0.0476923
-0.0423982
-0.0321493
-0.0318778
-0.0315837
-0.0313122
-0.0311086
-0.030905
-0.0306787
-0.0205204
-0.0253846
-0.0252036
-0.0299548
-0.0347059
-0.0294796
-0.0242081
-0.023914
-0.0236878
-0.0184842
-0.0182353
-0.0229638
-0.0277376
-0.0225113
-0.0222172
-0.0219005
-0.0166516
-0.0114706
-0.00624434
-0.0109955
-0.00579185
-0.00561085
-0.000407234
-0.000294112
-0.000271488
0.00470589
-0.000316739
-0.00536199
-0.000429861
-0.000452485
-0.000452481
-0.000520356
0.00429865
0.0040724
0.00386878
0.00355204
0.0131448
0.0177149
0.0172851
0.00185521
0.00138009
0.00595023
0.0305204
0.0950226
0.179457
0.243891
0.278326
0.327738
0.412127
0.501493
0.575837
0.620091
0.609344
0.553575
0.502828
0.432059
0.326312
0.165611
-0.0100905
-0.205769
-0.316448
-0.342036
-0.322624
-0.303235
-0.288824
-0.284367
-0.28491
-0.265453
-0.25095
-0.24138
-0.226787
-0.197195
-0.172511
-0.152738
-0.127941
-0.0981448
-0.0883484
-0.0884842
-0.0835973
-0.0786878
-0.073733
-0.0737557
-0.0688235
-0.0589367
-0.0589819
-0.0640272
-0.0640498
-0.0540272
-0.0589593
-0.0638688
-0.0637557
-0.0586425
-0.0685068
-0.0733484
-0.0782353
-0.0781448
-0.0780769
-0.0830543
-0.0730995
-0.0731674
-0.0732579
-0.078371
-0.0735294
-0.0636199
-0.0636425
-0.0636652
-0.0586652
-0.0486425
-0.0436425
-0.0386652
-0.0286878
-0.0236425
-0.0286199
-0.0335973
-0.033552
-0.0335068
-0.0334389
-0.033371
-0.0183032
-0.0132353
-0.01319
-0.0131448
-0.00309955
0.00196832
0.00201357
0.00705882
0.0171041
0.0271719
0.0222398
0.0223303
0.0274208
0.0325113
0.0325566
0.0376244
0.0427149
0.0477828
0.0478507
0.0478733
0.0478959
0.0379186
0.0279186
0.0329638
0.0430543
0.04819
0.0433258
0.0584842
0.0635973
0.0685294
0.0682127
0.0676018
0.0716516
0.0604072
0.058914
0.0622172
0.0704525
0.0736425
0.0719457
0.0704977
0.0695475
0.079276
0.0897511
0.101154
0.103529
0.116833
0.120701
0.119729
0.118439
0.116538
0.118869
0.115407
0.110995
0.101018
0.100882
0.100814
0.0957466
0.0906109
0.0854072
0.0801131
0.0647511
0.0543213
0.0488914
0.0485068
0.0332127
0.0179864
0.0128507
0.00782805
0.00791855
0.00303167
-0.00183258
-0.00665158
-0.011448
-0.0112217
-0.000972853
-0.000701359
-0.0103846
-0.0050905
-0.00979639
-0.0145023
-0.0191629
-0.0188235
-0.0284842
-0.0381448
-0.0378054
-0.0375113
-0.0322398
-0.036991
-0.0367647
-0.0315611
-0.0263801
-0.0261765
-0.0209955
-0.0108371
-0.010724
-0.0206109
-0.0254751
-0.0253394
-0.0302036
-0.0350905
-0.0299548
-0.0247738
-0.0245928
-0.0293892
-0.0292082
-0.0290498
-0.0389367
-0.0438688
-0.0438009
-0.038733
-0.0386878
-0.0385973
-0.0284842
-0.0283484
-0.0332353
-0.0430996
-0.0329412
-0.0328054
-0.0326244
-0.0323982
-0.0271267
-0.0268552
-0.0315837
-0.0263122
-0.0160181
-0.015724
-0.0204299
-0.0151131
-0.00977376
-0.00443439
-0.00911765
-0.00386878
0.00133484
-0.00850679
-0.0183484
-0.0231674
-0.0229638
-0.0278281
-0.0176923
0.0324208
0.0925339
0.157624
0.21767
0.282715
0.342738
0.41276
0.492738
0.58776
0.627873
0.608009
0.548145
0.483281
0.408507
0.278801
0.109118
-0.10552
-0.285045
-0.369525
-0.369005
-0.338484
-0.327964
-0.327443
-0.311923
-0.29638
-0.285837
-0.280294
-0.259774
-0.229231
-0.20871
-0.188213
-0.152738
-0.122285
-0.111833
-0.106403
-0.0959729
-0.0855882
-0.0852489
-0.0849321
-0.079638
-0.0743213
-0.0790045
-0.0836878
-0.0833937
-0.0830995
-0.0877828
-0.0874208
-0.0870814
-0.0817873
-0.0864706
-0.0861991
-0.0859728
-0.0907466
-0.0954977
-0.0953394
-0.0902262
-0.0900679
-0.0899095
-0.0897511
-0.0846154
-0.079457
-0.0792534
-0.0740498
-0.0688462
-0.0635747
-0.0582579
-0.0529638
-0.0477376
-0.0474887
-0.0472398
-0.0370588
-0.0318778
-0.036629
-0.0313348
-0.0261312
-0.0159502
-0.0157466
-0.010543
-0.000384599
-0.000248853
-6.78562e-05
0.00513576
0.0103168
0.0104978
0.00576925
0.0110407
0.016267
0.016448
0.0216969
0.0169457
0.017172
0.0173982
0.0126471
0.0128733
0.0180543
0.0182579
0.0185294
0.0237557
0.0239367
0.0241403
0.0243665
0.0295928
0.0447964
0.0450226
0.0452715
0.0504751
0.0556335
0.0557919
0.0659729
0.0811086
0.0912896
0.0967195
0.102421
0.113394
0.119615
0.116154
0.117964
0.135091
0.137557
0.125453
0.123552
0.126561
0.129276
0.121674
0.118756
0.125226
0.115928
0.100679
0.0896154
0.0831674
0.0767194
0.0704299
0.0691855
0.0629185
0.0517195
0.0406109
0.0395475
0.0435068
0.0325566
0.0317421
0.0310407
0.0304072
0.0199321
0.00961538
0.00934388
0.00907239
0.00384615
-0.00131223
-0.0014706
-0.00162897
-0.00676472
-0.0118778
-0.0170362
-0.0172398
-0.0223982
-0.0275113
-0.0276471
-0.0228507
-0.0232353
-0.0238235
-0.0197738
-0.0160634
-0.0226245
-0.0294118
-0.0216516
-0.0243665
-0.0374661
-0.0408145
-0.0391177
-0.0422172
-0.0499548
-0.0573756
-0.0542987
-0.0554978
-0.0659503
-0.0655656
-0.0595928
-0.0533937
-0.0621493
-0.0609955
-0.0499095
-0.0538462
-0.0627828
-0.0667874
-0.0458371
-0.0449095
-0.0489819
-0.0481448
-0.0474435
-0.04681
-0.0562896
-0.0558824
-0.0504978
-0.0501131
-0.0597059
-0.0593213
-0.0539367
-0.0535521
-0.0581448
-0.057715
-0.0523303
-0.0519683
-0.0515611
-0.0461765
-0.0408371
-0.0404751
-0.0451132
-0.0347738
-0.029457
-0.0291403
-0.0288236
-0.0235294
-0.0232579
-0.0229412
-0.0226018
-0.0222851
-0.0219684
-0.026629
-0.0312896
-0.0259276
-0.0255656
-0.0301584
-0.0297059
-0.0242308
-0.0187331
-0.0231901
-0.0226697
-0.0221946
-0.0166969
-0.0161991
-0.0207466
-0.0203846
-0.0150227
-0.00963804
-0.0142761
-0.00895931
-0.00861995
-0.0133032
-0.013077
-0.0129412
-0.0128507
-0.0177828
-0.0177376
-0.0127376
-0.0127602
-0.0178055
-0.0179186
-0.0180543
-0.0181901
-0.0183484
-0.0235294
-0.0187557
-0.0189819
-0.0242534
-0.0245928
-0.0199548
-0.0203168
-0.0256788
-0.0260634
-0.0264932
-0.0269684
-0.0274435
-0.0229412
-0.0184842
-0.0290498
-0.0396154
-0.0402263
-0.0258598
0.0135068
0.0628733
0.13724
0.211584
0.270928
0.315249
0.409525
0.513778
0.602986
0.657195
0.646357
0.60052
0.524661
0.458778
0.347851
0.1919
0.0309502
-0.150023
-0.275973
-0.321855
-0.32767
-0.308507
-0.294321
-0.280068
-0.275815
-0.266561
-0.252285
-0.242873
-0.233394
-0.213914
-0.179434
-0.154955
-0.130407
-0.10586
-0.0962896
-0.0916742
-0.0970136
-0.0973756
-0.0927602
-0.0880996
-0.0934163
-0.093733
-0.0890498
-0.0843439
-0.0946154
-0.0949095
-0.0852036
-0.0854751
-0.0857466
-0.0810634
-0.0713575
-0.071629
-0.0718778
-0.0671267
-0.0573529
-0.0525792
-0.0578054
-0.0530543
-0.0483258
-0.0485973
-0.0488688
-0.0441403
-0.0294118
-0.0296833
-0.0349321
-0.0352036
-0.0304751
-0.035724
-0.0359728
-0.0262443
-0.0165158
-0.0167421
-0.0219457
-0.00719457
-0.00746606
-0.0127149
-0.0179185
-0.0131674
-0.0133937
-0.0185973
-0.0138009
-0.00400452
0.000791863
0.000588243
0.000362
0.0101131
0.00986426
0.00463802
0.00941177
0.0141629
0.018914
0.0137104
0.0185068
0.0282579
0.0280091
0.0278054
0.0325792
0.0373303
0.0371267
0.0319683
0.0317873
0.0415611
0.0513348
0.0461312
0.0459502
0.0507919
0.0556561
0.0505204
0.055362
0.0602262
0.0652036
0.0653167
0.0654525
0.0756335
0.0808597
0.0811086
0.0863122
0.101674
0.112285
0.103009
0.11362
0.118846
0.123891
0.123824
0.128733
0.138529
0.1381
0.132624
0.127127
0.116946
0.107104
0.102262
0.097353
0.0924435
0.0875566
0.0776471
0.0676697
0.0576923
0.0427149
0.0377602
0.0377602
0.0378281
0.0228959
0.0129186
0.00789593
0.00282805
-0.0072172
-0.0123077
-0.00739819
-0.0124661
-0.0174887
-0.0225566
-0.0226697
-0.0227376
-0.0277828
-0.0229186
-0.0180769
-0.01819
-0.0182805
-0.0133937
-0.00852941
-0.00859729
-0.0136425
-0.0136425
-0.0136425
-0.0135973
-0.0134842
-0.00841629
-0.0033258
-0.00321267
-0.00809955
-0.0130317
-0.0079638
-0.00780543
-0.0176471
-0.0125339
-0.00742082
-0.00728507
-0.0121719
-0.00708145
-0.0069457
-0.0117647
-0.0165837
-0.0114706
-0.00631222
-0.00613122
-0.0109728
-0.0058371
-0.00570136
-0.0105656
-0.0154525
-0.0153394
-0.0151584
-0.0149321
-0.0147285
-0.00954751
-0.00432126
-0.00909502
-0.013914
-0.00873303
-0.00852941
-0.0183032
-0.0181222
-0.0129412
-0.00773755
-0.0175339
-0.0173529
-0.0121493
-0.0169231
-0.0267195
-0.0265611
-0.0164253
-0.0162217
-0.0209955
-0.0258145
-0.0256561
-0.0254751
-0.0353167
-0.040181
-0.0450452
-0.0548869
-0.0447511
0.000316745
0.0653394
0.130407
0.185475
0.240475
0.300475
0.350566
0.415679
0.495724
0.570837
0.565996
0.516177
0.456357
0.371584
0.266878
0.117172
-0.0575339
-0.252217
-0.371923
-0.376652
-0.341403
-0.326109
-0.315792
-0.305475
-0.280204
-0.264955
-0.254729
-0.249548
-0.219389
-0.199208
-0.174005
-0.138869
-0.103801
-0.0837331
-0.0836878
-0.0787104
-0.0787783
-0.0788009
-0.0838462
-0.0789367
-0.0690724
-0.0741855
-0.0742987
-0.064457
-0.0595928
-0.0596606
-0.0647059
-0.0597738
-0.0498416
-0.0548869
-0.0599548
-0.0700453
-0.0651131
-0.0651584
-0.0752262
-0.0702941
-0.0702941
-0.0702489
-0.070181
-0.0601131
-0.0550453
-0.0599547
-0.0598869
-0.0548416
-0.0547511
-0.054638
-0.0545701
-0.0495249
-0.0494118
-0.049276
-0.0491855
-0.0391176
-0.0339819
-0.0388009
-0.0386199
-0.0384389
-0.0332127
-0.0329864
-0.0327828
-0.0275792
-0.0323529
-0.0371493
-0.0319683
-0.0267647
-0.0265385
-0.0262896
-0.0210633
-0.0158371
-0.015543
-0.0152715
-0.0100679
-0.00486425
0.000361994
0.000565615
0.00572399
0.00588236
0.00606336
0.0112217
0.0163575
0.0214932
0.0166516
0.0217873
0.0269005
0.0320136
0.0321267
0.0422398
0.042353
0.0474208
0.0473982
0.057172
0.0718326
0.081448
0.0810407
0.0856335
0.100294
0.104932
0.099457
0.103778
0.108167
0.102896
0.0981221
0.0986199
0.0991629
0.0948416
0.0907692
0.0920136
0.0884616
0.0796833
0.0752036
0.0701357
0.0699547
0.0548869
0.044819
0.0397511
0.0397059
0.0347059
0.0297285
0.0247059
0.0246154
0.0195249
0.0143891
0.0142534
0.0191855
0.0142082
0.014276
0.0193439
0.0243892
0.0193892
0.0193665
0.0243439
0.0293439
0.0243665
0.0243665
0.0293892
0.029457
0.0195249
0.0146154
0.0197059
0.024819
0.0249548
0.0301131
0.0302715
0.0253168
0.0203168
0.0252941
0.0252489
0.0152036
0.0101357
0.0050905
4.52437e-05
-0.00500001
-0.00502263
-2.26349e-05
-0.00502264
-0.0100226
-0.0100905
-0.000181001
-0.000294123
-0.0104525
-0.0156561
-0.010905
-0.0111538
-0.0213575
-0.0265158
-0.0266968
-0.0319231
-0.0371946
-0.0374661
-0.0377376
-0.0430317
-0.0483258
-0.0435973
-0.0388914
-0.0442081
-0.0445475
-0.0448869
-0.0452036
-0.0505204
-0.0608371
-0.0561312
-0.0514027
-0.0516968
-0.051991
-0.0422398
-0.0424887
-0.0427376
-0.0430091
-0.0432805
-0.0485294
-0.0488009
-0.044095
-0.0394118
-0.0396833
-0.0449774
-0.0452489
-0.0454977
-0.0557466
-0.0510407
-0.0363348
-0.00162896
0.0330543
0.0877602
0.157534
0.222353
0.262217
0.322104
0.406968
0.501787
0.551629
0.556448
0.521267
0.456109
0.39595
0.305815
0.165701
-0.00934389
-0.204412
-0.329502
-0.369593
-0.359615
-0.339638
-0.329661
-0.314706
-0.304751
-0.299819
-0.28491
-0.275
-0.255045
-0.235091
-0.205136
-0.175181
-0.150204
-0.130226
-0.115249
-0.105271
-0.105271
-0.0952715
-0.0852941
-0.0803167
-0.0853394
-0.085362
-0.0803846
-0.0804072
-0.0854299
-0.0854525
-0.0804751
-0.085543
-0.0906335
-0.0907014
-0.0857466
-0.0957692
-0.100769
-0.0857692
-0.0707919
-0.0657918
-0.0707466
-0.0657014
-0.0607014
-0.0657014
-0.065724
-0.0557692
-0.0558145
-0.0658371
-0.0658371
-0.0608823
-0.0459502
-0.0410181
-0.0360407
-0.021086
-0.0111538
-0.00122171
-0.00124433
-0.00128958
-0.00638008
-0.00647058
0.00343893
0.0133258
0.0182353
0.0181674
0.0230769
0.0279638
0.0178281
0.0177149
0.0276471
0.0375566
0.0374887
0.0324208
0.0373303
0.0422172
0.0370588
0.0319457
0.0418326
0.0467195
0.041629
0.0416063
0.0465837
0.0515611
0.0515837
0.051629
0.0616063
0.0714253
0.071086
0.0654751
0.0745475
0.0733032
0.0668552
0.0751357
0.0829185
0.0853394
0.0824661
0.0946833
0.102127
0.0950679
0.0836425
0.0778959
0.0879412
0.0990045
0.106403
0.110068
0.124321
0.123643
0.11776
0.121493
0.119887
0.112783
0.0950226
0.10138
0.10181
0.0916063
0.0711991
0.0656787
0.0650453
0.0543439
0.0436199
0.0428281
0.046991
0.0411991
0.0254525
0.0197738
0.0191403
0.0136425
0.00328054
0.00300905
0.00780542
0.00266968
-0.0023982
0.00253393
0.0124887
0.00748868
0.00755656
0.0125792
0.0175792
0.0126018
0.0126244
0.0176244
0.0176244
0.0176697
0.0177149
0.0176923
0.0176471
0.0126018
0.0124887
0.0123303
0.0122172
0.00217194
-0.00282806
-0.00287331
-0.00294118
-0.0079638
-0.00800905
-0.00807692
-0.0131448
-0.01819
-0.0182805
-0.013371
-0.0134615
-0.0134615
-0.0134389
-0.00843891
-0.0134163
-0.0183484
-0.0232127
-0.0181222
-0.0180543
-0.023009
-0.0229638
-0.0229638
-0.0329638
-0.0379186
-0.0328733
-0.0328054
-0.0327149
-0.0326244
-0.0375113
-0.0373756
-0.0421719
-0.0419231
-0.0367194
-0.0364932
-0.0362217
-0.0409728
-0.0357692
-0.0355656
-0.0403394
-0.0451357
-0.0449774
-0.0448416
-0.0546832
-0.0595249
-0.0494344
-0.0143439
0.0257919
0.090905
0.160928
0.22595
0.270973
0.33095
0.43095
0.51595
0.595996
0.611041
0.596154
0.541312
0.471448
0.386561
0.251629
0.0867873
-0.122964
-0.30767
-0.387376
-0.397036
-0.386652
-0.366267
-0.35086
-0.33043
-0.325023
-0.304683
-0.294321
-0.278959
-0.27362
-0.238348
-0.193077
-0.167783
-0.147511
-0.122262
-0.107014
-0.101742
-0.101425
-0.0961765
-0.0859502
-0.085724
-0.0854977
-0.0803168
-0.0751358
-0.0749321
-0.0797511
-0.0795928
-0.0744118
-0.0741629
-0.083914
-0.0786878
-0.0734163
-0.0731222
-0.0728507
-0.0725792
-0.0722851
-0.076991
-0.0816968
-0.0714027
-0.0661086
-0.0607919
-0.0554751
-0.0501584
-0.044819
-0.044457
-0.0491403
-0.0438688
-0.0335973
-0.0383258
-0.0380769
-0.0328507
-0.0226244
-0.0274208
-0.0272172
-0.0270136
-0.0217873
-0.0265385
-0.0263122
-0.0161086
-0.00585974
-0.00563349
-0.0104525
-0.00029413
0.00488687
0.00509049
0.00524886
0.0253846
0.035543
0.0306787
0.0307918
0.0308823
0.0309955
0.0211312
0.016267
0.0213801
0.0165158
0.00667419
0.0118099
0.0119683
0.00714931
0.00735293
0.0125113
0.0226697
0.022828
0.0229864
0.0330995
0.0432127
0.0433484
0.0434615
0.0585294
0.0686425
0.068914
0.074276
0.0897059
0.100181
0.100656
0.106063
0.111471
0.122059
0.117738
0.118394
0.118688
0.118643
0.118484
0.113213
0.117828
0.107195
0.0963801
0.0904073
0.0895249
0.0891629
0.0742082
0.0642986
0.0594117
0.0495249
0.0447059
0.039819
0.0399321
0.0400452
0.035181
0.0302715
0.0254072
0.0206561
0.0158824
0.0110181
0.011086
0.0111538
-0.00377828
-0.00375565
-0.00375566
-0.00368778
-0.00864254
-0.00864254
-0.00864254
-0.0085973
-0.00855205
-0.00852942
-0.0085068
-0.0134389
-0.0183711
-0.0133484
-0.0182806
-0.0181674
-0.0180543
-0.0179638
-0.0178959
-0.0178281
-0.0177828
-0.0177828
-0.0177376
-0.0226923
-0.0276245
-0.0275566
-0.0324661
-0.037353
-0.0372625
-0.0322172
-0.0321946
-0.0321041
-0.0320588
-0.0270136
-0.0269231
-0.02681
-0.0317647
-0.0317421
-0.0317421
-0.0367195
-0.0317421
-0.0267873
-0.0317874
-0.0317421
-0.0267195
-0.0267647
-0.0267647
-0.0317195
-0.0267195
-0.0217647
-0.0267195
-0.0316064
-0.0315385
-0.0214932
-0.026448
-0.0314027
-0.0314254
-0.0315159
-0.0366063
-0.0467195
-0.0419231
-0.0421267
-0.0473077
-0.052534
-0.0478055
-0.0430769
-0.0432806
-0.0484616
-0.0436652
-0.0438235
-0.0489593
-0.054095
-0.0492534
-0.0493665
-0.0494344
-0.0295249
0.0204072
0.0803846
0.145407
0.205385
0.265339
0.325317
0.390317
0.475271
0.570181
0.630113
0.600045
0.554955
0.494819
0.414706
0.289548
0.114321
-0.0909276
-0.286131
-0.386312
-0.386561
-0.37181
-0.357036
-0.352285
-0.332511
-0.312738
-0.302919
-0.293077
-0.278213
-0.253348
-0.233507
-0.203665
-0.163869
-0.124072
-0.109231
-0.104367
-0.0945928
-0.084819
-0.0900227
-0.0852263
-0.0754525
-0.0706788
-0.0758824
-0.0761312
-0.0764027
-0.0766742
-0.0819231
-0.0821946
-0.0825113
-0.0877828
-0.0930543
-0.0933258
-0.0885973
-0.0838462
-0.0840724
-0.0843213
-0.0795701
-0.0797964
-0.0749774
-0.0752036
-0.0704299
-0.0706561
-0.0708824
-0.0661765
-0.0614706
-0.0516742
-0.0568552
-0.0520814
-0.0523529
-0.0575792
-0.0527828
-0.0429864
-0.03819
-0.033371
-0.033552
-0.0288009
-0.0240045
-0.0241176
-0.0242081
-0.0192986
-0.00938914
-0.00959275
-0.0150905
-0.00592759
0.00294118
0.00162896
-0.005
-0.00199095
0.000701362
-0.00192307
-0.00488687
-0.00298642
0.00414028
0.00656109
0.0043439
0.0125792
0.016448
0.0111312
0.0167421
0.0279638
0.0343891
0.030724
0.0269683
0.0330995
0.0342534
0.0403394
0.0413122
0.0471719
0.0530317
0.0538235
0.0594796
0.0601131
0.0658597
0.0667647
0.0778281
0.089095
0.0906561
0.0974661
0.104548
0.116968
0.114819
0.117896
0.125792
0.133462
0.135882
0.137941
0.144434
0.145136
0.134955
0.128914
0.127398
0.115905
0.10448
0.0980996
0.0867421
0.0804751
0.0692986
0.0631674
0.0520588
0.0460407
0.0451357
0.039276
0.0435294
0.0379638
0.0276018
0.0222851
0.0269683
0.0266968
0.0214706
0.0212217
0.0209728
0.0207692
0.0155882
0.0253394
0.0300679
0.0297964
0.0245023
0.024095
0.0286652
0.0232127
0.0177149
0.0171719
0.0166063
0.0110634
0.00549774
0.00990951
0.00932127
0.00377828
-0.00678733
-0.00239819
-0.00803167
-0.00861991
-0.0142081
-0.00481901
-0.00538462
-0.0209276
-0.0264027
-0.0169005
-0.00737557
-0.0128733
-0.0184389
-0.0190045
-0.0245249
-0.03
-0.0304525
-0.020905
-0.0263348
-0.0417873
-0.0522851
-0.0528054
-0.0483258
-0.0238235
0.0406561
0.110113
0.179661
0.224253
0.288824
0.363371
0.432964
0.512579
0.582195
0.606855
0.556606
0.491448
0.406357
0.296312
0.161312
-0.0187104
-0.228778
-0.368801
-0.40871
-0.383575
-0.363462
-0.343348
-0.343213
-0.3281
-0.307986
-0.287851
-0.28267
-0.267466
-0.237262
-0.212014
-0.186742
-0.161425
-0.131086
-0.115701
-0.120249
-0.114819
-0.109344
-0.0988235
-0.0982579
-0.0877149
-0.077172
-0.0715837
-0.0759729
-0.075362
-0.0747285
-0.0740498
-0.0833484
-0.0877376
-0.0821267
-0.0865385
-0.0860181
-0.080543
-0.0800453
-0.0795701
-0.0791403
-0.0787783
-0.0734389
-0.0781448
-0.0779412
-0.0677602
-0.0625792
-0.0623303
-0.0671041
-0.0619231
-0.0567421
-0.0565385
-0.0563801
-0.0562896
-0.0511538
-0.0510181
-0.0509276
-0.0408597
-0.035724
-0.0355656
-0.0304072
-0.0102715
-0.00513574
3.72529e-09
0.00513575
0.0102489
0.0153846
0.0154977
0.0256109
0.0307466
0.030905
0.0260407
0.0311539
0.046267
0.0514027
0.0464932
0.0465159
0.0515385
0.0466063
0.0466968
0.0417195
0.0417421
0.04181
0.0469231
0.0570136
0.0620815
0.0621493
0.057172
0.057172
0.0572172
0.0573303
0.0673982
0.0773982
0.082353
0.0873077
0.0922851
0.0974208
0.0979186
0.088733
0.0898416
0.0961312
0.0976697
0.0945475
0.0967421
0.0993213
0.0922172
0.0802263
0.0730317
0.0655656
0.0577602
0.0594344
0.0704298
0.0756109
0.0698416
0.0534615
0.0469005
0.0454525
0.0390724
0.0377828
0.0414932
0.0452489
0.0390272
0.032715
0.0311312
0.0293439
0.0224208
0.015362
0.00816743
0.000791861
-0.0017647
-0.00966063
-0.00773755
-0.0156561
-0.0232805
-0.025543
-0.0274661
-0.0288235
-0.0344796
-0.0342308
-0.0332127
-0.0368552
-0.0404751
-0.0442082
-0.0330543
-0.0369231
-0.0308371
-0.024819
-0.0238914
-0.0329412
-0.0370588
-0.0312896
-0.0256335
-0.0250905
-0.0246154
-0.00929865
-0.0040724
-0.00884616
-0.0186199
-0.0184389
-0.0183032
-0.0231448
-0.0229864
-0.0128507
-0.00273756
-0.0126244
-0.0124887
-0.00233032
-0.00214933
-0.00692308
-0.00671946
-0.00651584
-0.00624435
-0.00585973
-0.000452496
-0.00500001
-0.0045249
-0.00900453
-0.00348417
-0.00796381
-0.0173982
-0.0168326
-0.011267
-0.010724
-0.020181
-0.0195701
-0.0139593
0.00165157
-0.00271494
-0.00210408
-0.0065611
-0.00606336
-0.0105882
-0.0101358
-0.00972852
-0.00932128
-0.00884616
-0.00837105
-0.00291856
-0.00251133
-0.0120815
-0.0166516
-0.011267
-0.0108371
-0.010362
-0.00990951
-0.00947965
-0.0190498
-0.0335973
-0.0331674
-0.0278281
-0.0225113
-0.0121493
-0.01181
-0.0115159
-0.0162217
-0.015905
-0.0156335
-0.0204525
-0.0253168
-0.0352263
-0.0302036
-0.015181
-0.0150905
-0.0149774
-0.0199095
-0.0199095
-0.0199095
-0.0149095
-0.0149548
-0.015
-0.0100453
0.00493211
0.0448642
0.109751
0.169638
0.22948
0.284253
0.338959
0.403643
0.473258
0.562828
0.59733
0.566833
0.506335
0.435769
0.360181
0.244615
0.0990724
-0.0964932
-0.272036
-0.347557
-0.3531
-0.328643
-0.314186
-0.314638
-0.300091
-0.290498
-0.270882
-0.271222
-0.256584
-0.231968
-0.207308
-0.182602
-0.162896
-0.133213
-0.113484
-0.103665
-0.0988462
-0.0890498
-0.0842308
-0.0843892
-0.0795702
-0.0747512
-0.0698416
-0.0698643
-0.0699095
-0.0749322
-0.0799095
-0.0798643
-0.0698643
-0.0698643
-0.0798643
-0.084819
-0.0847511
-0.089638
-0.0895475
-0.0944344
-0.0893665
-0.089276
-0.0892081
-0.0841855
-0.0841403
-0.0840724
-0.0789819
-0.0789367
-0.0738914
-0.0788235
-0.0836652
-0.0735294
-0.0634163
-0.0533484
-0.0532806
-0.0482353
-0.0381901
-0.0331222
-0.0380317
-0.0329412
-0.0278733
-0.0227828
-0.0276697
-0.0276018
-0.0175566
-0.0174887
-0.0174208
-0.00735295
0.00266968
0.0076923
0.00766967
0.0125792
0.0224887
0.0274434
0.0224208
0.0274208
0.0324208
0.0324208
0.0274208
0.0274208
0.0324208
0.0324208
0.0324208
0.0373756
0.0373529
0.0324434
0.0325792
0.0377149
0.0378054
0.0328054
0.0325792
0.0370588
0.0361538
0.0400226
0.0387104
0.0421267
0.0453394
0.0434842
0.0516516
0.0599095
0.0685747
0.0677149
0.0774434
0.0878959
0.0992986
0.106674
0.104796
0.118439
0.127127
0.12543
0.1231
0.125
0.120995
0.116199
0.11595
0.110611
0.105362
0.0951357
0.0897511
0.084276
0.0837556
0.0732353
0.0675792
0.0668778
0.061267
0.0557692
0.0553394
0.0599547
0.0647285
0.0495701
0.0444118
0.0392534
0.0341176
0.0290045
0.0288914
0.0288009
0.0187557
0.0137557
0.00873303
0.00368778
0.00364254
-0.00140271
0.00352942
0.00350679
0.00348417
-0.00658371
-0.0116742
-0.0167873
-0.0169005
-0.0220362
-0.0172398
-0.0174208
-0.0176471
-0.0178507
-0.0230543
-0.0232805
-0.0284842
-0.0286878
-0.028914
-0.029095
-0.034276
-0.0345023
-0.0297059
-0.0248869
-0.025
-0.0251131
-0.0252263
-0.0302941
-0.035362
-0.0354751
-0.0306109
-0.030724
-0.0357919
-0.035905
-0.0360634
-0.0361765
-0.0362444
-0.0363349
-0.0264027
-0.0264253
-0.0264253
-0.026448
-0.0264706
-0.031448
-0.0314027
-0.0263801
-0.0263349
-0.0262444
-0.0311539
-0.0311086
-0.031086
-0.0360181
-0.0409502
-0.040905
-0.0408597
-0.0508371
-0.0608371
-0.0608824
-0.0559276
-0.0359955
0.0138914
0.0837556
0.16862
0.218484
0.263326
0.338145
0.422964
0.502805
0.557647
0.597579
0.562579
0.512647
0.447715
0.357851
0.238077
0.058371
-0.136312
-0.311018
-0.390656
-0.380226
-0.354819
-0.329389
-0.323937
-0.323439
-0.297964
-0.282511
-0.277059
-0.266629
-0.231199
-0.195814
-0.17543
-0.155
-0.124615
-0.0992534
-0.0938688
-0.0934615
-0.0830769
-0.0727149
-0.0773303
-0.0719004
-0.0615384
-0.0562217
-0.050905
-0.0505882
-0.0502715
-0.0499547
-0.0546154
-0.0592986
-0.0540498
-0.0488235
-0.0535973
-0.0583484
-0.0531448
-0.0529185
-0.0526697
-0.0523982
-0.0521719
-0.046991
-0.05181
-0.046629
-0.0364932
-0.0363348
-0.0261312
-0.030905
-0.0257014
-0.020543
-0.025362
-0.0202036
-0.0150452
-0.0198869
-0.0247059
-0.0195475
-0.0144344
-0.00929863
-0.0141176
-0.0139366
-0.00877826
-0.00859727
-0.00339365
0.00176472
0.0119231
0.0121267
0.00733033
0.0125113
0.0226697
0.0228281
0.0130091
0.0181674
0.0233032
0.0234842
0.0237104
0.0289367
0.0341629
0.0343891
0.0345249
0.034457
0.0341177
0.0284615
0.0275792
0.0314027
0.0349774
0.0282127
0.0260633
0.0284842
0.0306561
0.0329412
0.0303846
0.0380769
0.0411086
0.0447059
0.0491629
0.0547511
0.0615611
0.0642534
0.0771946
0.0852489
0.0935294
0.0971946
0.101176
0.0953394
0.0945928
0.0936652
0.0974887
0.095905
0.0888462
0.0861538
0.0875339
0.087828
0.0822172
0.0712443
0.0702941
0.0594344
0.0536652
0.0379412
0.0371946
0.0415611
0.0359955
0.0354525
0.0249321
0.0295475
0.0243439
0.0142534
0.0142307
0.0143212
0.00954748
-0.000181027
9.04649e-05
0.00536197
0.00572396
0.00113119
0.00156106
0.00699092
0.00242078
-0.00214935
-0.00678736
-0.00642537
-0.0110407
-0.0156787
-0.005362
-0.00504526
-0.0097059
-0.0144344
-0.00918555
-0.00891405
-0.0136199
-0.0183484
-0.0180996
-0.0128507
-0.0175792
-0.017353
-0.0121493
-0.0119005
-0.0216516
-0.0263801
-0.0211765
-0.0159729
-0.0207466
-0.0205656
-0.0203846
-0.0202263
-0.0251131
-0.0250453
-0.0149774
-0.0148869
-0.0197964
-0.0197285
-0.0146833
-0.0196154
-0.0295702
-0.0245249
-0.024457
-0.0293213
-0.0291403
-0.0290272
-0.023914
-0.023733
-0.028552
-0.0234389
-0.0183032
-0.0181448
-0.0279865
-0.0278733
-0.0277602
-0.0276471
-0.0125566
0.0324887
0.0975113
0.167534
0.217511
0.277421
0.332308
0.407195
0.487059
0.576855
0.631697
0.606584
0.561493
0.49638
0.421335
0.30138
0.131471
-0.0684163
-0.268281
-0.378054
-0.382783
-0.362443
-0.337059
-0.336606
-0.326131
-0.310656
-0.290181
-0.284729
-0.279299
-0.253869
-0.238416
-0.218009
-0.192647
-0.147285
-0.1219
-0.121516
-0.116177
-0.110837
-0.105475
-0.110136
-0.104864
-0.104615
-0.104367
-0.104163
-0.0989819
-0.0938462
-0.0986425
-0.103462
-0.0983484
-0.0932127
-0.0980091
-0.102828
-0.102715
-0.0926018
-0.102421
-0.117262
-0.117172
-0.107081
-0.101968
-0.0969005
-0.0819005
-0.0819231
-0.0869005
-0.0869005
-0.0819005
-0.07681
-0.0766743
-0.0665611
-0.0664933
-0.0664028
-0.0713123
-0.066267
-0.061267
-0.0612444
-0.0611539
-0.0560634
-0.0459729
-0.0458145
-0.0456788
-0.0405883
-0.030543
-0.0254525
-0.0253168
-0.0202036
-0.0150905
-0.00493216
0.000226215
0.00533932
0.0104298
0.010543
0.0156561
0.015724
0.0208145
0.0209502
0.0260633
0.0311312
0.0312443
0.0263348
0.0163801
0.0264253
0.0314706
0.0265611
0.026629
0.0316742
0.0317647
0.0319005
0.0320136
0.0420588
0.0471267
0.0521946
0.0572399
0.0673756
0.0727376
0.0733711
0.0792534
0.0953394
0.106674
0.113235
0.115136
0.132398
0.130091
0.128009
0.130814
0.138416
0.135747
0.122738
0.119208
0.119909
0.119729
0.10362
0.0920136
0.0854299
0.0789367
0.0675339
0.0611086
0.0597285
0.0484163
0.047172
0.0459503
0.0447512
0.0336426
0.0325566
0.0365837
0.0357692
0.030181
0.0247059
0.0242308
0.0238009
0.00834843
0.0078733
0.00735294
0.0118552
0.0163575
0.0208823
0.0254525
0.0250226
0.0145927
0.0141402
0.0187104
0.0133031
-0.00210413
-0.00255662
0.00194564
0.00147052
-0.00895934
-0.00445709
0.00497732
0.0044117
0.00373297
0.00787324
0.0168099
0.0154977
0.00384609
0.00196826
-0.00518104
-0.0177602
-0.030724
-0.0340498
-0.0323304
-0.0354073
-0.0381448
-0.0356561
-0.0328733
-0.0395249
-0.0504299
-0.0554978
-0.0547285
-0.0635973
-0.0574434
-0.0563801
-0.0502941
-0.0542081
-0.0581674
-0.0571493
-0.0561538
-0.0651584
