ekg
0
-0.00166667
0.00999999
0.0135714
0.0355556
0.0459091
0.0796154
0.114
0.159118
0.190263
0.187619
0.172174
0.1058
0.00962961
-0.0955173
-0.173871
-0.204394
-0.232143
-0.241757
-0.232821
-0.225122
-0.213605
-0.208222
-0.198617
-0.194592
-0.18598
-0.17783
-0.170091
-0.16307
-0.15661
-0.150984
-0.151349
-0.152385
-0.148806
-0.14058
-0.137394
-0.139315
-0.1362
-0.133117
-0.130063
-0.131914
-0.128675
-0.120353
-0.116897
-0.113315
-0.10956
-0.110591
-0.106737
-0.107938
-0.109293
-0.105743
-0.107573
-0.104714
-0.107243
-0.104862
-0.0977477
-0.0961062
-0.0947826
-0.088718
-0.0829412
-0.0724793
-0.0623171
-0.05244
-0.0477165
-0.043062
-0.0434733
-0.0389474
-0.0394074
-0.035
-0.0406115
-0.046383
-0.0473077
-0.0482759
-0.0541497
-0.0599664
-0.060894
-0.0666667
-0.0673548
-0.0729299
-0.0783962
-0.0838199
-0.0891718
-0.0944545
-0.0997006
-0.104852
-0.109942
-0.120116
-0.125114
-0.130085
-0.135056
-0.150083
-0.155137
-0.165189
-0.165214
-0.160212
-0.165209
-0.170285
-0.170385
-0.165457
-0.170578
-0.170697
-0.160813
-0.155878
-0.150942
-0.145933
-0.135853
-0.130728
-0.130535
-0.135346
-0.130205
-0.115136
-0.102715
-0.0901131
-0.0823077
-0.0693891
-0.0613348
-0.0532353
-0.0401131
-0.0320588
-0.0190724
-0.00617645
0.00647061
0.0138688
0.0258371
0.0372398
0.0430317
0.0433484
0.0484163
0.0482806
0.0530317
0.0527602
0.0574661
0.0571946
0.0569005
0.0565837
0.0612217
0.0708597
0.0654978
0.0701132
0.0747285
0.0843439
0.0890046
0.0936652
0.0983032
0.0929186
0.0925566
0.0872172
0.0868552
0.0864706
0.0911086
0.100792
0.0904525
0.0801358
0.0798417
0.0795702
0.0742987
0.0690272
0.0637105
0.0633937
0.0630543
0.0576923
0.0573304
0.0519457
0.0515385
0.046086
0.0456109
0.0451584
0.0397285
0.0343213
0.0289367
0.0335747
0.0382579
0.0380091
0.0277828
0.0175566
0.0173982
0.0222398
0.0221041
0.016991
0.0219005
0.0267873
0.0266516
0.0265385
0.0264254
0.0263122
0.0261991
0.021086
0.0209729
0.020905
0.0208598
0.0208371
0.0258145
0.0307693
0.030724
0.0306788
0.0306109
0.025543
0.0304299
0.0353394
0.0352036
0.0300453
0.0298416
0.0346154
0.0293439
0.0240272
0.023733
0.0284163
0.0230769
0.0127376
0.0123982
0.0070362
0.00669684
0.00138009
-0.00393665
-0.00423077
-0.00450226
-0.00475113
-0.00497738
0.00477375
0.00450226
0.00923076
0.00400451
0.00375565
0.00350678
0.00319003
0.0027828
-0.00285069
0.00126696
0.000135735
-0.0011991
-0.00766969
-0.00420815
-0.00572399
-0.0122625
-0.0138009
-0.0104525
-0.00726246
-0.00432128
-0.00658372
-0.00904979
-0.011629
-0.014276
-0.021991
-0.0247059
-0.0224435
-0.0200905
-0.0226244
-0.0249321
-0.021991
-0.0236652
-0.0247511
-0.0352263
-0.0402489
-0.0399548
-0.0344797
-0.033914
-0.0382806
-0.0376018
-0.0318552
-0.036086
-0.0452715
-0.0444118
-0.0485521
-0.0477149
-0.0518778
-0.0510407
-0.0502036
-0.0443665
-0.0435521
-0.0427376
-0.0419231
-0.0411086
-0.0402941
-0.0345023
-0.0287104
-0.0229412
-0.0221946
-0.026448
-0.030724
-0.0300226
-0.0293213
-0.0286199
-0.0329186
-0.0272172
-0.0215611
-0.0309502
-0.0303846
-0.029819
-0.034276
-0.0337557
-0.0332353
-0.0326923
-0.0371267
-0.0365837
-0.0410634
-0.0455882
-0.0451131
-0.0496833
-0.0592534
-0.0688462
-0.0784616
-0.0830543
-0.0825792
-0.0870588
-0.0915159
-0.0909729
-0.0954299
-0.0949095
-0.104367
-0.0987783
-0.0981674
-0.102557
-0.101946
-0.10129
-0.0906335
-0.0899774
-0.0893213
-0.0886425
-0.0879864
-0.0823756
-0.0817873
-0.0862217
-0.0806787
-0.075181
-0.0747285
-0.0742082
-0.0686425
-0.0680769
-0.0625113
-0.0619005
-0.056267
-0.0506335
-0.035
-0.0243892
-0.00375567
0.0269004
0.0825566
0.143235
0.208959
0.259706
0.30043
0.326109
0.33181
0.342534
0.353258
0.388937
0.429593
0.485249
0.535905
0.581516
0.612059
0.627602
0.648145
0.648643
0.654072
0.63448
0.614842
0.575158
0.515385
0.435566
0.310701
0.185792
0.0907919
0.0257014
-0.00941176
-0.0345475
-0.0497511
-0.0650226
-0.0803167
-0.0855882
-0.0908597
-0.0912217
-0.101606
-0.107014
-0.107421
-0.107805
-0.113213
-0.118597
-0.118937
-0.119253
-0.119548
-0.124842
-0.125113
-0.125385
-0.125611
-0.125792
-0.120905
-0.121018
-0.121154
-0.121312
-0.126448
-0.121561
-0.116697
-0.116833
-0.116946
-0.117014
-0.107127
-0.102262
-0.0973982
-0.0975792
-0.0927375
-0.0929412
-0.0981448
-0.0933484
-0.088552
-0.0788009
-0.079095
-0.0743665
-0.0746832
-0.0700679
-0.065543
-0.0710633
-0.0816063
-0.0871493
-0.0927376
-0.0933484
-0.0939593
-0.0945701
-0.0951584
-0.100792
-0.10638
-0.111946
-0.112511
-0.118077
-0.12362
-0.129095
-0.129548
-0.13
-0.130475
-0.130928
-0.126335
-0.126719
-0.122127
-0.117489
-0.112828
-0.12819
-0.138552
-0.138914
-0.139299
-0.139683
-0.14509
-0.140475
-0.145837
-0.141131
-0.146403
-0.151584
-0.151629
-0.161425
-0.165973
-0.170226
-0.164253
-0.158122
-0.156878
-0.160611
-0.164299
-0.152919
-0.14138
-0.134683
-0.127738
-0.11552
-0.0980995
-0.095543
-0.0929185
-0.085181
-0.0674434
-0.0547059
-0.0370588
-0.0245023
-0.00212669
0.015
0.0267873
0.0380317
0.0487557
0.0640272
0.0689819
0.0788235
0.093552
0.103213
0.10776
0.10724
0.101697
0.111109
0.115543
0.114932
0.114299
0.103665
0.108009
0.102308
0.0965837
0.0908824
0.0851584
0.0844344
0.0786652
0.0778733
0.0720815
0.066267
0.0554751
0.0547059
0.0539593
0.0532127
0.0474435
0.0416742
0.0459276
0.040181
0.0394344
0.0337104
0.0329864
0.0373077
0.0366516
0.0410181
0.0353846
0.0447964
0.0442082
0.0386199
0.0380543
0.0425113
0.046991
0.0414706
0.0459955
0.0505204
0.0600679
0.059638
0.0592082
0.0587557
0.0632806
0.0627602
0.0622172
0.0566742
0.0511312
0.0505883
0.0450453
0.0395249
0.0340045
0.0334616
0.0279412
0.0223982
0.0168552
0.0162896
0.020724
0.015181
0.00963802
0.00414028
0.00361992
-0.00187782
-0.00235293
0.00219458
0.00167422
0.0061086
0.010543
0.0149774
0.0193892
0.0187557
0.0181674
0.0175792
0.0220136
0.0214027
0.0207692
0.0201584
0.0245023
0.0238009
0.0230769
0.027353
0.0266516
0.0259276
0.025181
0.0194118
0.0186652
0.0229412
0.0221719
0.0113575
0.0104299
0.00927601
0.0077828
0.00099547
-0.000972854
0.00196832
-0.000203622
-0.00237557
-0.00457014
-0.0117421
-0.0190498
-0.0265611
-0.039276
-0.0371493
-0.0350905
-0.0481674
-0.0512217
-0.0542534
-0.0471946
-0.0500679
-0.0528054
-0.0504072
-0.0577149
-0.0595701
-0.0608824
-0.0615837
-0.0569231
-0.0519231
-0.0517647
-0.0564932
-0.0511765
-0.0508597
-0.0454977
-0.0400905
-0.039638
-0.0341855
-0.038733
-0.0383032
-0.0428507
-0.0423982
-0.0369457
-0.0415158
-0.041086
-0.0356561
-0.0352941
-0.04
-0.0397059
-0.0394344
-0.0391403
-0.0388235
-0.0384615
-0.0431222
-0.0427828
-0.0474887
-0.0472624
-0.0470362
-0.0417873
-0.0415158
-0.0462443
-0.0459502
-0.0456335
-0.0452941
-0.0499548
-0.0545928
-0.0542082
-0.0488235
-0.0434389
-0.0430543
-0.0426923
-0.042353
-0.0470136
-0.0567195
-0.061448
-0.0561991
-0.0659502
-0.065724
-0.0704978
-0.0652715
-0.0650453
-0.0697964
-0.0695475
-0.0743213
-0.0691177
-0.0688914
-0.0686878
-0.0684616
-0.0682353
-0.0680317
-0.0678054
-0.0675113
-0.0621493
-0.0567421
-0.0613348
-0.0659276
-0.0654751
-0.0599774
-0.0594796
-0.0639819
-0.0634615
-0.0578733
-0.0572851
-0.0516516
-0.0509729
-0.0452941
-0.0446154
-0.043914
-0.0382127
-0.0324887
-0.0167195
-0.000927607
0.034819
0.100543
0.176267
0.241991
0.287692
0.323371
0.359027
0.374683
0.390317
0.405905
0.451425
0.506923
0.562376
0.60776
0.638145
0.673507
0.678778
0.688982
0.679163
0.669344
0.639525
0.604683
0.549842
0.45491
0.334955
0.199977
0.109977
0.0399774
-2.26162e-05
-0.0300452
-0.0451131
-0.0502036
-0.0603394
-0.0754977
-0.0856335
-0.0907918
-0.0959276
-0.101109
-0.10629
-0.106538
-0.10681
-0.107081
-0.112376
-0.10767
-0.0979185
-0.0831674
-0.0884389
-0.0836652
-0.0838914
-0.0891176
-0.0943213
-0.0945249
-0.0847511
-0.075
-0.0652489
-0.0655204
-0.0657692
-0.0659955
-0.0711538
-0.0713122
-0.071448
-0.0665611
-0.0666968
-0.0718326
-0.0769909
-0.0721719
-0.0723077
-0.0724208
-0.0725113
-0.0726018
-0.0726471
-0.0676923
-0.0677828
-0.0678959
-0.068009
-0.06819
-0.0733484
-0.0785294
-0.0787104
-0.078914
-0.0841402
-0.0843665
-0.0846154
-0.0898416
-0.0900678
-0.0953167
-0.0905656
-0.0857918
-0.0860181
-0.0962217
-0.106425
-0.111629
-0.111855
-0.112081
-0.12233
-0.127579
-0.127783
-0.127964
-0.13319
-0.143416
-0.143643
-0.153869
-0.159027
-0.159186
-0.159299
-0.164412
-0.169525
-0.174615
-0.179661
-0.184615
-0.18448
-0.179186
-0.178575
-0.177602
-0.17629
-0.169774
-0.158122
-0.156335
-0.149502
-0.137624
-0.125701
-0.123597
-0.116244
-0.108643
-0.100837
-0.0879186
-0.0748869
-0.0568326
-0.0487557
-0.035724
-0.0327602
-0.0249095
-0.0172398
0.000135729
0.0070588
0.0134615
0.019276
0.0246832
0.0297964
0.0347285
0.0395249
0.0492534
0.0589366
0.0685746
0.0681448
0.0726923
0.0722172
0.0767194
0.0762217
0.085724
0.0902262
0.0947285
0.0942307
0.093733
0.0882579
0.087828
0.0874887
0.0771493
0.0768778
0.0766289
0.0713574
0.0711086
0.0708371
0.0755882
0.0703394
0.0751131
0.0698642
0.0696154
0.0543439
0.0490271
0.0437104
0.038371
0.0430769
0.0378054
0.0375339
0.0422851
0.0370588
0.0368552
0.0316742
0.0315158
0.0214027
0.0163122
0.0162669
0.0162217
0.0211538
0.026086
0.0210407
0.0209728
0.0259276
0.0308823
0.0308597
0.0308145
0.0307918
0.0307918
0.0307692
0.0357692
0.0357692
0.0308371
0.0309502
0.0261086
0.0262443
0.0313348
0.0413801
0.0364027
0.036448
0.036448
0.031448
0.026448
0.031448
0.0314253
0.0363348
0.0362217
0.0260407
0.0258371
0.0206109
0.020362
0.0200905
0.0197738
0.0144344
0.00904977
0.00364253
0.0032353
-0.00217194
-0.00762443
-0.0180769
-0.0185068
-0.0139367
-0.00932127
-0.00472851
-0.00015837
0.00436652
0.00880091
0.0079638
0.00687783
0.00556561
0.00909503
0.0175566
0.0159502
0.0194118
0.0178507
0.0212896
0.0145701
0.0176471
0.0254751
0.0281222
0.0205882
0.0128959
0.010181
0.00239819
-0.000384616
-0.00319004
-0.0059276
-0.00352941
-0.00590498
-0.00787331
-0.0143891
-0.0152262
-0.0154977
-0.0203394
-0.0249095
-0.024276
-0.0235294
-0.0227149
-0.0268552
-0.0259502
-0.0250452
-0.029095
-0.0331222
-0.0421493
-0.0461538
-0.0451357
-0.054095
-0.048009
-0.0419231
-0.0308371
-0.0247511
-0.0186199
-0.0175113
-0.0114706
-0.00547511
-0.00447964
0.00151584
-0.00255655
-0.00662896
-0.010724
-0.0197964
-0.0188688
-0.0229638
-0.0270814
-0.0312443
-0.0404299
-0.0446833
-0.0489819
-0.0482805
-0.0425792
-0.0418326
-0.046086
-0.045362
-0.054638
-0.053914
-0.05819
-0.0575113
-0.06181
-0.0661086
-0.0654072
-0.0697059
-0.0740045
-0.0832805
-0.0875792
-0.0968778
-0.101199
-0.10052
-0.0948416
-0.0891176
-0.093371
-0.0926244
-0.0968552
-0.0961312
-0.0954299
-0.0946833
-0.0889366
-0.0831674
-0.0773756
-0.0765837
-0.0707919
-0.0650452
-0.0642986
-0.0585294
-0.0577149
-0.0518778
-0.0510407
-0.0502262
-0.0443665
-0.0335294
-0.0326697
-0.0368326
-0.0309955
-0.0301131
-0.0242081
-0.0132805
0.00766969
0.0386425
0.099638
0.160656
0.216697
0.257738
0.283778
0.309842
0.310905
0.321946
0.332964
0.368959
0.419887
0.480792
0.536719
0.582647
0.623507
0.634299
0.655068
0.660815
0.671538
0.66224
0.642919
0.603575
0.524163
0.424683
0.280158
0.155633
0.066086
0.00644796
-0.0282353
-0.0479412
-0.0576697
-0.0674661
-0.0773077
-0.0821493
-0.0920136
-0.0969005
-0.10681
-0.111742
-0.116697
-0.126674
-0.136697
-0.136719
-0.131719
-0.136674
-0.141606
-0.141493
-0.12638
-0.131244
-0.136063
-0.14086
-0.130634
-0.125407
-0.125204
-0.130045
-0.124932
-0.124819
-0.119729
-0.114661
-0.109593
-0.104548
-0.0995475
-0.0995928
-0.099638
-0.104661
-0.0996833
-0.0997059
-0.0997285
-0.0947738
-0.089819
-0.0798869
-0.0849774
-0.0850905
-0.0852263
-0.085362
-0.0805204
-0.0857014
-0.085905
-0.0861086
-0.0863575
-0.0866064
-0.0818326
-0.0820362
-0.0922172
-0.0924208
-0.0976018
-0.0928054
-0.0930543
-0.0982806
-0.0985068
-0.0986652
-0.103824
-0.113959
-0.114072
-0.109186
-0.109276
-0.114389
-0.124457
-0.134502
-0.139502
-0.139502
-0.14948
-0.149434
-0.159321
-0.164208
-0.164118
-0.169005
-0.168846
-0.168665
-0.168439
-0.168122
-0.16767
-0.171968
-0.176018
-0.174842
-0.168484
-0.162036
-0.16052
-0.148982
-0.142398
-0.130747
-0.118937
-0.1069
-0.0995928
-0.0920362
-0.0792987
-0.0664027
-0.0584842
-0.0554751
-0.0474434
-0.0393891
-0.0313801
-0.0184615
-0.000723965
0.0166516
0.0235521
0.0247738
0.0304299
0.0457014
0.0507014
0.0555882
0.0603846
0.0751358
0.0798416
0.0795249
0.0841855
0.0837783
0.0833711
0.0779186
0.0774661
0.0819683
0.0814027
0.0857693
0.0851358
0.0845249
0.0838914
0.0782353
0.0776018
0.0770362
0.071448
0.0658371
0.0652263
0.0596606
0.0591403
0.0635973
0.063009
0.0624434
0.0618778
0.0613348
0.0557918
0.0502941
0.054819
0.0593665
0.0588914
0.0584389
0.0579638
0.0525113
0.0520588
0.0466289
0.0462443
0.0458823
0.050543
0.0501583
0.0497737
0.0493891
0.0490045
0.0486651
0.0433031
0.0379411
0.0375791
0.0322171
0.0268552
0.0265158
0.0262217
0.0258823
0.020543
0.020181
0.0298416
0.0245023
0.0241629
0.0138688
0.0186199
0.0183711
0.0130996
0.0178281
0.0175792
0.0223078
0.0170136
0.0116743
0.00633492
0.00595029
0.00056567
0.000135794
-0.00529407
-0.00579182
-0.0063122
-0.00680994
-0.0173077
-0.0178054
-0.0183032
-0.0188009
-0.0193213
-0.014819
-0.010362
-0.00595023
-0.00656111
-0.00217196
0.0072398
0.00162896
0.00104073
-0.00457014
-0.00518101
-0.0058145
-0.00647061
-0.0071946
-0.00305432
0.00083708
0.00434387
0.00260178
0.000610817
0.00350674
0.00131217
-0.000905026
-0.00309959
-0.00531679
-0.00260186
-0.000158422
-0.00291861
-0.010905
-0.0139593
-0.0271041
-0.0302489
-0.0333937
-0.0364707
-0.0444345
-0.047353
-0.0450679
-0.0526245
-0.0548417
-0.0616516
-0.057896
-0.0535068
-0.0486878
-0.0485747
-0.0483032
-0.0479186
-0.0474887
-0.0520589
-0.0515838
-0.0510634
-0.0505204
-0.0549774
-0.0544344
-0.0588688
-0.0532806
-0.0476471
-0.0470136
-0.0463801
-0.0457467
-0.0401132
-0.0445023
-0.0438915
-0.0432353
-0.037534
-0.0418326
-0.0411765
-0.0405657
-0.0399774
-0.0444118
-0.0488688
-0.0483485
-0.0428281
-0.0372851
-0.0367647
-0.036267
-0.0357693
-0.0402715
-0.0397512
-0.0392761
-0.0388236
-0.0383711
-0.0379412
-0.0375792
-0.0472399
-0.0469005
-0.0465611
-0.046267
-0.0459955
-0.0456788
-0.0504073
-0.0601358
-0.0699321
-0.0747285
-0.0795249
-0.0793439
-0.0791403
-0.0739593
-0.073733
-0.0735068
-0.0833032
-0.0780996
-0.0778733
-0.0776697
-0.0774435
-0.0722398
-0.0720362
-0.07681
-0.0815385
-0.0812896
-0.0810181
-0.0806787
-0.0753167
-0.0799095
-0.074457
-0.068914
-0.0633484
-0.0577376
-0.0571041
-0.0514027
-0.0456787
-0.0349321
-0.0241855
-0.00846155
0.00730768
0.0280995
0.0638914
0.129683
0.225475
0.286267
0.342036
0.372783
0.398507
0.409231
0.414932
0.435588
0.466222
0.531855
0.577489
0.633077
0.66362
0.689118
0.694548
0.699932
0.700272
0.680588
0.67086
0.631131
0.596403
0.521606
0.426787
0.3019
0.166991
0.0721041
0.0121946
-0.0227149
-0.0476697
-0.0576471
-0.0626697
-0.0727376
-0.0828054
-0.0929186
-0.0980543
-0.0982353
-0.108439
-0.113665
-0.118891
-0.119095
-0.119299
-0.11948
-0.119661
-0.119796
-0.124932
-0.130045
-0.135158
-0.135272
-0.125385
-0.11552
-0.115679
-0.11086
-0.111041
-0.106222
-0.106425
-0.106584
-0.101719
-0.0968552
-0.0969683
-0.0970815
-0.102217
-0.097353
-0.0974661
-0.0976018
-0.0977376
-0.0878733
-0.0829864
-0.0831222
-0.0832579
-0.0783937
-0.0735294
-0.0736425
-0.0687783
-0.0689593
-0.0641855
-0.0594344
-0.0597285
-0.0600453
-0.0603846
-0.0557466
-0.061086
-0.066448
-0.0667873
-0.0722172
-0.0776697
-0.0781448
-0.0836199
-0.0840724
-0.0845249
-0.0899774
-0.100475
-0.105995
-0.111516
-0.127036
-0.132602
-0.143167
-0.148756
-0.164344
-0.164932
-0.175475
-0.175973
-0.181448
-0.191923
-0.197398
-0.202828
-0.19819
-0.208507
-0.213733
-0.213869
-0.208846
-0.203552
-0.197828
-0.19181
-0.185566
-0.174163
-0.17267
-0.166109
-0.154525
-0.147851
-0.141041
-0.133914
-0.121584
-0.113959
-0.101199
-0.0933258
-0.0804299
-0.0675114
-0.0595928
-0.0517647
-0.0490045
-0.0414027
-0.0289592
-0.0218778
-0.0102036
0.000905037
0.00140277
0.011448
0.0112444
0.0208824
0.0254299
0.0349322
0.0394118
0.0388462
0.048258
0.0526471
0.0570136
0.0614027
0.0607466
0.0650453
0.064276
0.0634842
0.0576923
0.0569005
0.051086
0.0452715
0.0394344
0.0385747
0.0426923
0.0367873
0.0409276
0.0451131
0.0493212
0.043552
0.0378054
0.0420814
0.0363574
0.0356561
0.0349773
0.0293665
0.0287782
0.0282126
0.0276244
0.0220814
0.026561
0.0260633
0.0255882
0.0201583
0.0147737
0.0143891
0.0140045
0.0136425
0.00830313
0.0129864
0.0176923
0.0173982
0.012104
0.0168552
0.0166289
0.0213801
0.0261312
0.0258823
0.0305882
0.0252941
0.0349773
0.0446154
0.0492081
0.0488009
0.043371
0.0479411
0.0475339
0.0521267
0.0516742
0.0511991
0.050724
0.0602036
0.0646832
0.0641176
0.0685746
0.0729864
0.0674208
0.0618099
0.0561991
0.0606109
0.065
0.0643665
0.0587331
0.0631222
0.0574435
0.0567421
0.0560181
0.0603168
0.0596607
0.0540272
0.0584163
0.0528281
0.0572851
0.0517195
0.0511539
0.0506335
0.0501358
0.0446606
0.0442308
0.0338009
0.0333484
0.0328733
0.0322851
0.0314932
0.0304299
0.0290271
0.0323982
0.0255204
0.0235294
0.0264706
0.0194118
0.0173529
0.0152262
0.0178959
0.0103394
0.00755655
-0.000407245
-0.00343892
-0.00651585
-0.00957015
-0.0176923
-0.0257466
-0.0287557
-0.0367195
-0.0395023
-0.0370815
-0.0292082
-0.0257692
-0.0267195
-0.0272398
-0.0224887
-0.0225566
-0.0224887
-0.0223756
-0.0222172
-0.0170136
-0.0167873
-0.0165385
-0.0212217
-0.0208371
-0.0254525
-0.0250679
-0.024638
-0.0291855
-0.0287104
-0.0382127
-0.0427602
-0.0472624
-0.0467195
-0.0511991
-0.055724
-0.0602715
-0.0648416
-0.0644118
-0.0690045
-0.0686425
-0.0682805
-0.0679186
-0.0675792
-0.0722851
-0.0719683
-0.0716063
-0.0662443
-0.0709276
-0.0756109
-0.0702715
-0.0699095
-0.0645249
-0.0591629
-0.0637557
-0.0583484
-0.0529186
-0.0474434
-0.0469231
-0.0464027
-0.045905
-0.0503846
-0.0548416
-0.054276
-0.0537104
-0.0581222
-0.0625339
-0.0669005
-0.0661991
-0.0754751
-0.0797059
-0.0838914
-0.0830996
-0.0822851
-0.0914932
-0.0956335
-0.0947059
-0.0987557
-0.0978054
-0.0917873
-0.0907466
-0.0846606
-0.083552
-0.0873982
-0.0862444
-0.0850905
-0.083914
-0.0827376
-0.0765158
-0.0703167
-0.0691403
-0.0679638
-0.0667647
-0.0706109
-0.0594344
-0.0483484
-0.0322624
-0.00122172
0.0548416
0.125905
0.206923
0.262941
0.318937
0.349887
0.375814
0.381765
0.392692
0.418552
0.464344
0.525045
0.575634
0.626041
0.646267
0.66629
0.666086
0.680543
0.674593
0.668281
0.661742
0.624955
0.577986
0.48086
0.353643
0.216267
0.113643
0.0507692
0.00266968
-0.0355204
-0.0537783
-0.0670136
-0.0752262
-0.0882579
-0.0910181
-0.103326
-0.115045
-0.121109
-0.126584
-0.131674
-0.141538
-0.146267
-0.150928
-0.145611
-0.155294
-0.164932
-0.159548
-0.154163
-0.143801
-0.138462
-0.138167
-0.137896
-0.132624
-0.132353
-0.132081
-0.12681
-0.121538
-0.12129
-0.126018
-0.125724
-0.12043
-0.115158
-0.119887
-0.119593
-0.119299
-0.113982
-0.11862
-0.123281
-0.117896
-0.117511
-0.122104
-0.121674
-0.121244
-0.120814
-0.125407
-0.124955
-0.124434
-0.128914
-0.128394
-0.127873
-0.137353
-0.141878
-0.146425
-0.150973
-0.15052
-0.160068
-0.159615
-0.169208
-0.178824
-0.183416
-0.188032
-0.197624
-0.207195
-0.216765
-0.221312
-0.22586
-0.225453
-0.230045
-0.229661
-0.234299
-0.238937
-0.238552
-0.233167
-0.232851
-0.237579
-0.23233
-0.237172
-0.227014
-0.226878
-0.216719
-0.221493
-0.221063
-0.210339
-0.209276
-0.197986
-0.191493
-0.184887
-0.183213
-0.181538
-0.164864
-0.148077
-0.121109
-0.0988688
-0.0564253
-0.0188009
0.0288914
0.081629
0.159367
0.247127
0.324842
0.377534
0.430181
0.472647
0.514864
0.546674
0.587919
0.643552
0.698733
0.753665
0.773394
0.787964
0.782466
0.776923
0.74138
0.680769
0.580158
0.444502
0.298824
0.1631
0.0773303
0.0265611
-0.00923077
-0.0250226
-0.0308371
-0.0366063
-0.0524208
-0.0582579
-0.0640271
-0.064819
-0.0655882
-0.0613575
-0.0571267
-0.0629412
-0.0637557
-0.0645928
-0.0654073
-0.0661765
-0.0669005
-0.0726018
-0.0783258
-0.0740272
-0.0747059
-0.0803168
-0.080905
-0.0814706
-0.0820362
-0.0875792
-0.0881448
-0.0937557
-0.0893439
-0.0899548
-0.0955883
-0.0962217
-0.0968552
-0.0974887
-0.113167
-0.128824
-0.129457
-0.135113
-0.140724
-0.14629
-0.136855
-0.142443
-0.148032
-0.153643
-0.154208
-0.154819
-0.155407
-0.156018
-0.161674
-0.162376
-0.1681
-0.168846
-0.169615
-0.17043
-0.171267
-0.167104
-0.167919
-0.163778
-0.159615
-0.160475
-0.161335
-0.157217
-0.1431
-0.133982
-0.12991
-0.115814
-0.106765
-0.0926697
-0.0836199
-0.0695475
-0.060543
-0.0565611
-0.0525566
-0.0485747
-0.0395475
-0.0354977
-0.0264254
-0.022353
-0.0132579
-0.0140951
-0.00984166
-0.0104299
-0.00592764
0.003733
0.00857463
0.0186425
0.0189819
0.0296832
0.0358144
0.0373077
0.0440271
0.0509728
0.0630995
0.0604072
0.0628507
0.0654299
0.0682353
0.0662896
0.0696154
0.0730317
0.0764932
0.0799095
0.0783032
0.0865385
0.0894796
0.0919457
0.0887783
0.0949548
0.100498
0.0956335
0.0905656
0.0853394
0.0850226
0.0796607
0.079276
0.0738009
0.0633032
0.0727828
0.0772625
0.0817421
0.0812217
0.0906788
0.0950905
0.0994797
0.0938462
0.08819
0.0825566
0.0769683
0.0763801
0.0707692
0.070181
0.0596154
0.0490045
0.0434163
0.0428054
0.0421946
0.0415837
0.0459728
0.045362
0.0497738
0.0492081
0.0486199
0.0480317
0.0474434
0.0518778
0.0462443
0.040543
0.039819
0.0290724
0.0183032
0.0075113
0.0067647
0.00099547
0.000203619
-0.0106335
-0.0114932
-0.0173303
-0.0231674
-0.0239819
-0.019819
-0.0206787
-0.0265385
-0.0323982
-0.0332579
-0.0341176
-0.0399774
-0.0458145
-0.0416516
-0.0474887
-0.0483258
-0.0541629
-0.05
-0.0458145
-0.0465837
-0.0422851
-0.0429412
-0.0385068
-0.0390272
-0.029457
-0.0247964
-0.0150679
-0.0102941
-0.00549774
-0.000678734
-0.000882355
-0.00106335
-0.00122172
-0.00133484
-0.00644797
-0.00656109
-0.01181
-0.0223303
-0.0231222
-0.0191403
-0.0252941
-0.0315385
-0.0427828
-0.0490724
-0.0603394
-0.0666516
-0.0681448
-0.0698416
-0.07181
-0.073914
-0.0761991
-0.0685747
-0.0660407
-0.0685973
-0.0761539
-0.0786878
-0.0761086
-0.0734163
-0.0754751
-0.0772624
-0.0735747
-0.0693213
-0.064638
-0.064638
-0.0594344
-0.0541176
-0.0587557
-0.058371
-0.0529412
-0.0474887
-0.0470136
-0.0414932
-0.0409276
-0.0403846
-0.0397964
-0.0391629
-0.0334842
-0.0227828
-0.0170136
-0.0111991
-0.00531674
0.000565607
-0.00357466
-0.0127376
-0.0169005
-0.0160634
-0.0152262
-0.0193891
-0.0135747
-0.0178054
-0.0120588
-0.0113122
-0.0155656
-0.0147964
-0.0190271
-0.0182805
-0.0225339
-0.0218099
-0.0211086
-0.0204525
-0.0247964
-0.0241403
-0.0235068
-0.0179412
-0.0174208
-0.0169683
-0.0165837
-0.016267
-0.0159728
-0.0157014
-0.0104072
-0.00515837
-0.00993212
-0.00968325
-0.0144344
-0.0141855
-0.00891402
-0.0136425
-0.0133937
-0.0131448
-0.0128733
-0.0125792
-0.0122851
-0.0119683
-0.00658371
-0.00119909
-0.00079185
-0.000384611
6.78804e-05
0.00556562
0.00108598
-0.00334841
-0.00771493
-0.00705882
-0.0113801
-0.0206561
-0.0198642
-0.0190045
-0.0180995
-0.0171493
-0.00617646
-0.000180985
0.00081449
0.00183259
0.00785069
0.0188688
0.0498643
0.115814
0.176742
0.23267
0.27362
0.299502
0.310385
0.321199
0.326946
0.342647
0.383303
0.433959
0.499593
0.540204
0.575769
0.59629
0.616833
0.637376
0.632873
0.628348
0.603824
0.579299
0.524774
0.460204
0.360588
0.23595
0.141267
0.0665837
0.0268552
0.00714933
-0.00757918
-0.0173756
-0.0321946
-0.0370362
-0.0469004
-0.0567873
-0.0716968
-0.0766063
-0.0765611
-0.0815385
-0.0865385
-0.0915385
-0.0964706
-0.10138
-0.111267
-0.116154
-0.115995
-0.115882
-0.12086
-0.12086
-0.12586
-0.125837
-0.13086
-0.130837
-0.130814
-0.130747
-0.130679
-0.135633
-0.130566
-0.125498
-0.120385
-0.115294
-0.110204
-0.10009
-0.0999774
-0.0948416
-0.0946833
-0.0844796
-0.0742308
-0.0689819
-0.063733
-0.0584842
-0.0532353
-0.0529864
-0.0577376
-0.0574661
-0.0521719
-0.0618778
-0.0665837
-0.0663122
-0.0660407
-0.0657466
-0.0654977
-0.0702489
-0.075
-0.0797511
-0.0845249
-0.0943213
-0.104095
-0.108846
-0.113597
-0.118371
-0.123122
-0.127851
-0.132557
-0.137285
-0.152036
-0.151833
-0.156629
-0.156448
-0.166312
-0.171131
-0.175928
-0.180724
-0.18052
-0.185272
-0.185
-0.189729
-0.189502
-0.194253
-0.188937
-0.183484
-0.18776
-0.186765
-0.185498
-0.17405
-0.177511
-0.170928
-0.159276
-0.157602
-0.15086
-0.148937
-0.141787
-0.134366
-0.121742
-0.108982
-0.101131
-0.09319
-0.0801357
-0.0771266
-0.0741402
-0.0662443
-0.0584615
-0.0459503
-0.0337331
-0.0219458
-0.00570142
9.04575e-05
0.010543
0.0107918
0.0209728
0.0310859
0.0361312
0.0461312
0.0560859
0.0609954
0.0708597
0.0706787
0.0804977
0.0853167
0.0901131
0.0948868
0.089638
0.0894117
0.0891855
0.0939366
0.0886877
0.0934163
0.103077
0.102715
0.10233
0.0969231
0.101493
0.0960181
0.0904978
0.0849774
0.084457
0.0839141
0.0783258
0.0727602
0.0622173
0.0616969
0.0611992
0.0557467
0.0553621
0.0449322
0.0395476
0.0291856
0.0238915
0.0236427
0.0233938
0.0231449
0.0229187
0.0227603
0.0226246
0.0224888
0.0223983
0.0173531
0.0172626
0.0171721
0.0170816
0.0169911
0.0219006
0.0217874
0.0216291
0.0214707
0.0263123
0.0311313
0.0258825
0.025611
0.0303395
0.0350453
0.029706
0.0243666
0.0240046
0.02362
0.0232127
0.0277603
0.0273304
0.0268779
0.0264028
0.0158824
0.0103394
0.0097738
0.00918556
0.00859732
0.00798646
0.00737561
0.0167195
0.0160407
0.0103394
0.00966065
0.0140498
0.0134163
0.00778281
0.00712669
0.0115158
0.0108597
0.00520359
0.0045701
0.003914
0.00325789
0.00253392
0.0067873
0.000972822
0.00506785
0.00393664
0.00253392
-0.0040498
-0.000746626
-0.0025792
-0.00952491
-0.0115159
-0.00855205
-0.0106109
-0.0178054
-0.025181
-0.0227376
-0.0254751
-0.0233484
-0.0313801
-0.0343892
-0.0324208
-0.0404073
-0.0383711
-0.0412217
-0.043914
-0.0513575
-0.0584842
-0.0600905
-0.0611086
-0.0616064
-0.0617647
-0.0717647
-0.0765837
-0.0812896
-0.085905
-0.0804751
-0.0649774
-0.0643892
-0.0587783
-0.0581448
-0.0525113
-0.0468552
-0.0361991
-0.035543
-0.0349321
-0.029276
-0.0236199
-0.0229864
-0.0223982
-0.0218326
-0.0212444
-0.0256561
-0.0300905
-0.0195023
-0.0239367
-0.0283711
-0.0328733
-0.0323982
-0.0269005
-0.0213801
-0.0208597
-0.0303394
-0.034819
-0.0392987
-0.0488009
-0.0533032
-0.0528507
-0.0574208
-0.0570136
-0.056629
-0.056267
-0.050905
-0.0455656
-0.0502489
-0.0549774
-0.0547285
-0.0494796
-0.0542308
-0.0590045
-0.0587783
-0.0535521
-0.0583484
-0.0581901
-0.0580543
-0.0579186
-0.0627828
-0.0676244
-0.0674887
-0.0623303
-0.0621493
-0.061991
-0.0618326
-0.0616742
-0.0614706
-0.0612217
-0.0609502
-0.0556561
-0.0502715
-0.0498416
-0.0494118
-0.0589819
-0.0585068
-0.0579864
-0.0524661
-0.0519005
-0.0463122
-0.0406787
-0.0350453
-0.0293891
-0.023733
-0.00809956
0.00255655
0.0232353
0.053914
0.114615
0.180317
0.225995
0.261674
0.292376
0.318077
0.333756
0.349412
0.365068
0.405679
0.45629
0.511855
0.557398
0.597896
0.633394
0.638824
0.654186
0.649525
0.654796
0.640068
0.610294
0.56543
0.49552
0.390543
0.26552
0.15543
0.0853167
0.0451584
0.00493211
-0.0203394
-0.0356787
-0.0510634
-0.0614253
-0.0717421
-0.0771267
-0.0825113
-0.0879186
-0.0883258
-0.0937557
-0.0991403
-0.0945023
-0.104864
-0.105204
-0.105566
-0.10095
-0.106357
-0.111765
-0.112172
-0.112557
-0.117941
-0.123258
-0.128643
-0.124072
-0.124548
-0.130023
-0.135452
-0.13586
-0.136244
-0.136652
-0.137081
-0.132557
-0.1331
-0.12862
-0.12414
-0.119661
-0.115136
-0.110566
-0.105973
-0.101357
-0.0966968
-0.0870362
-0.0773982
-0.0727602
-0.0780769
-0.0733937
-0.0687104
-0.0640272
-0.0643439
-0.0596606
-0.0549774
-0.0553167
-0.0556561
-0.0559955
-0.0513348
-0.0566742
-0.061991
-0.0673303
-0.0726697
-0.0730091
-0.0833484
-0.0937104
-0.0990498
-0.104412
-0.114774
-0.125158
-0.130566
-0.130995
-0.136493
-0.147014
-0.152534
-0.163009
-0.163484
-0.173959
-0.179457
-0.184932
-0.185385
-0.180837
-0.186222
-0.186561
-0.191765
-0.19181
-0.191584
-0.186063
-0.190317
-0.189367
-0.188303
-0.187127
-0.18086
-0.174502
-0.163054
-0.166448
-0.159593
-0.147466
-0.135113
-0.127557
-0.114842
-0.0971041
-0.0842987
-0.0715385
-0.0637557
-0.0509955
-0.0283484
-0.020905
-0.00877829
0.00285066
0.018914
0.0244344
0.034638
0.039638
0.044457
0.0541629
0.0588009
0.058371
0.0628507
0.0772851
0.0816742
0.0860407
0.090362
0.0996832
0.0989819
0.0932579
0.0925565
0.0917873
0.101041
0.105294
0.109593
0.108869
0.108145
0.0974208
0.0916968
0.0859728
0.0952488
0.0995022
0.103778
0.103054
0.0973303
0.0966063
0.0908823
0.085181
0.0845022
0.0888461
0.09319
0.0825339
0.0819004
0.076267
0.0656109
0.0549547
0.0493439
0.0487556
0.04319
0.037647
0.0371267
0.0366516
0.0311991
0.0257014
0.0202036
0.0197285
0.024276
0.0188009
0.0183484
0.0229186
0.0225339
0.0171719
0.01181
0.0114706
0.0111086
0.0157466
0.015362
0.0149774
0.0146154
0.0192534
0.0138688
0.0184615
0.0230317
0.0325792
0.0370815
0.0415837
0.0461086
0.0506561
0.050181
0.0446833
0.0441403
0.0486199
0.0580543
0.0574661
0.05681
0.0611538
0.0604977
0.0597964
0.0491177
0.0434163
0.0427376
0.0420362
0.0363122
0.025543
0.0297511
0.0289593
0.0231674
0.0173982
0.0116742
0.0159955
0.0102715
0.00454751
-0.00115384
-0.00683258
-0.00748869
-0.0081448
-0.00877828
-0.00445701
-0.00527149
-0.0163575
-0.0227376
-0.0242986
-0.0260181
-0.0228507
-0.0247511
-0.016629
-0.0185294
-0.0154977
-0.0176697
-0.0200679
-0.0226697
-0.0254299
-0.0183258
-0.0212896
-0.0192081
-0.0221493
-0.0200452
-0.0229412
-0.0256787
-0.0282805
-0.0306787
-0.0277376
-0.0343213
-0.0352715
-0.0407014
-0.0407692
-0.0456335
-0.045362
-0.0450452
-0.0497285
-0.0543665
-0.0539366
-0.0534389
-0.0528959
-0.0573077
-0.0617195
-0.0611312
-0.0655204
-0.0699095
-0.074276
-0.0685973
-0.0678959
-0.0672172
-0.0615385
-0.050905
-0.0453167
-0.0497737
-0.0492534
-0.048733
-0.0482579
-0.042828
-0.0423982
-0.0419683
-0.0365384
-0.0311538
-0.0307918
-0.0304298
-0.0250452
-0.0247059
-0.0244344
-0.0341629
-0.0388914
-0.0386425
-0.0384615
-0.0383258
-0.04319
-0.0430543
-0.0479412
-0.0528507
-0.0627602
-0.0676697
-0.0676018
-0.0675339
-0.0724434
-0.0722851
-0.0770814
-0.0818552
-0.0916063
-0.0962896
-0.0959502
-0.0956109
-0.100271
-0.0998869
-0.0994118
-0.088914
-0.0883937
-0.0827828
-0.0771267
-0.0814479
-0.0807918
-0.0851131
-0.0793891
-0.0686199
-0.0628507
-0.0571267
-0.0563801
-0.0556335
-0.0549095
-0.0592081
-0.0585068
-0.0527602
-0.0470362
-0.0413348
-0.0356561
-0.0350226
-0.0243891
-0.0137783
0.00680998
0.0473982
0.112986
0.188529
0.249027
0.28957
0.325113
0.350656
0.361154
0.371674
0.397217
0.447783
0.503348
0.558891
0.599412
0.62991
0.650407
0.65586
0.666335
0.661787
0.667217
0.642624
0.613032
0.563416
0.488756
0.384072
0.254344
0.14457
0.0697285
0.0248417
-0.00509047
-0.0250226
-0.0299773
-0.045
-0.0500905
-0.0602488
-0.0654298
-0.0756787
-0.0809728
-0.0812896
-0.0916063
-0.0969683
-0.102376
-0.107805
-0.108213
-0.113597
-0.113982
-0.109366
-0.109706
-0.11
-0.110294
-0.110543
-0.105769
-0.100973
-0.101154
-0.101335
-0.106538
-0.101674
-0.101787
-0.101855
-0.1019
-0.0969004
-0.0819004
-0.0768778
-0.0768778
-0.0769004
-0.0669004
-0.0569004
-0.0569004
-0.0519231
-0.0469457
-0.0420136
-0.0421267
-0.0373077
-0.0375339
-0.0327828
-0.0330543
-0.0383258
-0.0435746
-0.0438688
-0.0441629
-0.0545022
-0.0598416
-0.065181
-0.065543
-0.0709276
-0.0813122
-0.0866516
-0.0919457
-0.10724
-0.117511
-0.12276
-0.128054
-0.138371
-0.14871
-0.159027
-0.164276
-0.16448
-0.164638
-0.164774
-0.16491
-0.165045
-0.170204
-0.175339
-0.175452
-0.175543
-0.175611
-0.170656
-0.170701
-0.165701
-0.160679
-0.155566
-0.155271
-0.154706
-0.148801
-0.157624
-0.156244
-0.149706
-0.138077
-0.131403
-0.134661
-0.132805
-0.130724
-0.123416
-0.11586
-0.1081
-0.0952036
-0.0822172
-0.0792082
-0.0711539
-0.0581222
-0.0500905
-0.0471719
-0.0393891
-0.0268326
-0.0146154
-0.00785068
0.00332579
0.0139819
0.0242986
0.0294344
0.0294344
0.0343665
0.0442986
0.0541403
0.0689819
0.0737783
0.0885068
0.0931901
0.0928054
0.0924208
0.0969683
0.101493
0.100973
0.100385
0.0948416
0.094276
0.0986878
0.0980995
0.0925113
0.0869231
0.0763348
0.0707692
0.0652489
0.0647738
0.0642986
0.0688009
0.0582805
0.0578054
0.0473303
0.0418778
0.0364706
0.0361086
0.0308145
0.0255204
0.0252262
0.0199321
0.0196833
0.0195023
0.0193439
0.0192534
0.0242081
0.0291855
0.0341403
0.039095
0.0440724
0.049095
0.0441403
0.0391629
0.0441629
0.0391403
0.0391403
0.0341176
0.034095
0.0390498
0.0389819
0.038914
0.0288235
0.0286878
0.0285294
0.0283032
0.0280543
0.0327602
0.0374434
0.0370814
0.0367194
0.0313122
0.025905
0.0204977
0.0150905
0.0146833
0.014276
0.0138688
0.00841628
0.0079638
0.00748869
0.00701357
0.00653846
0.0061086
0.00565611
0.010181
0.00972851
0.00932127
0.0139367
0.0135068
0.0130769
0.00760181
0.00712669
0.0116516
0.0111538
0.00570136
0.00520362
0.00466064
0.00895928
0.00807693
0.00190046
0.000475116
-0.00110859
-0.00282805
-0.00461538
-0.00644796
-0.00325792
-0.005181
-0.00726244
-0.00961539
-0.0122398
-0.0201131
-0.0231674
-0.021267
-0.0244118
-0.0324887
-0.0355656
-0.0435294
-0.0513575
-0.0489819
-0.056267
-0.0580769
-0.0492308
-0.0497511
-0.0397738
-0.0395023
-0.034095
-0.033552
-0.0278959
-0.0171946
-0.026448
-0.0257014
-0.0199095
-0.0140724
-0.0132127
-0.0123529
-0.0114932
-0.0156561
-0.019819
-0.0239819
-0.0231674
-0.0173303
-0.016448
-0.0206109
-0.0197737
-0.0239819
-0.0332353
-0.0374887
-0.0367421
-0.0310407
-0.0303846
-0.0297285
-0.0291176
-0.0335747
-0.0380317
-0.0474887
-0.0519231
-0.0513122
-0.0457014
-0.0400679
-0.0444344
-0.0487783
-0.0531222
-0.0525113
-0.0519457
-0.0463801
-0.050905
-0.0554299
-0.0599774
-0.0595475
-0.0541176
-0.0587104
-0.0633032
-0.0579412
-0.0575792
-0.0572172
-0.0618326
-0.0563801
-0.055905
-0.0554072
-0.0649095
-0.0643892
-0.0688688
-0.0683711
-0.0678733
-0.0673756
-0.0668552
-0.0663349
-0.0607919
-0.0652715
-0.0597285
-0.0591629
-0.0585973
-0.0629864
-0.057353
-0.0466968
-0.0459955
-0.0502489
-0.054457
-0.0435973
-0.0376923
-0.0367647
-0.0358371
-0.0299321
-0.0140272
-0.0181448
-0.0122625
-0.00135748
0.0345475
0.0804751
0.151403
0.212308
0.25819
0.299027
0.314864
0.330679
0.336471
0.367262
0.403054
0.468846
0.539615
0.605339
0.651018
0.671674
0.692308
0.687873
0.693371
0.668824
0.644185
0.60948
0.544751
0.454955
0.315113
0.190226
0.0852715
0.0202941
-0.00968327
-0.0346833
-0.0547059
-0.0647285
-0.0747059
-0.0797738
-0.0898869
-0.095
-0.100091
-0.105181
-0.110272
-0.115362
-0.120498
-0.125656
-0.12086
-0.126086
-0.13129
-0.131493
-0.131697
-0.131878
-0.127081
-0.13233
-0.132579
-0.127783
-0.122964
-0.123122
-0.118258
-0.103371
-0.103507
-0.103643
-0.108801
-0.113959
-0.109118
-0.109253
-0.104367
-0.104502
-0.0996606
-0.0948417
-0.0900226
-0.0852036
-0.0704073
-0.0706335
-0.0708824
-0.0661312
-0.0613801
-0.0565837
-0.0567873
-0.056991
-0.057172
-0.0573529
-0.0625339
-0.0777376
-0.0778959
-0.0780543
-0.0782353
-0.0834615
-0.0887104
-0.0890045
-0.0943213
-0.099638
-0.104977
-0.105317
-0.110679
-0.111041
-0.116403
-0.121697
-0.121968
-0.132262
-0.137534
-0.142783
-0.147964
-0.158167
-0.168371
-0.178575
-0.188733
-0.193846
-0.198959
-0.19405
-0.18914
-0.184163
-0.189231
-0.194276
-0.194253
-0.194072
-0.193665
-0.192919
-0.186855
-0.175566
-0.174118
-0.167602
-0.160995
-0.154321
-0.152489
-0.15052
-0.143258
-0.130679
-0.122805
-0.114729
-0.101561
-0.0832806
-0.0700453
-0.05681
-0.0386878
-0.0257014
-0.0128733
-0.000362024
0.0117194
0.0331674
0.0490497
0.0644344
0.0645022
0.0744344
0.0792307
0.083914
0.0835294
0.0930543
0.102534
0.106946
0.106335
0.105679
0.105
0.104299
0.108597
0.107896
0.112195
0.116516
0.115792
0.115068
0.109366
0.103688
0.103032
0.102376
0.0967194
0.0860859
0.0855203
0.0799773
0.0744344
0.0689366
0.0685294
0.0631221
0.0577149
0.052285
0.0518552
0.0514706
0.0511086
0.0507692
0.0504525
0.0501584
0.0498642
0.0495701
0.0593213
0.0591403
0.0589593
0.0537557
0.0535294
0.0483258
0.0431222
0.0379412
0.0377602
0.0376018
0.0374208
0.0371946
0.0319005
0.031629
0.0363575
0.0360407
0.0406561
0.0452263
0.0497738
0.049276
0.0537557
0.0532353
0.0577149
0.062172
0.0566516
0.0461312
0.0406109
0.0451131
0.0345928
0.034095
0.0286199
0.0331674
0.0276923
0.0221946
0.0216742
0.0161539
0.0156335
0.0101131
0.014638
0.0142082
0.0187783
0.0183258
0.0128733
0.0124434
0.00701357
0.00158371
-0.00884616
-0.0142308
-0.00961539
-0.01
-0.015362
-0.0257014
-0.0310181
-0.0264027
-0.0268552
-0.0273982
-0.0280317
-0.0288688
-0.0300679
-0.0365158
-0.03319
-0.03
-0.0319683
-0.0289593
-0.0309955
-0.0280317
-0.0251584
-0.0274661
-0.0299095
-0.0275792
-0.0253394
-0.0282805
-0.0262217
-0.0241855
-0.0221493
-0.0150679
-0.0129412
-0.0105882
-0.0130543
-0.0102036
-0.0119457
-0.0131222
-0.0186199
-0.0235973
-0.0282127
-0.0275792
-0.02181
-0.0259955
-0.0301584
-0.034276
-0.0383937
-0.0324661
-0.0365385
-0.0406109
-0.0497059
-0.0488235
-0.0479412
-0.0521041
-0.0563122
-0.0555204
-0.0547738
-0.0540724
-0.0584163
-0.0627828
-0.067172
-0.0665611
-0.0709729
-0.0704072
-0.0648643
-0.0593213
-0.0637783
-0.0631674
-0.0625339
-0.0569005
-0.046267
-0.0456109
-0.04
-0.0444118
-0.0438462
-0.0482579
-0.0426471
-0.0370362
-0.036448
-0.0408824
-0.0403167
-0.0297285
-0.0191629
-0.013552
-0.00791855
-0.00226244
-0.00162896
-0.00599548
-0.005362
-0.00477376
-0.00918552
-0.0136425
-0.0181448
-0.0226471
-0.0271493
-0.0366968
-0.046267
-0.0558371
-0.060362
-0.0649095
-0.069457
-0.0790045
-0.0835294
-0.0880543
-0.0926018
-0.0971041
-0.0915611
-0.0909276
-0.0952489
-0.0995249
-0.0987557
-0.0979412
-0.0971267
-0.10129
-0.0904072
-0.0894796
-0.0885294
-0.0876018
-0.0866968
-0.0708145
-0.0548643
-0.028914
0.00205883
0.0530543
0.139027
0.205
0.270905
0.311855
0.357783
0.378688
0.39957
0.410407
0.441222
0.492014
0.542738
0.608416
0.644095
0.684729
0.695271
0.705814
0.711335
0.701833
0.702353
0.662896
0.628439
0.558959
0.469457
0.344909
0.195339
0.0857466
0.00608597
-0.0436199
-0.0683258
-0.078009
-0.0827376
-0.0975113
-0.102308
-0.112127
-0.111923
-0.116742
-0.121584
-0.116471
-0.121357
-0.116267
-0.111267
-0.11129
-0.106335
-0.101357
-0.0964027
-0.091448
-0.0865158
-0.0866516
-0.0817873
-0.0769683
-0.0721267
-0.0722851
-0.0724208
-0.0776018
-0.0827828
-0.0829412
-0.0880543
-0.0930995
-0.0881448
-0.0881448
-0.0881674
-0.0931674
-0.0981448
-0.0980769
-0.0929412
-0.0928054
-0.0926923
-0.0925566
-0.0873756
-0.0921267
-0.0918326
-0.0914932
-0.0861312
-0.0807466
-0.0803846
-0.0650226
-0.0596833
-0.0543439
-0.0540271
-0.0587557
-0.0535068
-0.0532805
-0.0480995
-0.0530091
-0.0579864
-0.0579638
-0.0629412
-0.0629638
-0.0730543
-0.0731901
-0.0733484
-0.0785294
-0.088733
-0.103891
-0.114027
-0.129186
-0.139367
-0.154548
-0.159729
-0.17491
-0.190091
-0.195249
-0.200362
-0.200453
-0.205543
-0.205634
-0.215656
-0.215611
-0.220475
-0.225204
-0.219683
-0.218778
-0.207557
-0.211063
-0.199389
-0.192511
-0.18052
-0.168462
-0.15638
-0.144163
-0.126697
-0.114027
-0.106086
-0.0879638
-0.0646154
-0.0562444
-0.0428507
-0.0294796
-0.0211764
-0.0178733
-0.00972845
-0.00174202
0.0109503
0.0232353
0.0299548
0.0309729
0.0414706
0.0466516
0.046629
0.0465159
0.0513575
0.0561991
0.0559955
0.0557693
0.0554978
0.0552263
0.0549774
0.0546833
0.0543892
0.0590725
0.0738236
0.07362
0.0783937
0.0731675
0.0779638
0.0727829
0.0726018
0.0824435
0.0823077
0.0871946
0.0820815
0.0869457
0.0867874
0.091629
0.091448
0.0862444
0.0810407
0.0757919
0.0755204
0.0702941
0.0700453
0.064819
0.0545701
0.0492987
0.0389593
0.0386652
0.0383711
0.0330996
0.0328507
0.0276245
0.022353
0.0170588
0.0167873
0.0115611
0.0113575
0.0111539
0.0160181
0.0109276
0.0108824
0.0158371
0.0157919
0.0158145
0.0158145
0.0258371
0.0308597
0.0258597
0.0208597
0.0258145
0.0308371
0.0358598
0.035905
0.0359955
0.036086
0.0311539
0.0261539
0.0261312
0.0260408
0.0259276
0.025724
0.0254978
0.0202036
0.024819
0.0143891
0.008914
0.00843888
0.00794113
0.00744341
0.00690042
0.0113348
0.0107692
0.00518097
0.00459274
-0.00101811
0.00341627
0.00282802
0.00228505
-0.00325794
0.00124434
0.00579185
0.00538462
-2.26125e-05
0.0046154
0.00925341
0.00384617
-0.00665156
-0.00228506
0.00178734
0.0106335
0.0142987
0.0127828
0.00613122
0.004457
-0.00223983
-0.00393666
-0.00574662
-0.00271495
4.52399e-05
-0.0123982
-0.0200453
-0.0279186
-0.0308824
-0.0389367
-0.0469457
-0.0499774
-0.0529412
-0.0558145
-0.0685747
-0.0661086
-0.0633258
-0.0649774
-0.0759502
-0.0813122
-0.0763122
-0.071086
-0.070724
-0.0702715
-0.0647964
-0.064276
-0.0686652
-0.0680091
-0.0622851
-0.0515611
-0.0458145
-0.0450453
-0.0442534
-0.0434616
-0.0426923
-0.0369457
-0.0361991
-0.0404299
-0.0346606
-0.0388914
-0.0381448
-0.0374435
-0.0217647
-0.0261312
-0.0254978
-0.0298643
-0.0342534
-0.0336425
-0.0280769
-0.0225566
-0.0270588
-0.0315611
-0.0310633
-0.0305882
-0.0301131
-0.0346606
-0.0392534
-0.0388461
-0.0434163
-0.0529864
-0.0475565
-0.0471267
-0.0516968
-0.0512669
-0.050905
-0.0455882
-0.0602941
-0.0699774
-0.074638
-0.0842986
-0.0889593
-0.0936425
-0.093371
-0.0981222
-0.0978733
-0.102624
-0.097353
-0.0970588
-0.0967647
-0.0915158
-0.0862217
-0.0809729
-0.080724
-0.0804525
-0.080181
-0.0798869
-0.0745475
-0.0791176
-0.0786425
-0.0731448
-0.0675792
-0.0670136
-0.0664027
-0.0657466
-0.0600905
-0.0594118
-0.0587104
-0.0579638
-0.0472172
-0.0414706
-0.0306787
-0.0148642
0.0209276
0.0716742
0.142466
0.203258
0.254072
0.29991
0.330724
0.341493
0.35224
0.362941
0.39862
0.439299
0.499955
0.555588
0.606154
0.656652
0.677081
0.702466
0.697805
0.7031
0.688371
0.668575
0.643733
0.593824
0.523891
0.398914
0.253891
0.133801
0.0536652
0.00850681
-0.0266742
-0.0418552
-0.0520588
-0.0622624
-0.0725113
-0.0828281
-0.0931674
-0.0985068
-0.0988235
-0.104163
-0.104502
-0.104864
-0.105226
-0.105588
-0.110928
-0.116267
-0.121629
-0.121968
-0.122353
-0.122715
-0.1231
-0.123416
-0.123733
-0.124027
-0.124321
-0.124661
-0.12
-0.115317
-0.115611
-0.115928
-0.12129
-0.116674
-0.117059
-0.107398
-0.10276
-0.103122
-0.103484
-0.103846
-0.104276
-0.104706
-0.0951131
-0.0905204
-0.0809276
-0.0763122
-0.066629
-0.066991
-0.0673982
-0.0678507
-0.0683484
-0.0638688
-0.0593892
-0.0599322
-0.0604978
-0.0610634
-0.066629
-0.0721946
-0.0727828
-0.0683711
-0.0739593
-0.0745249
-0.0801131
-0.085724
-0.0863349
-0.0919231
-0.102511
-0.118077
-0.128643
-0.139231
-0.154819
-0.160385
-0.16595
-0.176516
-0.177081
-0.187624
-0.188167
-0.19371
-0.194231
-0.199706
-0.205158
-0.205543
-0.205882
-0.206063
-0.211041
-0.205701
-0.20009
-0.199231
-0.193167
-0.186946
-0.180656
-0.174299
-0.167873
-0.166312
-0.154525
-0.142466
-0.135181
-0.12267
-0.109932
-0.0971041
-0.0891629
-0.081267
-0.0733484
-0.0554751
-0.0426923
-0.0350226
-0.0226018
-0.00547514
0.00608594
0.0119683
0.0173077
0.0272624
0.0369909
0.0365384
0.0410181
0.0454298
0.0547963
0.0641402
0.0684389
0.0727149
0.0769909
0.0862443
0.0854525
0.089638
0.0888461
0.0880769
0.0873076
0.0865158
0.0856787
0.0848189
0.0889818
0.0831674
0.0873755
0.0866289
0.0809049
0.075181
0.069457
0.0737556
0.0730317
0.0723077
0.0716063
0.0709276
0.0752489
0.0795701
0.0789367
0.0683032
0.0677149
0.0621041
0.0614706
0.0558371
0.0602036
0.0645928
0.0590045
0.0534615
0.0529412
0.0474661
0.0370136
0.0316063
0.0311765
0.035724
0.0352715
0.0347964
0.0293665
0.0339819
0.0335973
0.03319
0.0278054
0.0324434
0.0370362
0.0366516
0.0413122
0.0409728
0.0506335
0.0552941
0.0549774
0.0497059
0.0494344
0.0490724
0.0436652
0.0482353
0.0527828
0.0522624
0.0517195
0.0511765
0.0505656
0.0499548
0.049276
0.0486199
0.0429412
0.0422625
0.0415159
0.035724
0.0399322
0.0391403
0.0433258
0.0424661
0.0416064
0.0357466
0.0348643
0.0290046
0.0231901
0.0174209
0.0116516
0.015905
0.00513577
0.00441179
0.00871043
0.00796383
0.0071946
0.00635749
0.00529414
0.00891404
0.0072172
0.000271501
-0.00178733
-0.00395928
-0.00113122
-0.00830317
-0.0104977
-0.00782806
-0.0104525
-0.00830318
-0.0063801
-0.00454752
-0.00785069
-0.00615386
-0.00945703
-0.0177149
-0.0208597
-0.0288914
-0.0366968
-0.0342308
-0.0313349
-0.0279412
-0.033914
-0.0393892
-0.0395023
-0.0393665
-0.0340724
-0.0336878
-0.0382353
-0.0427376
-0.0472398
-0.0566969
-0.0611086
-0.0605204
-0.0599321
-0.0643213
-0.0586878
-0.0530317
-0.0523982
-0.0567195
-0.0560181
-0.0602941
-0.0645475
-0.0638009
-0.0630769
-0.052353
-0.0466516
-0.0459276
-0.0452263
-0.0495249
-0.0538235
-0.0531674
-0.0525566
-0.051991
-0.0514932
-0.0510634
-0.0456787
-0.0403168
-0.0399548
-0.0346154
-0.0393213
-0.0440724
-0.0438235
-0.0386199
-0.0433937
-0.0531674
-0.0478959
-0.0526018
-0.0573077
-0.0620136
-0.0617195
-0.0663801
-0.0760181
-0.0856561
-0.0902941
-0.0799095
-0.0845249
-0.0891403
-0.0936878
-0.0932353
-0.0927828
-0.0973077
-0.0917873
-0.0912444
-0.0856561
-0.0900453
-0.0893892
-0.088733
-0.0780317
-0.0722851
-0.0715611
-0.0707692
-0.0649774
-0.0591403
-0.0532806
-0.0473982
-0.0415385
-0.0406561
-0.0447738
-0.0488914
-0.0430091
-0.0421493
-0.036267
-0.0354072
-0.0295475
-0.0136878
0.00214931
0.028009
0.0888914
0.164751
0.240633
0.301493
0.342353
0.378167
0.383982
0.394819
0.415588
0.456312
0.527036
0.58276
0.643462
0.674163
0.704842
0.710475
0.716086
0.716629
0.702127
0.682602
0.638054
0.583439
0.498824
0.389186
0.254525
0.144774
0.0649095
0.00999999
-0.0249548
-0.0449095
-0.0599095
-0.0649548
-0.0700453
-0.075181
-0.0854073
-0.0906787
-0.0959502
-0.106222
-0.106516
-0.11181
-0.107081
-0.11733
-0.122579
-0.122851
-0.123145
-0.123439
-0.128733
-0.129027
-0.129276
-0.134502
-0.134706
-0.129887
-0.125068
-0.120272
-0.115453
-0.105633
-0.0958145
-0.0909729
-0.0861086
-0.0811991
-0.076267
-0.0713349
-0.0613801
-0.0564706
-0.0516063
-0.0417421
-0.0468552
-0.051991
-0.0571493
-0.0572625
-0.0573756
-0.0525113
-0.0526923
-0.0529186
-0.0531674
-0.0534842
-0.0588462
-0.0642308
-0.0645701
-0.0699321
-0.0803168
-0.075724
-0.0761312
-0.0815158
-0.0919005
-0.0972624
-0.107647
-0.113009
-0.123371
-0.128733
-0.139118
-0.149434
-0.149683
-0.15991
-0.160136
-0.165339
-0.170543
-0.175747
-0.17595
-0.181154
-0.186335
-0.191516
-0.196719
-0.196923
-0.197104
-0.202262
-0.202398
-0.197534
-0.192579
-0.197579
-0.202466
-0.197104
-0.196403
-0.190362
-0.194027
-0.182534
-0.180905
-0.179253
-0.167579
-0.155814
-0.148846
-0.146561
-0.134027
-0.126244
-0.113371
-0.100407
-0.0874208
-0.0694117
-0.06138
-0.0533936
-0.0505203
-0.0378959
-0.0305429
-0.018552
-0.00703615
0.00889146
0.0293439
0.0394344
0.0492761
0.0539593
0.0635747
0.0681222
0.0726471
0.077172
0.0866743
0.0911313
0.0905883
0.0900453
0.0894571
0.0938462
0.0932127
0.0876019
0.0819684
0.0863349
0.0857014
0.0800679
0.0794344
0.0787331
0.0780317
0.0773078
0.0715838
0.0658372
0.0601132
0.0594118
0.0537331
0.053077
0.0524661
0.0469005
0.0413801
0.0358824
0.0354073
0.0349548
0.034525
0.0391177
0.0437331
0.0433711
0.0430544
0.0426924
0.0372851
0.0318553
0.026448
0.0260634
0.0307014
0.040362
0.0400227
0.0447286
0.0444571
0.0441856
0.0439141
0.0436652
0.0434163
0.0431448
0.0429186
0.0376924
0.0324661
0.0322172
0.0369458
0.0366516
0.0313349
0.0310182
0.0356788
0.0302941
0.0198869
0.0144796
0.0140045
0.013552
0.0180995
0.0226018
0.0271041
0.0315837
0.0260633
0.0205204
0.0199548
0.0243665
0.018733
0.0180996
0.0123982
0.0166742
0.0109502
0.0152715
0.0145701
0.0188235
0.0180996
0.0173756
0.0116742
0.015905
0.0201358
0.0192987
0.0234163
0.0224435
0.016267
0.0147738
0.013009
0.016086
0.0240045
0.0318778
0.0297059
0.0275566
0.0204072
0.0131448
0.0156787
0.0229412
0.0250226
0.0169005
0.00871041
0.000452491
-0.00773756
-0.0108824
-0.0139593
-0.0169231
-0.0247738
-0.0273756
-0.0296606
-0.0363801
-0.0375113
-0.0380543
-0.0432127
-0.0481222
-0.0478733
-0.0425339
-0.0421041
-0.041629
-0.0461312
-0.0506109
-0.0500226
-0.0494118
-0.0488235
-0.0381901
-0.0375339
-0.0318778
-0.0361991
-0.0305204
-0.0298416
-0.0292081
-0.028552
-0.0278959
-0.0272398
-0.0265837
-0.0309502
-0.0303394
-0.0297738
-0.0292082
-0.0286652
-0.0231448
-0.0225792
-0.0220136
-0.0214706
-0.0159502
-0.0104299
-0.00995476
-0.0145023
-0.019095
-0.0186878
-0.0232353
-0.0227376
-0.0322398
-0.0367195
-0.0411765
-0.0456335
-0.0501131
-0.054638
-0.0592082
-0.0637783
-0.0633711
-0.0680317
-0.0727376
-0.0724434
-0.0771267
-0.0768326
-0.0865837
-0.0863349
-0.0860634
-0.0908597
-0.0907014
-0.085543
-0.090362
-0.0951584
-0.0899321
-0.0947059
-0.0894344
-0.0941177
-0.0938009
-0.0934842
-0.0931222
-0.0827149
-0.0823303
-0.0719231
-0.0664706
-0.0609729
-0.0654525
-0.0649095
-0.0593213
-0.0586426
-0.0579186
-0.0571493
-0.0463801
-0.0355656
-0.0197059
-0.00882355
0.0221041
0.0780543
0.153982
0.214909
0.260837
0.301742
0.322692
0.343665
0.349638
0.365566
0.396493
0.447353
0.50819
0.55905
0.609887
0.635633
0.66129
0.661833
0.672285
0.667692
0.653032
0.633326
0.588552
0.523756
0.403891
0.278959
0.159027
0.0790498
0.0240271
-0.011086
-0.0312217
-0.0463801
-0.0565611
-0.0667647
-0.0770362
-0.0873303
-0.0926471
-0.0929638
-0.103326
-0.10862
-0.108937
-0.114253
-0.119615
-0.124932
-0.120249
-0.125566
-0.130882
-0.131222
-0.131538
-0.131878
-0.13224
-0.127602
-0.127941
-0.123235
-0.118529
-0.123756
-0.118982
-0.114186
-0.109389
-0.109548
-0.104683
-0.104796
-0.0999095
-0.100045
-0.105158
-0.105272
-0.105362
-0.10552
-0.110701
-0.110905
-0.106109
-0.0963122
-0.0865159
-0.0867195
-0.0819457
-0.0721493
-0.0673756
-0.0676018
-0.0678054
-0.0630317
-0.0582579
-0.0585294
-0.0588236
-0.0491403
-0.0495023
-0.0548416
-0.0601584
-0.0654751
-0.0658371
-0.0611765
-0.0665159
-0.0718326
-0.0771946
-0.0825566
-0.0929412
-0.0983258
-0.0986652
-0.104027
-0.119344
-0.124638
-0.13491
-0.135181
-0.145475
-0.160769
-0.171086
-0.181403
-0.186765
-0.192104
-0.197398
-0.202602
-0.207783
-0.212851
-0.212647
-0.212127
-0.211335
-0.200339
-0.19914
-0.192805
-0.191357
-0.179864
-0.183281
-0.171538
-0.15957
-0.15233
-0.139842
-0.122104
-0.104208
-0.0811991
-0.0631674
-0.0500905
-0.0319909
-0.0189366
-0.00595022
0.00180996
0.019276
0.0311765
0.0324887
0.0432579
0.0486652
0.0638235
0.0688009
0.0786878
0.0835294
0.0883484
0.0981448
0.0978733
0.102534
0.102172
0.11181
0.106403
0.11095
0.115498
0.12
0.11448
0.113891
0.113303
0.11267
0.117014
0.111312
0.115588
0.114909
0.114253
0.10862
0.0979864
0.0973982
0.0868326
0.0862444
0.0806788
0.0801584
0.0746607
0.0741855
0.0687331
0.0633032
0.0629186
0.0575339
0.0521267
0.0467195
0.0513122
0.0509276
0.0505204
0.0451358
0.0397964
0.0345023
0.0292987
0.0291177
0.0239593
0.0238462
0.0187783
0.0137104
0.0136199
0.0135068
0.0134163
0.0183484
0.0232579
0.0282127
0.0231448
0.0230769
0.0179638
0.0228281
0.0227149
0.0176697
0.0176244
0.0225792
0.0225339
0.0274887
0.0274208
0.0273529
0.0323077
0.0322398
0.0321267
0.031991
0.0267647
0.0315611
0.0363122
0.0410181
0.0406561
0.0502715
0.0548416
0.0543892
0.048914
0.0534163
0.0579186
0.0523982
0.0568778
0.0563122
0.055724
0.050181
0.0396154
0.0340498
0.0284842
0.0229638
0.0174434
0.0169683
0.0164706
0.0109502
0.00540724
-0.00515837
-0.00574661
-0.0114706
-0.0124434
-0.0237557
-0.0302941
-0.0370136
-0.0338462
-0.035724
-0.0326018
-0.029457
-0.0314253
-0.0335068
-0.0358145
-0.0332579
-0.0358824
-0.0435747
-0.0512896
-0.0590498
-0.0567647
-0.0545249
-0.0571946
-0.0597738
-0.0621719
-0.0593439
-0.0612217
-0.0576244
-0.058552
-0.048914
-0.0438235
-0.0384163
-0.0377828
-0.0270136
-0.0211991
-0.0302941
-0.0343439
-0.033371
-0.0323982
-0.0364706
-0.0355204
-0.0345928
-0.0336425
-0.0377149
-0.0367873
-0.0408824
-0.04
-0.0441403
-0.0483032
-0.0474661
-0.0466742
-0.045905
-0.0451584
-0.0493891
-0.0486425
-0.0528959
-0.057172
-0.0564706
-0.0658371
-0.0702036
-0.0695475
-0.0688914
-0.0732579
-0.0726697
-0.0671041
-0.0565611
-0.0560407
-0.0605656
-0.0550905
-0.0546154
-0.0491403
-0.0536878
-0.0482353
-0.0478054
-0.0523529
-0.0618778
-0.066448
-0.0710181
-0.0755656
-0.0800905
-0.0846154
-0.0891629
-0.0936878
-0.0931674
-0.0976471
-0.0971267
-0.0866063
-0.091086
-0.0905656
-0.095
-0.0893891
-0.0937783
-0.0881222
-0.0874434
-0.0867195
-0.0859502
-0.0901131
-0.0892082
-0.0882806
-0.0773077
-0.0712896
-0.0702489
-0.0641855
-0.0580996
-0.056991
-0.0558824
-0.0597964
-0.0587104
-0.0425792
-0.031448
-0.0153167
0.00581447
0.0269231
0.0780091
0.149095
0.235158
0.301199
0.352217
0.38819
0.40414
0.420045
0.425928
0.451787
0.487624
0.543439
0.589231
0.635
0.660724
0.67138
0.686991
0.687534
0.698054
0.683552
0.664027
0.634502
0.579977
0.520452
0.420905
0.321357
0.191787
0.0921946
0.0226018
-0.0269683
-0.0515611
-0.0661312
-0.0807013
-0.0903394
-0.095
-0.0997059
-0.099457
-0.104253
-0.109027
-0.113778
-0.113529
-0.113303
-0.1131
-0.107964
-0.107828
-0.107715
-0.107624
-0.102534
-0.102466
-0.102421
-0.102398
-0.0973982
-0.0974208
-0.0974887
-0.0976244
-0.0877602
-0.0929185
-0.0980543
-0.103213
-0.0983936
-0.0935746
-0.093733
-0.0888461
-0.0838914
-0.073914
-0.0689819
-0.0640271
-0.0590497
-0.0590271
-0.0590045
-0.0589366
-0.0588687
-0.0638235
-0.0588009
-0.0588235
-0.0588688
-0.063914
-0.0589593
-0.0539819
-0.0590498
-0.0641629
-0.064276
-0.0643891
-0.064457
-0.069457
-0.0644796
-0.0695023
-0.0745928
-0.0747059
-0.0748416
-0.0749321
-0.0850226
-0.100158
-0.110317
-0.12052
-0.130701
-0.135882
-0.146018
-0.151131
-0.161222
-0.17629
-0.186335
-0.19138
-0.19138
-0.196403
-0.206425
-0.20638
-0.211267
-0.216063
-0.220792
-0.215407
-0.219796
-0.213846
-0.217511
-0.215882
-0.209027
-0.197014
-0.18491
-0.172738
-0.160543
-0.153235
-0.145792
-0.1381
-0.125204
-0.112104
-0.0988914
-0.0906335
-0.0773304
-0.0640272
-0.0506561
-0.0423756
-0.0392082
-0.0361991
-0.0284389
-0.0209503
-0.0139367
-0.00739823
0.00852937
0.0140045
0.0141629
0.019095
0.0238914
0.0285973
0.0332353
0.032828
0.0424208
0.0519909
0.0565384
0.0510859
0.0456335
0.0451583
0.0447285
0.0492986
0.0588914
0.0585068
0.05819
0.0578733
0.0575792
0.0623077
0.0670588
0.0718099
0.071561
0.0763348
0.0811312
0.0909502
0.0907918
0.0857013
0.0755882
0.0804524
0.0852941
0.0801131
0.0749547
0.0698189
0.0646606
0.0595022
0.0643891
0.064276
0.0591629
0.0540723
0.0489818
0.043914
0.0438235
0.0436877
0.0384841
0.0432805
0.0430769
0.037828
0.0325565
0.0223303
0.0271493
0.0319683
0.0317647
0.0265837
0.0164253
0.0112896
0.0111086
0.0109728
0.0208597
0.0307692
0.0307013
0.0256108
0.025543
0.0354298
0.0402941
0.0451357
0.0399774
0.0397964
0.0396154
0.0394118
0.0341629
0.0338914
0.0335747
0.0332353
0.0228733
0.0225339
0.0221493
0.0216968
0.0162217
0.0107014
0.0151584
0.00957014
0.00895929
0.00332581
0.00271494
0.00205883
0.00138009
0.00072398
-0.00488687
-0.00545248
-0.00601809
-0.00653845
-0.0020362
-0.00253394
-0.00307693
-0.00368779
-0.00445701
-0.00549774
-0.00183258
-0.00339366
-0.0100905
-0.00690046
-0.00375566
-0.000678733
-0.00264707
-0.00470589
-0.00194572
0.000565592
0.00280542
-4.52511e-05
-0.00307693
-0.00622173
-0.00447965
-0.00278282
-0.00601812
-0.00918554
-0.0172172
-0.0200679
-0.017534
-0.0245249
-0.0308824
-0.0316516
-0.041991
-0.0420815
-0.0470136
-0.0467873
-0.0614706
-0.0611086
-0.0657014
-0.0652715
-0.0697738
-0.0692308
-0.0686425
-0.0680317
-0.0723529
-0.076629
-0.0808371
-0.0850453
-0.0842534
-0.0834842
-0.0826923
-0.0719005
-0.0711539
-0.0754299
-0.0647285
-0.0590724
-0.0584389
-0.0528054
-0.0471493
-0.0465385
-0.0459502
-0.0503846
-0.0448869
-0.0344118
-0.0239593
-0.018552
-0.0181448
-0.00776019
-0.00742083
-0.0121267
-0.0169005
-0.0216742
-0.021448
-0.0262217
-0.0310181
-0.0358824
-0.0307692
-0.0356561
-0.045543
-0.055362
-0.0601584
-0.0549774
-0.059819
-0.0596154
-0.0693439
-0.0740498
-0.0837104
-0.0883937
-0.0930543
-0.097715
-0.0923756
-0.0970589
-0.101697
-0.106335
-0.10595
-0.110611
-0.105249
-0.0998643
-0.0944797
-0.0890724
-0.0886652
-0.0832353
-0.0728281
-0.0723982
-0.0719457
-0.0664932
-0.0610181
-0.0604978
-0.0599321
-0.0593665
-0.0488235
-0.0482579
-0.0476923
-0.0420814
-0.0264932
-0.00088235
0.0447059
0.115294
0.18586
0.246425
0.286991
0.322534
0.338077
0.35362
0.364163
0.389683
0.435204
0.495701
0.561199
0.59672
0.642217
0.667715
0.698167
0.71362
0.704027
0.694389
0.664706
0.634955
0.560158
0.460294
0.315317
0.180226
0.0851131
0.0299095
-0.000339359
-0.0256561
-0.0459955
-0.0564253
-0.0668778
-0.0724208
-0.083009
-0.0886199
-0.0942534
-0.0999095
-0.110566
-0.116244
-0.121946
-0.122692
-0.128416
-0.134118
-0.134842
-0.130566
-0.126222
-0.126878
-0.127557
-0.123167
-0.123778
-0.119367
-0.124932
-0.120453
-0.12095
-0.121425
-0.1119
-0.107376
-0.102783
-0.0981448
-0.0934616
-0.0887783
-0.0840724
-0.0793892
-0.0747059
-0.0700226
-0.0653846
-0.0657693
-0.0661539
-0.0615385
-0.0619231
-0.0622625
-0.0626245
-0.0680091
-0.0634389
-0.0588914
-0.0592987
-0.0697285
-0.0751358
-0.0755883
-0.0810634
-0.0815837
-0.0871267
-0.087715
-0.0883258
-0.0889141
-0.0995475
-0.100204
-0.105905
-0.106584
-0.112262
-0.117919
-0.118552
-0.129208
-0.134819
-0.135407
-0.135995
-0.141561
-0.152127
-0.152692
-0.158258
-0.168778
-0.179299
-0.184796
-0.180317
-0.185792
-0.186267
-0.191742
-0.187195
-0.192602
-0.187896
-0.187986
-0.18276
-0.17724
-0.176425
-0.17543
-0.169276
-0.163054
-0.156787
-0.150475
-0.14905
-0.137421
-0.13052
-0.128326
-0.120928
-0.118326
-0.105611
-0.0977602
-0.0798416
-0.0669683
-0.0541403
-0.041448
-0.028914
-0.00671947
0.0149774
0.0360181
0.0414253
0.0514027
0.0611086
0.0706561
0.0750905
0.0794344
0.0837331
0.0979638
0.107195
0.106403
0.110611
0.114796
0.113959
0.113077
0.112195
0.11629
0.105362
0.0994344
0.103484
0.102534
0.0965837
0.0956787
0.094819
0.0889819
0.0931448
0.0873077
0.0865158
0.0807013
0.0749095
0.069095
0.0633031
0.0675565
0.0618325
0.0611312
0.0554751
0.0548416
0.0592307
0.0636199
0.0580543
0.0525113
0.0570135
0.0615158
0.0560407
0.0505882
0.045181
0.0397737
0.0393439
0.0339366
0.0335068
0.0330769
0.0276244
0.0271493
0.0216289
0.0211086
0.0205882
0.0200226
0.019457
0.0238688
0.0232805
0.0226923
0.0271267
0.0265385
0.0309502
0.0253394
0.0197285
0.0190724
0.018371
0.0276244
0.02181
0.0159955
0.020181
0.0243891
0.0235973
0.0227828
0.026991
0.0211765
0.0202941
0.0143665
0.0184163
0.0174887
0.0165611
0.0156787
0.0148416
0.0190498
0.0182353
0.0174887
0.0167647
0.0210634
0.0153846
0.0146833
0.0139593
0.01319
0.0174208
0.0166063
0.015724
0.0146833
0.0133937
0.0117873
-0.000135747
-0.00223982
-0.00454751
-0.00692308
-0.00932127
-0.0116516
-0.0140272
-0.0165158
-0.0142081
-0.0171267
-0.0101131
-0.0132127
-0.0113122
-0.0145023
-0.0126471
-0.0107919
-0.0138914
-0.0168778
-0.0197511
-0.017353
-0.0246154
-0.0313801
-0.0376018
-0.0383032
-0.038552
-0.0385294
-0.0433032
-0.0429864
-0.0375792
-0.0421946
-0.0417873
-0.0413348
-0.0358597
-0.0403846
-0.0498869
-0.0543439
-0.0487783
-0.0481674
-0.0525339
-0.0518778
-0.0512217
-0.0455656
-0.0499321
-0.0492987
-0.0486425
-0.0479864
-0.0523303
-0.0516516
-0.0509729
-0.0452715
-0.0495701
-0.048914
-0.0532805
-0.0476471
-0.051991
-0.0563575
-0.060724
-0.0601131
-0.0545475
-0.0590272
-0.058552
-0.0530996
-0.0426697
-0.0372851
-0.0369005
-0.0415385
-0.0411991
-0.035905
-0.0356335
-0.035362
-0.0350905
-0.0348643
-0.039638
-0.0443665
-0.044095
-0.0438235
-0.043552
-0.0382579
-0.0329638
-0.0226471
-0.0173077
-0.021991
-0.0216968
-0.0263801
-0.0310407
-0.0356335
-0.040181
-0.0396833
-0.0341855
-0.0336878
-0.0331901
-0.0326471
-0.0370588
-0.046448
-0.0607919
-0.0650679
-0.0642987
-0.0734842
-0.0776697
-0.07681
-0.0759276
-0.0700679
-0.0642082
-0.0483258
-0.0423982
-0.026448
-0.00542987
0.0305882
0.0966063
0.172624
0.243643
0.289615
0.335566
0.361493
0.372376
0.373235
0.394072
0.429842
0.485588
0.546312
0.582036
0.627783
0.648529
0.674253
0.674955
0.685679
0.68638
0.667014
0.647624
0.593235
0.533824
0.434367
0.314842
0.205249
0.110611
0.050905
0.00613121
-0.0136878
-0.0285068
-0.0333484
-0.0432579
-0.0481901
-0.0531222
-0.0580317
-0.0629638
-0.0729638
-0.0829864
-0.0879864
-0.0979864
-0.103009
-0.108077
-0.113122
-0.113167
-0.118235
-0.118303
-0.123348
-0.123371
-0.133416
-0.133439
-0.133462
-0.128439
-0.123439
-0.123394
-0.118371
-0.118303
-0.118281
-0.123281
-0.123258
-0.118213
-0.108145
-0.103122
-0.0980996
-0.0930317
-0.0879412
-0.0878281
-0.0877376
-0.0826697
-0.0725792
-0.0674435
-0.0673303
-0.0621946
-0.0520362
-0.0518778
-0.0567421
-0.0566516
-0.0515611
-0.0564932
-0.0664254
-0.0663122
-0.0711765
-0.0659955
-0.0658371
-0.0657014
-0.0655656
-0.0654299
-0.0802941
-0.0902036
-0.0951358
-0.100068
-0.0999548
-0.104842
-0.109706
-0.11957
-0.124412
-0.134276
-0.149186
-0.154118
-0.164005
-0.163937
-0.173869
-0.173801
-0.17371
-0.173597
-0.178484
-0.188348
-0.18819
-0.202919
-0.202534
-0.202014
-0.201199
-0.200068
-0.19862
-0.191968
-0.185091
-0.1731
-0.166109
-0.15914
-0.142081
-0.134887
-0.122466
-0.119796
-0.111968
-0.108959
-0.0958371
-0.0876245
-0.0844118
-0.0711539
-0.052896
-0.0447286
-0.0416516
-0.0288236
-0.021267
-0.00916296
0.00242076
0.0135067
0.0291629
0.0445475
0.0497058
0.0497511
0.0597737
0.0697963
0.0747511
0.0746606
0.0745475
0.074457
0.0793439
0.0792081
0.0790497
0.0788913
0.0786877
0.0884388
0.0831674
0.0878733
0.0876018
0.0873076
0.0820135
0.0767194
0.0764253
0.0710859
0.0707013
0.0652941
0.0648868
0.0544796
0.0540497
0.0486651
0.0533031
0.0529638
0.0425565
0.0371493
0.0367647
0.0414253
0.0411086
0.0358144
0.040543
0.0403167
0.0451131
0.0448868
0.0396832
0.0345475
0.0394344
0.0343212
0.0292307
0.0291855
0.0291629
0.0341176
0.034095
0.0391403
0.0391629
0.0341402
0.0341176
0.0340724
0.044095
0.0441402
0.0441855
0.0392534
0.0343212
0.0393213
0.0392534
0.0392081
0.0341629
0.0341177
0.0290498
0.028914
0.0187557
0.0135747
0.00837107
0.00807695
-0.00219455
-0.00248867
-0.0078054
-0.00816739
-0.0135294
-0.0138914
-0.00925336
0.000362013
-4.52287e-05
-0.0104525
-0.0159276
-0.0114253
-0.0119231
-0.00744345
-0.00796381
-0.0085068
-0.0140272
-0.0145023
-0.00493213
-0.000361994
-0.000791859
0.00382353
0.0084163
0.0129638
0.0123303
0.0164706
0.0103167
0.0139367
0.0123303
0.0105656
0.0087104
0.00687782
0.00504524
0.00312217
0.00110859
-0.00115385
-0.00859728
-0.011267
-0.0140498
-0.0169005
-0.0147737
-0.0126923
-0.0256787
-0.033552
-0.0313122
-0.0288914
-0.0313122
-0.0434389
-0.0451131
-0.0511991
-0.0567873
-0.0619683
-0.0619004
-0.0566742
-0.0562896
-0.0558597
-0.060362
-0.0597964
-0.0591855
-0.0635747
-0.0629412
-0.0622624
-0.0515837
-0.045905
-0.0402262
-0.0345475
-0.0288914
-0.0332127
-0.0375566
-0.0418552
-0.0311538
-0.0305204
-0.0299321
-0.0293213
-0.0286878
-0.0280543
-0.0274661
-0.0318778
-0.0362896
-0.0306787
-0.0300905
-0.0345249
-0.0339819
-0.0334163
-0.0328959
-0.0324208
-0.0369457
-0.0364706
-0.0409954
-0.0505656
-0.0501583
-0.0497511
-0.0493665
-0.0489819
-0.0586199
-0.06319
-0.0627828
-0.0673982
-0.0670814
-0.0668099
-0.0615158
-0.0712217
-0.0759276
-0.0756787
-0.0754298
-0.0652036
-0.0699774
-0.0697964
-0.0746154
-0.0694117
-0.0791855
-0.0839819
-0.0787556
-0.0785294
-0.0783032
-0.0780769
-0.077828
-0.0775339
-0.0821493
-0.0817421
-0.0813575
-0.0759502
-0.0754751
-0.0699774
-0.069457
-0.063914
-0.0633258
-0.0677376
-0.0671041
-0.0614254
-0.055724
-0.0500226
-0.0393213
-0.0185747
0.0222398
0.0780769
0.143937
0.204796
0.260701
0.296606
0.327466
0.338303
0.344095
0.364864
0.395611
0.456312
0.507014
0.567647
0.603258
0.633824
0.654321
0.669774
0.685226
0.670611
0.655928
0.621267
0.586606
0.5219
0.422104
0.297262
0.187376
0.0973982
0.0423077
0.00714931
-0.0179864
-0.0331222
-0.0432806
-0.0584616
-0.0686878
-0.0739367
-0.0842082
-0.0945023
-0.099819
-0.100091
-0.105339
-0.105588
-0.110837
-0.116041
-0.116244
-0.121448
-0.121674
-0.116833
-0.111968
-0.117127
-0.117285
-0.117466
-0.112647
-0.107828
-0.108032
-0.108258
-0.103462
-0.103665
-0.103914
-0.10414
-0.0993665
-0.0945701
-0.0947511
-0.0949548
-0.0901584
-0.0804072
-0.0706787
-0.0709502
-0.0712217
-0.0715158
-0.06681
-0.0721493
-0.0675113
-0.0628733
-0.0532353
-0.0485973
-0.0489593
-0.049276
-0.0496154
-0.0449547
-0.0453167
-0.0456561
-0.0459276
-0.0462217
-0.0515384
-0.0618552
-0.0671267
-0.0724208
-0.0777828
-0.0831448
-0.0835294
-0.0888914
-0.094276
-0.0996832
-0.11009
-0.11552
-0.120928
-0.131357
-0.141765
-0.147172
-0.147534
-0.152873
-0.16319
-0.168529
-0.178869
-0.179231
-0.179593
-0.179955
-0.175271
-0.18052
-0.190679
-0.195656
-0.195385
-0.199842
-0.204027
-0.202986
-0.191787
-0.185452
-0.174027
-0.167579
-0.161018
-0.149276
-0.147262
-0.135045
-0.127557
-0.114909
-0.0971267
-0.0792534
-0.0712896
-0.0632579
-0.0502941
-0.0474208
-0.0397059
-0.0271493
-0.0148642
-0.00300903
0.00328058
0.0190724
0.039457
0.0545702
0.0544797
0.0542761
0.0589819
0.0586426
0.068258
0.0728281
0.0723756
0.0768553
0.0813123
0.0807241
0.0801358
0.0845249
0.0889141
0.083258
0.0775792
0.0719005
0.0711991
0.0655204
0.0598417
0.0642082
0.0636199
0.0680996
0.0675792
0.0670589
0.0665385
0.0660408
0.065543
0.0650679
0.0696154
0.0641629
0.0637105
0.058258
0.0528055
0.052353
0.0519005
0.0564706
0.0510408
0.0506562
0.0502942
0.0549322
0.0545928
0.0542534
0.0538914
0.0535521
0.0482127
0.0479186
0.0476697
0.0424661
0.0372851
0.0320815
0.0369231
0.0317647
0.0266064
0.026448
0.0312896
0.0261086
0.020905
0.0157014
0.0254978
0.0302942
0.0351132
0.0299774
0.0348417
0.0397059
0.0395702
0.0394118
0.0342534
0.0390951
0.0389141
0.0386878
0.0334616
0.0281901
0.0278507
0.0324887
0.0271041
0.0316516
0.0361991
0.040724
0.0352489
0.0297738
0.0292534
0.0286878
0.0280769
0.0324661
0.03181
0.0361312
0.0354525
0.0347964
0.0241403
0.0235068
0.0179186
0.00733033
0.00676473
0.0111991
0.0106787
0.0101358
0.00957014
0.00898191
0.00337104
0.00257919
0.00149322
0.00513576
0.00357466
0.00190045
-0.00486425
-0.011629
-0.0134163
-0.0152036
-0.0170136
-0.013914
-0.00599548
-0.00834843
-0.00583712
-0.00846155
-0.0161539
-0.0188688
-0.0215611
-0.0192534
-0.0269005
-0.0244797
-0.026991
-0.0292534
-0.0312217
-0.0277376
-0.028733
-0.0291629
-0.0292308
-0.0340724
-0.0287557
-0.0333711
-0.0478959
-0.0623982
-0.0618552
-0.0562896
-0.050724
-0.0551358
-0.0545023
-0.0538462
-0.0581674
-0.0574887
-0.0568326
-0.0511765
-0.045543
-0.0449548
-0.0443665
-0.0437783
-0.0331222
-0.0324661
-0.03681
-0.0361765
-0.0405204
-0.034819
-0.0341177
-0.0334163
-0.0276923
-0.026991
-0.0312896
-0.0406109
-0.0449548
-0.0393213
-0.0437557
-0.0432353
-0.0427828
-0.0423756
-0.041991
-0.0415837
-0.0462217
-0.0508824
-0.0555656
-0.0602263
-0.0699095
-0.0795928
-0.0842987
-0.0889819
-0.0936199
-0.0982806
-0.102941
-0.107602
-0.11224
-0.111878
-0.116516
-0.106154
-0.0958145
-0.100475
-0.100091
-0.0947059
-0.0942987
-0.0888462
-0.0883484
-0.0828507
-0.0773303
-0.0767647
-0.0711765
-0.0705656
-0.0649095
-0.0642082
-0.0634615
-0.0576697
-0.0518326
-0.0460181
-0.050181
-0.0443439
-0.0385068
-0.0376245
-0.0366742
-0.025724
-0.00975115
0.0112217
0.0321719
0.0780543
0.148937
0.219819
0.265679
0.296516
0.327308
0.338077
0.353778
0.359457
0.38009
0.420701
0.47629
0.536878
0.567443
0.602986
0.618507
0.633937
0.634321
0.634683
0.630045
0.620339
0.605611
0.55086
0.491086
0.396312
0.276538
0.146719
0.0618778
0.0120136
-0.0279186
-0.0478733
-0.0628507
-0.0679412
-0.0731448
-0.0783937
-0.0786199
-0.0838235
-0.0940272
-0.0992308
-0.104457
-0.0997059
-0.0999321
-0.100181
-0.10043
-0.0956335
-0.0958597
-0.0960634
-0.10629
-0.111471
-0.111629
-0.10681
-0.107014
-0.11724
-0.117421
-0.117579
-0.122738
-0.122896
-0.123054
-0.118235
-0.118462
-0.118688
-0.108891
-0.0940951
-0.0842987
-0.0795023
-0.0747059
-0.0748869
-0.0700679
-0.0702941
-0.0705204
-0.065724
-0.0559276
-0.0511991
-0.0515385
-0.0519005
-0.0572851
-0.0526923
-0.0531448
-0.0586199
-0.0591177
-0.0596606
-0.0602036
-0.0657919
-0.0663122
-0.06681
-0.072353
-0.0778959
-0.0783937
-0.0838914
-0.0893439
-0.0947964
-0.105226
-0.115588
-0.12095
-0.12629
-0.131629
-0.141946
-0.147285
-0.157624
-0.167964
-0.173258
-0.178529
-0.183801
-0.194072
-0.204321
-0.21457
-0.214819
-0.22
-0.220113
-0.21509
-0.204977
-0.204661
-0.204027
-0.193032
-0.186833
-0.17552
-0.174072
-0.162602
-0.156086
-0.144548
-0.137919
-0.126063
-0.113959
-0.106606
-0.0941629
-0.0865611
-0.0688688
-0.0561312
-0.0483937
-0.0406561
-0.0279412
-0.0152489
-0.00764704
-0.000294104
0.00176472
0.00843889
0.0195475
0.0250679
0.0302036
0.0401131
0.0497964
0.0493891
0.058914
0.0684163
0.0779186
0.0773756
0.0768326
0.0712444
0.0706561
0.0750905
0.0745476
0.0690272
0.0735068
0.0779864
0.0724661
0.076991
0.0714932
0.0759729
0.0754299
0.0698869
0.0693665
0.0738688
0.0733711
0.0678281
0.0622625
0.0616969
0.066086
0.0654751
0.0648869
0.0643213
0.058733
0.0581448
0.0525792
0.0520815
0.051629
0.0511991
0.0457919
0.0454073
0.0500453
0.044638
0.0342082
0.0288235
0.0335068
0.0382127
0.0379186
0.0376244
0.0373077
0.041991
0.0416968
0.0414027
0.0461539
0.0459502
0.0507692
0.0455883
0.0504073
0.0552263
0.0550226
0.0497964
0.0495928
0.0443665
0.0441177
0.0438462
0.0335294
0.0331674
0.0327828
0.0323756
0.0319457
0.0364932
0.0360181
0.0404751
0.0349095
0.0343439
0.0287556
0.0331222
0.0324434
0.0317194
0.0309502
0.025181
0.0243665
0.013552
0.0127602
0.011991
0.0111991
0.000429895
-0.000316717
0.00393669
0.0032127
0.00746609
0.0117647
0.0110408
0.0102941
-0.000542961
-0.00153844
0.00221721
0.0106561
0.00889142
0.00196834
0.00502263
0.00300906
0.000950234
-0.00117647
-0.00837104
-0.00570135
-0.00825792
-0.00599547
-0.0189819
-0.0170588
-0.0202715
-0.0235294
-0.02681
-0.0200453
-0.0231674
-0.0262444
-0.029095
-0.0366968
-0.0338235
-0.0354299
-0.0313801
-0.0417647
-0.05181
-0.0616063
-0.061267
-0.0608597
-0.060362
-0.0597964
-0.0642082
-0.0585747
-0.0529186
-0.0572625
-0.0615611
-0.0658824
-0.0652036
-0.0644796
-0.0637557
-0.0580317
-0.0573077
-0.0515837
-0.0508597
-0.0551584
-0.054457
-0.0488009
-0.0481674
-0.0425339
-0.0419005
-0.0413122
-0.0407466
-0.0402036
-0.0447285
-0.044276
-0.0338462
-0.0284842
-0.0332127
-0.0379638
-0.0377602
-0.0375792
-0.0374208
-0.0372625
-0.0321267
-0.036991
-0.0418326
-0.0516742
-0.061448
-0.0661991
-0.070905
-0.0706109
-0.0702715
-0.0698869
-0.0695023
-0.0741177
-0.0737104
-0.0733258
-0.0729412
-0.072534
-0.0721493
-0.0717647
-0.0713349
-0.0708824
-0.0753846
-0.0748416
-0.0692987
-0.0737557
-0.0782353
-0.0776923
-0.072172
-0.0716063
-0.0710181
-0.0704299
-0.069819
-0.0642308
-0.0636199
-0.0630543
-0.0574887
-0.0519457
-0.0564027
-0.050905
-0.0454072
-0.0398643
-0.0343213
-0.0337104
-0.0230543
-0.00737557
0.0183032
0.0639593
0.129638
0.205362
0.261154
0.301968
0.322783
0.34862
0.364434
0.385249
0.411063
0.451855
0.507647
0.553439
0.609208
0.63491
0.675611
0.69129
0.701923
0.702511
0.688077
0.678575
0.639027
0.594434
0.499774
0.385045
0.240294
0.110498
0.0355882
-0.014457
-0.0445701
-0.0647059
-0.0798869
-0.0901131
-0.100407
-0.105724
-0.116041
-0.111357
-0.121719
-0.122081
-0.122466
-0.127851
-0.128258
-0.133665
-0.139005
-0.139344
-0.134638
-0.129955
-0.130271
-0.120588
-0.12086
-0.121109
-0.12629
-0.116448
-0.111629
-0.10681
-0.0969457
-0.0920815
-0.0822398
-0.0723529
-0.0624208
-0.0625113
-0.0476018
-0.0376923
-0.0328054
-0.0329186
-0.0280317
-0.0231448
-0.0283258
-0.0285294
-0.0387783
-0.0440498
-0.0493213
-0.0546154
-0.0598869
-0.0651584
-0.0654525
-0.0707692
-0.076086
-0.0764027
-0.0767195
-0.0820362
-0.0873303
-0.0876244
-0.0979412
-0.103258
-0.113552
-0.118869
-0.119186
-0.11448
-0.114796
-0.120113
-0.120453
-0.125769
-0.131041
-0.131267
-0.136471
-0.136652
-0.14181
-0.141968
-0.142127
-0.137262
-0.137398
-0.137534
-0.137624
-0.142692
-0.142783
-0.152896
-0.157986
-0.163054
-0.163077
-0.167986
-0.172647
-0.177014
-0.181063
-0.184887
-0.188529
-0.187081
-0.180498
-0.178824
-0.177059
-0.175158
-0.168077
-0.165769
-0.153235
-0.145452
-0.137557
-0.12948
-0.116335
-0.103167
-0.085
-0.0668778
-0.0538009
-0.040905
-0.0281901
-0.00590501
0.0008597
0.0169909
0.0325339
0.0527375
0.0576923
0.062466
0.0721719
0.0817873
0.0963348
0.0958145
0.100271
0.104706
0.10914
0.103529
0.102941
0.102353
0.106719
0.106086
0.0954299
0.0947737
0.0891176
0.0934842
0.0878733
0.0872624
0.0817195
0.0761765
0.0656335
0.0600679
0.0645701
0.064095
0.0536425
0.0482579
0.0529186
0.0526244
0.0473756
0.047172
0.0419683
0.0418552
0.0467873
0.0467195
0.0466968
0.0516968
0.0617195
0.0616968
0.0616516
0.0565611
0.051448
0.0513348
0.0461765
0.0459955
0.0507919
0.0555883
0.0503394
0.0500679
0.0497964
0.0495023
0.0441855
0.0438235
0.0484842
0.0481448
0.0427828
0.0423982
0.041991
0.041629
0.041267
0.035905
0.040543
0.0402263
0.0299095
0.0195928
0.0143213
0.00902716
0.00873304
0.00843892
0.00816743
0.00791857
0.0127149
0.00748871
0.00226245
0.00205884
0.0118552
0.0216516
0.0164027
0.0211312
0.0258371
0.0255204
0.015181
0.0147964
0.0194118
0.0239819
0.0235068
0.0229864
0.0174661
0.0119005
0.011267
0.00556562
0.00477377
0.00886879
0.00269231
0.00124434
-0.000542987
-0.00253394
-0.00468326
-0.00194571
-0.0042534
-0.0115158
-0.013733
-0.0160407
-0.0234842
-0.0261539
-0.0288914
-0.0368326
-0.039819
-0.0428507
-0.0408597
-0.0338235
-0.0417647
-0.0395475
-0.0372172
-0.0345928
-0.0366742
-0.0433258
-0.0393213
-0.0397285
-0.0447059
-0.0443892
-0.0388688
-0.0381901
-0.0374661
-0.0417421
-0.0409955
-0.0402263
-0.0394118
-0.0386199
-0.0428054
-0.0420136
-0.0412444
-0.0404977
-0.0447738
-0.0440498
-0.0433032
-0.0475792
-0.0519005
-0.0511991
-0.0504977
-0.049819
-0.0491629
-0.053552
-0.0529412
-0.0473077
-0.0567195
-0.0561538
-0.0555656
-0.0499321
-0.0442986
-0.0436878
-0.0430769
-0.0474887
-0.0418552
-0.0412443
-0.0406335
-0.0399774
-0.0343213
-0.0337104
-0.0331222
-0.0275339
-0.0269457
-0.0213801
-0.0258597
-0.0353394
-0.034819
-0.0393439
-0.0388914
-0.0484842
-0.0430543
-0.0426471
-0.0472851
-0.0569005
-0.0615158
-0.0661765
-0.075905
-0.0756335
-0.0753846
-0.0801357
-0.0848869
-0.0896154
-0.0943213
-0.0889819
-0.0886425
-0.0933032
-0.0979412
-0.0974887
-0.0969683
-0.096448
-0.0958597
-0.0902262
-0.0895475
-0.0838462
-0.0881222
-0.0823529
-0.0765385
-0.0707014
-0.0698416
-0.0539819
-0.0380543
-0.0221041
-0.0011991
0.0297285
0.0906787
0.161606
0.242511
0.293416
0.334276
0.370158
0.391041
0.3969
0.402738
0.433552
0.474321
0.535
0.570679
0.621335
0.646923
0.672466
0.687941
0.683416
0.683937
0.659412
0.644864
0.595294
0.530724
0.441086
0.301357
0.176606
0.07681
0.0119457
-0.0329412
-0.0628733
-0.0728281
-0.0828281
-0.0878733
-0.0979412
-0.103009
-0.103054
-0.108122
-0.108213
-0.108326
-0.113439
-0.113575
-0.108733
-0.113891
-0.11905
-0.114231
-0.114457
-0.114729
-0.115023
-0.110294
-0.105588
-0.105905
-0.106244
-0.0965385
-0.0918552
-0.092172
-0.0924887
-0.0927828
-0.0880317
-0.0932805
-0.0935294
-0.103778
-0.103959
-0.104118
-0.109276
-0.104434
-0.0995702
-0.0947059
-0.0948416
-0.0949321
-0.095
-0.0850679
-0.0801584
-0.0803168
-0.0754751
-0.0706335
-0.0607692
-0.0659276
-0.0610407
-0.0561086
-0.0561765
-0.0562896
-0.0564027
-0.0515158
-0.0566516
-0.0567873
-0.0569004
-0.0570136
-0.0621493
-0.0673077
-0.0725113
-0.0777149
-0.0829186
-0.0881674
-0.0984163
-0.103688
-0.108959
-0.119186
-0.124412
-0.134615
-0.149842
-0.155045
-0.160271
-0.165475
-0.170656
-0.175814
-0.180973
-0.201086
-0.206131
-0.201131
-0.206018
-0.205769
-0.205271
-0.199457
-0.198258
-0.186833
-0.190249
-0.183529
-0.176742
-0.174932
-0.168077
-0.156086
-0.138891
-0.136403
-0.128733
-0.115837
-0.102851
-0.0847058
-0.0764932
-0.0733031
-0.0651583
-0.0521267
-0.0391629
-0.0314253
-0.0140045
0.00300912
0.0144118
0.0252715
0.0356788
0.0407919
0.055724
0.0605204
0.0702489
0.0749322
0.0796154
0.0792761
0.0739141
0.0785747
0.0782353
0.082896
0.0825566
0.0871493
0.0867195
0.0863122
0.0858824
0.0854073
0.0899548
0.0995249
0.104095
0.0986878
0.103303
0.102919
0.107511
0.102104
0.0967421
0.0964028
0.0960634
0.0957467
0.0904299
0.0901358
0.0898643
0.0845928
0.0742761
0.0689593
0.06862
0.0682806
0.0679865
0.067715
0.0674661
0.0622399
0.0570136
0.0617874
0.0615611
0.0664028
0.066267
0.0611991
0.0561539
0.0511539
0.0461539
0.0361765
0.0312444
0.0313349
0.0264254
0.0214933
0.0165611
0.016629
0.0117195
0.00683264
0.00694575
0.00705886
0.0121494
0.0172399
0.0173077
0.022353
0.0173756
0.022353
0.0223303
0.0122851
0.0121946
0.0121267
0.0170136
0.0168326
0.0166064
0.0163349
0.0160407
0.0157014
0.0152941
0.0198643
0.0193213
0.0237557
0.0182127
0.0176471
0.0221267
0.0216063
0.016086
0.015543
0.0200679
0.0245701
0.029095
0.0286651
0.0232126
0.0227602
0.0173077
0.0118552
0.0063122
0.00567871
0.00988685
-0.0011765
-0.00246609
-0.00395931
0.00441173
0.00266965
0.000904944
-0.000905011
0.00221716
0.000226207
-0.00692311
-0.0142987
-0.0168552
-0.0195476
-0.0273756
-0.030181
-0.0280317
-0.0307919
-0.0385068
-0.0461313
-0.0486426
-0.0560182
-0.0629865
-0.0644344
-0.0652037
-0.0554299
-0.0502715
-0.0498869
-0.0493666
-0.0437331
-0.0430317
-0.0472851
-0.0464706
-0.0506335
-0.0497738
-0.0438462
-0.037896
-0.0369457
-0.0359955
-0.0350679
-0.0341403
-0.0382127
-0.0372851
-0.0363575
-0.0454752
-0.0445702
-0.0437104
-0.0428733
-0.0370362
-0.0411991
-0.0453394
-0.0445023
-0.0436199
-0.0477376
-0.0468779
-0.0460408
-0.0352037
-0.0443666
-0.0485521
-0.0577828
-0.0570815
-0.0564028
-0.0607919
-0.0602489
-0.0647512
-0.0692534
-0.0687783
-0.0633485
-0.0579638
-0.0626245
-0.0672851
-0.071991
-0.0717421
-0.0764933
-0.0762444
-0.0809955
-0.0807467
-0.0804978
-0.0802037
-0.0799096
-0.0846154
-0.0843213
-0.0840725
-0.0938236
-0.0935747
-0.0933032
-0.0880091
-0.0826924
-0.0823304
-0.0769458
-0.0665385
-0.066086
-0.0605883
-0.0600679
-0.0595023
-0.0589141
-0.0682806
-0.0676018
-0.0619005
-0.0562218
-0.0605204
-0.0597964
-0.0590272
-0.0632353
-0.0573982
-0.0515611
-0.0407014
-0.024819
-0.00393667
0.0219457
0.0678054
0.13871
0.20457
0.255452
0.286357
0.317262
0.333145
0.354005
0.374864
0.415701
0.466538
0.527353
0.578122
0.618869
0.65457
0.665226
0.680837
0.671471
0.667059
0.652579
0.628032
0.593394
0.508643
0.393801
0.248959
0.12905
0.049095
-0.000904985
-0.0309276
-0.0559955
-0.0711312
-0.0763348
-0.0815837
-0.0818326
-0.0921493
-0.102511
-0.107873
-0.103213
-0.108575
-0.108959
-0.109367
-0.109796
-0.110249
-0.115701
-0.106154
-0.111652
-0.107104
-0.112511
-0.117896
-0.118235
-0.123575
-0.118937
-0.129276
-0.129615
-0.129955
-0.130249
-0.12552
-0.125747
-0.116018
-0.10629
-0.0965611
-0.0968326
-0.0870815
-0.0773529
-0.0776244
-0.0829412
-0.0782806
-0.0736199
-0.0689593
-0.064276
-0.0646154
-0.0599774
-0.0553846
-0.0557919
-0.056267
-0.0517647
-0.0472625
-0.0477376
-0.0532127
-0.0587104
-0.0542082
-0.0547285
-0.0552715
-0.0558145
-0.0564027
-0.0569683
-0.0625566
-0.0681222
-0.0786652
-0.0841629
-0.089638
-0.100068
-0.105475
-0.110837
-0.116176
-0.126493
-0.13681
-0.142172
-0.147511
-0.147805
-0.153054
-0.153326
-0.158575
-0.158824
-0.169118
-0.174412
-0.179706
-0.189932
-0.195113
-0.200181
-0.195158
-0.199955
-0.19948
-0.203756
-0.207805
-0.196719
-0.19052
-0.184276
-0.182964
-0.171561
-0.169977
-0.168167
-0.161063
-0.15371
-0.141176
-0.133484
-0.120747
-0.117964
-0.105181
-0.0923982
-0.0796607
-0.0570363
-0.0345702
-0.0174887
-0.015905
4.51952e-05
0.0204524
0.0355203
0.0403619
0.0500678
0.0696832
0.084276
0.0888461
0.088371
0.0979185
0.107443
0.1119
0.111312
0.115724
0.120113
0.12448
0.128823
0.128145
0.127466
0.126742
0.126063
0.115339
0.104638
0.0989141
0.0931222
0.0873304
0.0865385
0.0807919
0.08
0.0742082
0.0634163
0.0576471
0.0569005
0.0561539
0.0504751
0.0398417
0.039276
0.0337331
0.0332353
0.0327828
0.037353
0.0369005
0.0364932
0.0411313
0.0407919
0.0404752
0.0401584
0.0448417
0.0445702
0.0542987
0.0590272
0.0537783
0.0485295
0.0482806
0.0529638
0.0526245
0.0523077
0.0569684
0.056629
0.056267
0.050905
0.0555656
0.0552037
0.054819
0.0443892
0.0439593
0.0435295
0.0380317
0.0325566
0.0271041
0.0216742
0.0212218
0.020724
0.0152489
0.00977379
0.00429868
0.00377831
-0.00171943
-0.00221717
0.00226248
0.00671949
0.0111539
0.00561088
0.0100227
0.00445703
0.00889142
0.0133711
0.0228281
0.0322625
0.0316516
0.0309729
0.0353168
0.0396606
0.0440045
0.0433258
0.0426697
0.0419457
0.0361312
0.0302715
0.0292987
0.0280995
0.0265837
0.0297964
0.0177602
0.0105882
0.00330316
0.00101809
-0.0011991
-0.00339367
-0.0106787
-0.0182353
-0.0209502
-0.0287557
-0.031629
-0.034638
-0.0426471
-0.0555882
-0.0584616
-0.0562444
-0.0639819
-0.0715158
-0.0688235
-0.065724
-0.0621493
-0.0629186
-0.0580996
-0.0528959
-0.0474208
-0.0467873
-0.0410407
-0.0402489
-0.0344344
-0.0336425
-0.0328959
-0.0221946
-0.0215385
-0.0259276
-0.0302941
-0.0296833
-0.0290724
-0.0284842
-0.0329412
-0.0324434
-0.0319231
-0.0364027
-0.0359276
-0.0404977
-0.0450905
-0.0447285
-0.0443891
-0.0490045
-0.0485747
-0.0531448
-0.0576923
-0.0572172
-0.0567421
-0.0562896
-0.0508371
-0.0553394
-0.0548416
-0.0542986
-0.0537557
-0.0482579
-0.0477828
-0.0373077
-0.0368326
-0.0363575
-0.0308824
-0.0304299
-0.0249774
-0.0245475
-0.0291403
-0.0287557
-0.028371
-0.0279864
-0.0326471
-0.0373077
-0.031991
-0.0416968
-0.0514253
-0.0611312
-0.0658597
-0.0655882
-0.0753167
-0.0800453
-0.0797964
-0.0745928
-0.0793891
-0.0842081
-0.0790045
-0.0837783
-0.0835068
-0.0931448
-0.0927602
-0.10233
-0.1069
-0.111403
-0.110837
-0.105204
-0.0995023
-0.0887783
-0.0830091
-0.0771946
-0.0713348
-0.0654299
-0.0594796
-0.0434842
-0.0224661
-0.00644797
0.0245701
0.0855882
0.161606
0.232602
0.288575
0.32948
0.365339
0.376131
0.3819
0.397647
0.433348
0.493959
0.544502
0.585
0.615453
0.650837
0.661222
0.666539
0.666787
0.651991
0.642172
0.607285
0.567353
0.482398
0.377421
0.237443
0.112421
0.0323982
-0.0226471
-0.0576923
-0.0827602
-0.0928507
-0.0979638
-0.103054
-0.103145
-0.0982353
-0.0933032
-0.0883937
-0.0935294
-0.0936652
-0.0937783
-0.093914
-0.0940724
-0.0892534
-0.0944344
-0.0946154
-0.089819
-0.0900226
-0.0852715
-0.0805656
-0.075905
-0.086267
-0.091629
-0.0919909
-0.0973756
-0.0977602
-0.0981448
-0.0935294
-0.0939593
-0.0994118
-0.0999321
-0.10043
-0.095905
-0.0913575
-0.0917873
-0.0921946
-0.0875566
-0.0879412
-0.0883032
-0.0786425
-0.0789593
-0.0742534
-0.0745249
-0.0647738
-0.0650226
-0.0652489
-0.0654751
-0.0657014
-0.0609502
-0.0611538
-0.0614027
-0.0716968
-0.0720362
-0.0724208
-0.0727828
-0.07819
-0.0785973
-0.0740272
-0.074457
-0.0749321
-0.0804299
-0.0808824
-0.0863801
-0.1019
-0.112489
-0.118077
-0.12371
-0.134367
-0.145023
-0.150656
-0.15629
-0.161923
-0.172534
-0.1781
-0.18362
-0.189095
-0.199548
-0.209955
-0.215294
-0.220543
-0.225747
-0.225792
-0.225543
-0.219955
-0.20905
-0.202919
-0.196584
-0.185091
-0.178552
-0.171991
-0.160339
-0.143529
-0.131448
-0.119118
-0.111606
-0.0939593
-0.0911539
-0.0783032
-0.0704299
-0.0575566
-0.0447738
-0.0320589
-0.0245023
-0.0121268
-0.000135805
0.00638004
0.0172624
0.0225791
0.0325113
0.0371719
0.0416515
0.051018
0.0553167
0.0546153
0.0538913
0.0531674
0.057466
0.0617873
0.0661538
0.0605203
0.0549094
0.059276
0.0636425
0.0629863
0.0623529
0.0616967
0.0610633
0.060475
0.0649094
0.0693891
0.0788913
0.0834162
0.0778959
0.0773981
0.0769004
0.0713348
0.0707918
0.0702488
0.0797511
0.0892533
0.0987104
0.0931674
0.0876018
0.0820814
0.081561
0.0760181
0.0754751
0.0799547
0.0744344
0.073914
0.0684615
0.0679864
0.0625113
0.0520136
0.0515837
0.0461538
0.045724
0.0402941
0.0398869
0.0345022
0.0341176
0.033733
0.0333258
0.0379412
0.0325565
0.0321946
0.0268552
0.0315384
0.0362443
0.0409728
0.0407466
0.035543
0.0403846
0.0452262
0.0500452
0.0498416
0.0495927
0.0492986
0.0439593
0.0385973
0.0432353
0.0478507
0.0523982
0.0468778
0.0413122
0.0357013
0.0350452
0.0293213
0.0285746
0.0278054
0.0319683
0.0260633
0.0201131
0.0191629
0.0182127
0.0223303
0.016448
0.0155656
0.0146833
0.0137557
0.00773756
0.00656109
0.00518099
-0.00149321
-0.00334842
-0.00538462
-0.00744344
-0.00959276
-0.0117195
-0.013914
-0.0111991
-0.00861991
-0.0113122
-0.0142308
-0.0173529
-0.020543
-0.0238462
-0.0271719
-0.0254977
-0.0237783
-0.0219683
-0.0250905
-0.0230091
-0.0307014
-0.0329638
-0.034638
-0.0357014
-0.0362217
-0.0413801
-0.0463122
-0.0511086
-0.0458371
-0.0454977
-0.0400905
-0.0396606
-0.0392081
-0.043733
-0.0482579
-0.0527602
-0.0572398
-0.0566968
-0.0561086
-0.0555204
-0.0649774
-0.0643891
-0.0537783
-0.05819
-0.0575792
-0.0619457
-0.0612443
-0.0554525
-0.0546154
-0.0487783
-0.0529412
-0.0471267
-0.0413122
-0.0404751
-0.0396154
-0.038733
-0.0378733
-0.0420136
-0.0361991
-0.0304072
-0.0246606
-0.0289819
-0.0283258
-0.0276923
-0.0270588
-0.0314932
-0.0309728
-0.0304751
-0.03
-0.0345701
-0.0391629
-0.0387104
-0.0432805
-0.0528733
-0.0575113
-0.0571493
-0.0617647
-0.0713575
-0.0809729
-0.0906109
-0.0952036
-0.104751
-0.109276
-0.103778
-0.0982805
-0.0977828
-0.10233
-0.1069
-0.106425
-0.0958823
-0.0902715
-0.0846606
-0.0790498
-0.0734163
-0.0677602
-0.0721041
-0.0714253
-0.0606787
-0.0498869
-0.039095
-0.0383032
-0.0324887
-0.036629
-0.0307692
-0.0249095
-0.0140498
0.00185521
0.0277602
0.0736199
0.134502
0.210385
0.261267
0.307127
0.327986
0.348846
0.354706
0.375566
0.406403
0.447217
0.518054
0.573869
0.629638
0.655385
0.686086
0.701765
0.707398
0.708032
0.693688
0.684344
0.649955
0.60552
0.510996
0.381425
0.246787
0.132081
0.0573303
0.0125339
-0.0223077
-0.0422172
-0.0521267
-0.0620588
-0.0669909
-0.0719457
-0.0769683
-0.0770588
-0.0821946
-0.0823756
-0.0826018
-0.0828507
-0.0780769
-0.0733258
-0.0836425
-0.0889593
-0.0891855
-0.0944118
-0.099638
-0.104887
-0.115113
-0.115271
-0.12043
-0.125566
-0.125701
-0.125792
-0.135837
-0.140905
-0.14095
-0.140973
-0.140973
-0.135973
-0.130928
-0.125814
-0.120679
-0.115543
-0.115407
-0.115294
-0.105158
-0.0950679
-0.095
-0.0899547
-0.0799095
-0.0748869
-0.0798869
-0.0799095
-0.0749547
-0.0700679
-0.0652262
-0.0654072
-0.0656109
-0.0608371
-0.0611086
-0.0664253
-0.0717647
-0.0721267
-0.0775339
-0.0778959
-0.0782353
-0.0735747
-0.073914
-0.079276
-0.0896154
-0.0999095
-0.105136
-0.110339
-0.12052
-0.125656
-0.130747
-0.13586
-0.15095
-0.155973
-0.160905
-0.165792
-0.170679
-0.18052
-0.175362
-0.180181
-0.18
-0.189796
-0.189502
-0.184095
-0.188507
-0.18767
-0.191516
-0.185158
-0.183643
-0.182036
-0.180339
-0.178597
-0.171787
-0.159819
-0.15767
-0.150226
-0.137557
-0.129638
-0.116584
-0.108394
-0.0950905
-0.0867421
-0.0833937
-0.0750905
-0.0618552
-0.0437783
-0.0258824
-0.0133937
0.00350679
0.0197964
0.0305656
0.0359955
0.0412444
0.0513349
0.0563349
0.0613122
0.066267
0.0711991
0.086086
0.0959729
0.10086
0.105724
0.110566
0.115385
0.110204
0.115045
0.119864
0.119615
0.109344
0.104072
0.103756
0.103394
0.0980091
0.0875792
0.0871493
0.0866742
0.0811765
0.0756787
0.070181
0.074638
0.0690724
0.0635747
0.0580996
0.0526244
0.0471267
0.0366742
0.036267
0.030905
0.0305882
0.0352715
0.0299774
0.0347511
0.0395701
0.0443891
0.0442534
0.0442082
0.0441629
0.0491176
0.0490724
0.0540724
0.059095
0.0641629
0.0642534
0.0593439
0.0594796
0.0595928
0.0596606
0.0547059
0.0597738
0.054819
0.0548416
0.0548869
0.0499774
0.0500679
0.0451358
0.0451358
0.0350905
0.0350226
0.0349321
0.029819
0.0246833
0.0245249
0.0193665
0.0141403
0.00393667
0.00371043
0.00346157
-0.0017873
-0.00705879
-0.00730766
-0.00255653
0.00217198
-0.0031674
-0.00352939
0.00115387
0.00579187
0.0104525
0.0150905
0.0247511
0.0244118
0.0240498
0.0186651
0.0232805
0.0178959
0.0175113
0.0220588
0.0265837
0.0260407
0.0203393
0.0193891
0.00809952
0.00153844
-0.00022627
-0.00717197
-0.00416293
-0.00613125
-0.0130317
-0.0200227
-0.0221494
-0.024457
-0.0269231
-0.0295249
-0.0372625
-0.0400453
-0.0428281
-0.0505883
-0.0583484
-0.0610181
-0.0585973
-0.0659729
-0.0681222
-0.0699774
-0.0663349
-0.0620589
-0.0622399
-0.0620362
-0.0515385
-0.0458145
-0.0449774
-0.0441177
-0.0382579
-0.0323756
-0.031448
-0.0305204
-0.0295928
-0.0236652
-0.0226697
-0.0216969
-0.0207693
-0.0198643
-0.0189593
-0.0330769
-0.0372172
-0.0363575
-0.0255204
-0.0297059
-0.0339367
-0.0381674
-0.0424435
-0.0417421
-0.0460181
-0.0503394
-0.049638
-0.0489141
-0.0531901
-0.0624435
-0.0566969
-0.0609503
-0.0602263
-0.0645249
-0.0638688
-0.0682127
-0.0725792
-0.071991
-0.0764706
-0.0709503
-0.0654299
-0.0649095
-0.0694118
-0.0688914
-0.0633937
-0.0679186
-0.0724435
-0.0720136
-0.0715611
-0.0661312
-0.065724
-0.0653846
-0.0650453
-0.0697285
-0.069457
-0.0692308
-0.0740046
-0.0737557
-0.0835294
-0.0833258
-0.0830996
-0.0878733
-0.0926471
-0.0924435
-0.0972172
-0.0919457
-0.086629
-0.0813122
-0.0859729
-0.0805656
-0.0850905
-0.0845702
-0.0839593
-0.0832806
-0.077534
-0.0717647
-0.0709955
-0.065181
-0.0543439
-0.0384616
-0.0275566
-0.00158373
0.0394118
0.10543
0.186403
0.25733
0.308213
0.349072
0.364909
0.370747
0.371584
0.407353
0.448077
0.503756
0.554412
0.595023
0.630543
0.645995
0.656425
0.656833
0.662172
0.647443
0.63267
0.602851
0.562986
0.5031
0.398167
0.263213
0.148281
0.0583032
-0.00171947
-0.0467195
-0.0716969
-0.0866968
-0.0917195
-0.0967647
-0.106787
-0.11181
-0.121855
-0.121923
-0.136968
-0.137014
-0.132059
-0.132127
-0.127195
-0.12724
-0.12733
-0.132443
-0.132602
-0.132738
-0.132896
-0.133077
-0.128303
-0.123552
-0.123801
-0.119095
-0.119434
-0.119774
-0.115136
-0.12052
-0.120995
-0.121425
-0.111878
-0.10733
-0.0927828
-0.0882353
-0.0787104
-0.0692081
-0.0597059
-0.0602263
-0.0607014
-0.0611312
-0.0615611
-0.061991
-0.0624208
-0.0577828
-0.0581448
-0.0535294
-0.058914
-0.0593213
-0.0546833
-0.0500226
-0.0503394
-0.0456561
-0.0409729
-0.036267
-0.0365611
-0.0468552
-0.0471493
-0.0524887
-0.0578281
-0.0581448
-0.0634615
-0.0638009
-0.0691403
-0.0745023
-0.079819
-0.0851131
-0.0904072
-0.100769
-0.111131
-0.116538
-0.131946
-0.137353
-0.152805
-0.158258
-0.163688
-0.169118
-0.179548
-0.18991
-0.190181
-0.200407
-0.20552
-0.215452
-0.205091
-0.204389
-0.198371
-0.192127
-0.190701
-0.184185
-0.182647
-0.171131
-0.164457
-0.152579
-0.14543
-0.133032
-0.11043
-0.097647
-0.0897737
-0.0818326
-0.068914
-0.0560181
-0.0431674
-0.0253846
-0.0177375
-0.0102941
0.00187783
0.0135747
0.0146154
0.0251357
0.0352263
0.0400453
0.039638
0.044095
0.0485068
0.0579186
0.0572851
0.0565837
0.0608597
0.0650905
0.0643439
0.0635294
0.0627149
0.0669683
0.0662444
0.0605656
0.0548869
0.0541855
0.0634616
0.0677602
0.0670589
0.0663801
0.0707466
0.0701358
0.0695249
0.0739141
0.0783258
0.0777602
0.0822172
0.0816742
0.091086
0.0854978
0.0849322
0.0843892
0.0788236
0.0783258
0.0778507
0.0774435
0.0770589
0.0766969
0.0713349
0.0659729
0.0655657
0.0601358
0.0597286
0.0493213
0.0439367
0.0435295
0.0431675
0.0477829
0.0424209
0.0371267
0.0318779
0.031629
0.0264028
0.0212218
0.021086
0.0159503
0.0158145
0.0157014
0.0155657
0.0104525
0.00538466
0.00531679
0.00524893
0.00518106
0.000113182
6.79344e-05
0.00502269
0.0149774
0.0198869
0.0247286
0.0245249
0.0242082
0.0338914
0.0384842
0.0380317
0.037534
0.0420136
0.036448
0.0307919
0.0301584
0.0294797
0.0287557
0.0279638
0.0321719
0.0313801
0.0306109
0.0298643
0.024095
0.0233258
0.0275339
0.0267421
0.0209502
0.0151584
0.00932127
0.0034163
-0.00262443
-0.00893665
-0.0154977
-0.0122398
-0.00404976
-0.0109276
-0.0128054
-0.0146606
-0.0115158
-0.0134842
-0.0156335
-0.00800905
-0.0106109
-0.00830317
-0.0111312
-0.00900453
-0.00692308
-0.0147738
-0.0225566
-0.0202262
-0.0177828
-0.0201584
-0.0221041
-0.0285068
-0.0292986
-0.0296833
-0.0397738
-0.0447059
-0.0495023
-0.0492308
-0.0439367
-0.0435973
-0.0481901
-0.0477149
-0.0522172
-0.0617421
-0.0612217
-0.0556787
-0.0551131
-0.0545023
-0.0588462
-0.0631901
-0.0574887
-0.0517647
-0.0510181
-0.0552715
-0.0494796
-0.0386878
-0.0379186
-0.037172
-0.0414253
-0.0356787
-0.0299321
-0.0291855
-0.0284842
-0.0178054
-0.0121493
-0.0165385
-0.0159502
-0.0154072
-0.00993213
-0.0145249
-0.0141629
-0.0188235
-0.0285294
-0.0332806
-0.0330543
-0.0328281
-0.0376244
-0.0424661
-0.0423303
-0.0522172
-0.0571041
-0.0570136
-0.0669457
-0.0769005
-0.0818778
-0.0818778
-0.0868778
-0.0918778
-0.101878
-0.106878
-0.111855
-0.111787
-0.106674
-0.101516
-0.0913575
-0.0961991
-0.0909502
-0.0856335
-0.0802715
-0.0798869
-0.0794344
-0.0689593
-0.0734842
-0.0729864
-0.0674887
-0.0619683
-0.0514254
-0.0508371
-0.0502263
-0.0495701
-0.043914
-0.0382579
-0.0325566
-0.02181
-0.0160407
-0.00524888
0.010543
0.0363348
0.0871041
0.157873
0.218575
0.264253
0.289977
0.315747
0.326471
0.337149
0.342805
0.373462
0.424095
0.484683
0.535294
0.565882
0.606425
0.621923
0.632398
0.622873
0.613303
0.598665
0.574005
0.534366
0.444706
0.329977
0.195181
0.105339
0.0404525
0.0104977
-0.0195023
-0.0395475
-0.049638
-0.0597738
-0.0649548
-0.0752263
-0.0804977
-0.0758145
-0.0811991
-0.0866063
-0.0920136
-0.0974435
-0.102873
-0.103348
-0.108824
-0.114299
-0.109774
-0.115272
-0.125792
-0.12629
-0.126742
-0.122195
-0.122647
-0.123122
-0.123575
-0.123982
-0.119389
-0.119774
-0.115113
-0.11043
-0.105747
-0.106018
-0.0962444
-0.0814253
-0.0716063
-0.0617647
-0.0569231
-0.0521041
-0.0522851
-0.0524661
-0.0526471
-0.0478281
-0.0430317
-0.0432353
-0.0434615
-0.0386878
-0.0339366
-0.034276
-0.034638
-0.0300226
-0.0304072
-0.0308371
-0.036267
-0.0367647
-0.0373303
-0.0378959
-0.0434615
-0.0489819
-0.0494796
-0.0499321
-0.0604072
-0.0708597
-0.0812896
-0.0867195
-0.0971267
-0.107534
-0.112896
-0.118281
-0.118665
-0.124005
-0.129344
-0.134615
-0.139887
-0.150136
-0.150339
-0.15552
-0.165701
-0.17086
-0.17595
-0.186041
-0.191086
-0.196086
-0.19595
-0.200588
-0.189932
-0.189027
-0.192941
-0.191765
-0.185498
-0.174208
-0.167873
-0.161516
-0.155023
-0.143303
-0.136312
-0.129095
-0.111742
-0.0992081
-0.0866063
-0.0789593
-0.0713575
-0.0587783
-0.046267
-0.0438688
-0.0366516
-0.0198416
-0.00857466
0.00210407
0.0123982
0.0174208
0.0223077
0.0270588
0.0367195
0.0513575
0.0609502
0.075543
0.0751131
0.0796606
0.0842308
0.0887783
0.0933258
0.0978733
0.0974208
0.101946
0.096448
0.100905
0.105317
0.109751
0.10914
0.108462
0.107805
0.107149
0.106516
0.105882
0.105226
0.0995475
0.0988688
0.0932579
0.0926697
0.0921041
0.0865611
0.0760634
0.0655883
0.0601584
0.0547738
0.0494344
0.0441629
0.0388914
0.0336425
0.0333937
0.0331222
0.0278733
0.0276244
0.0273982
0.022172
0.0169683
0.02181
0.0316742
0.0265385
0.0264253
0.0263122
0.0311991
0.026086
0.0309729
0.0408824
0.0357919
0.0357014
0.0305656
0.0304072
0.0302489
0.0301131
0.0299548
0.0297738
0.0345475
0.029276
0.0289819
0.0286652
0.0283711
0.0280769
0.0228054
0.0275113
0.022172
0.02181
0.0164254
0.00601812
0.00558824
0.0101358
0.00963803
0.00414029
0.00864255
0.00807694
0.0124887
0.00687784
0.00628961
0.0106787
0.0151131
0.0195475
0.023914
0.0282579
0.0325792
0.0319005
0.0311538
0.0302715
0.0291176
0.0276471
0.025905
0.0239367
0.0218778
0.0197059
0.0175339
0.0153394
0.00809955
0.00574661
0.00323529
0.000497737
-0.00242081
-0.000384617
-0.00846154
-0.0164932
-0.0245701
-0.0276471
-0.0306561
-0.033552
-0.0412443
-0.0437104
-0.0507692
-0.0573303
-0.0582805
-0.0586425
-0.058552
-0.0631448
-0.0675339
-0.07181
-0.0710407
-0.0652036
-0.0593439
-0.0534389
-0.0525113
-0.0465385
-0.0405656
-0.0446154
-0.0436425
-0.0426923
-0.0417421
-0.0357919
-0.0298642
-0.0289819
-0.0380995
-0.0422624
-0.0414253
-0.0405882
-0.0447964
-0.0490724
-0.0484163
-0.0427828
-0.0421719
-0.0466063
-0.0410407
-0.0404977
-0.0399774
-0.034457
-0.0389367
-0.0334615
-0.0330091
-0.0325339
-0.0370815
-0.0416516
-0.0411991
-0.0407014
-0.0452036
-0.0397059
-0.0392308
-0.038733
-0.0432353
-0.0477149
-0.047172
-0.046629
-0.041086
-0.0405882
-0.0401358
-0.044638
-0.0491177
-0.0535973
-0.0530769
-0.047534
-0.051991
-0.056448
-0.0659276
-0.0704073
-0.0748869
-0.0743665
-0.0688009
-0.0682353
-0.0676244
-0.071991
-0.0664027
-0.0657919
-0.0651131
-0.0693665
-0.0735973
-0.0677828
-0.0669231
-0.0660407
-0.0701358
-0.0692534
-0.0683484
-0.0674208
-0.0564706
-0.0504751
-0.0394344
-0.0283484
-0.00726245
0.0288461
0.0949548
0.176063
0.242149
0.298213
0.334276
0.370339
0.381403
0.392466
0.408507
0.444525
0.49052
0.541471
0.587353
0.61319
0.648982
0.649706
0.670385
0.676018
0.666606
0.647172
0.612692
0.578122
0.498507
0.403846
0.269118
0.144299
0.0494796
-0.015362
-0.0552263
-0.0751358
-0.0850905
-0.0950679
-0.105023
-0.109977
-0.109955
-0.114955
-0.114955
-0.109932
-0.114932
-0.10991
-0.109864
-0.109842
-0.104796
-0.0997285
-0.0996154
-0.0945249
-0.094457
-0.0943892
-0.0893439
-0.0842986
-0.0792986
-0.0792986
-0.0792534
-0.0742081
-0.0791855
-0.0791629
-0.0791403
-0.079095
-0.0790045
-0.0739366
-0.0688688
-0.0738009
-0.0737104
-0.0736199
-0.073552
-0.0734389
-0.0783258
-0.0782127
-0.0730769
-0.0729412
-0.0777828
-0.077647
-0.0725113
-0.0773755
-0.0771946
-0.071991
-0.0617873
-0.0715837
-0.0763575
-0.0761765
-0.0760407
-0.0759276
-0.0807692
-0.0806561
-0.0755882
-0.0755656
-0.075543
-0.080543
-0.085543
-0.0905656
-0.100588
-0.110611
-0.110679
-0.115747
-0.125837
-0.140905
-0.15095
-0.156018
-0.166086
-0.166176
-0.176267
-0.171335
-0.171403
-0.171471
-0.171516
-0.176538
-0.181561
-0.186561
-0.186493
-0.191335
-0.190995
-0.190362
-0.184344
-0.178009
-0.176448
-0.174728
-0.172851
-0.170882
-0.163846
-0.161742
-0.15448
-0.141991
-0.124276
-0.111357
-0.0933258
-0.0801357
-0.0719005
-0.0635747
-0.0502263
-0.0419231
-0.0287105
-0.0106562
0.00219452
0.00966059
0.0217194
0.04319
0.044095
0.0495475
0.0497059
0.0546606
0.0595249
0.0643439
0.0641402
0.068914
0.0786425
0.0833483
0.0880769
0.0878506
0.087647
0.0824207
0.0771945
0.0819682
0.0816967
0.0814479
0.0712442
0.0660406
0.0658596
0.0656786
0.070475
0.065294
0.0701583
0.0700452
0.0649321
0.0647963
0.0646606
0.0694796
0.0692533
0.0640271
0.0588009
0.0585973
0.0634162
0.0632579
0.0580995
0.0529411
0.0527375
0.0424887
0.0422624
0.0370588
0.0368325
0.0366063
0.0314027
0.0311991
0.0259728
0.0257692
0.0155203
0.0152715
0.0150452
0.0148643
0.00463801
0.00941175
0.0142308
0.0190724
0.0139593
0.0188462
0.0237557
0.0236878
0.0186199
0.0185747
0.0185068
0.0284389
0.0283484
0.0282353
0.0330996
0.0380091
0.0429186
0.0377828
0.0276245
0.0274435
0.0322399
0.036991
0.0367421
0.026448
0.0261765
0.0258824
0.0205656
0.0252489
0.0299095
0.0345475
0.0291403
0.028733
0.0232805
0.0228054
0.0172851
0.0117421
0.0161991
0.0155882
0.0149095
0.00416289
-0.00169684
-0.00273757
-0.0040724
-0.0107013
-0.0125113
-0.0144344
-0.0164932
-0.0185294
-0.0305882
-0.0326697
-0.0348869
-0.0372625
-0.0398643
-0.0426697
-0.0355883
-0.0336199
-0.0416516
-0.0496833
-0.0525792
-0.0504525
-0.0531901
-0.0508371
-0.0533032
-0.0554299
-0.0620815
-0.0681222
-0.0635973
-0.0586878
-0.068552
-0.0782806
-0.0778733
-0.0773756
-0.0718552
-0.0713349
-0.0607466
-0.0601131
-0.0645023
-0.0639367
-0.0633937
-0.0628281
-0.0572624
-0.0566742
-0.061086
-0.0604751
-0.0598643
-0.0542986
-0.0487104
-0.0430995
-0.0324434
-0.0317647
-0.031086
-0.0353846
-0.0346833
-0.0339366
-0.03819
-0.0374661
-0.0267421
-0.0160633
-0.0204525
-0.0298416
-0.0242534
-0.0186878
-0.0231448
-0.027647
-0.0221719
-0.0217647
-0.0163801
-0.016086
-0.0158145
-0.015543
-0.0152941
-0.0201131
-0.0299321
-0.0347511
-0.0446154
-0.0495475
-0.0544796
-0.0543891
-0.0543213
-0.0592986
-0.059276
-0.0642534
-0.0641177
-0.0689819
-0.0738688
-0.083733
-0.088552
-0.0883258
-0.0981448
-0.102964
-0.10276
-0.102511
-0.102195
-0.101855
-0.101493
-0.0960633
-0.0906108
-0.090181
-0.0897059
-0.0891629
-0.0835973
-0.083009
-0.0773756
-0.0717195
-0.0610633
-0.0504072
-0.0447964
-0.0291855
-0.0135747
0.00199095
0.0275113
0.0730091
0.138552
0.209118
0.259661
0.300181
0.340679
0.351199
0.366674
0.377104
0.412511
0.457896
0.513258
0.568575
0.608846
0.64414
0.649412
0.659661
0.649887
0.645091
0.620272
0.600385
0.565498
0.495566
0.395633
0.260633
0.140543
0.0654525
0.020362
-0.00481901
-0.0351358
-0.0554751
-0.0658597
-0.0712444
-0.0816742
-0.0920814
-0.0875113
-0.0879864
-0.0885068
-0.0940724
-0.0946606
-0.0952262
-0.100769
-0.101335
-0.1019
-0.0974887
-0.103077
-0.108643
-0.114208
-0.119706
-0.125181
-0.135611
-0.136041
-0.141471
-0.141855
-0.142262
-0.14767
-0.138032
-0.133303
-0.133575
-0.133891
-0.129186
-0.124457
-0.119751
-0.115068
-0.105339
-0.100611
-0.0908371
-0.0860633
-0.0863122
-0.0815611
-0.0768099
-0.0720814
-0.0673982
-0.0527375
-0.0431222
-0.038552
-0.0390271
-0.0345249
-0.0300226
-0.030543
-0.0310633
-0.046629
-0.0471946
-0.0427376
-0.0433032
-0.048914
-0.0545475
-0.0501584
-0.0608145
-0.0664706
-0.0721493
-0.0828054
-0.0884389
-0.104072
-0.119683
-0.125249
-0.125769
-0.131312
-0.141878
-0.142443
-0.153009
-0.163597
-0.174186
-0.174751
-0.180249
-0.175679
-0.171109
-0.171471
-0.161765
-0.161968
-0.162036
-0.171923
-0.176493
-0.175724
-0.169728
-0.163552
-0.167217
-0.155837
-0.154389
-0.147919
-0.14129
-0.134457
-0.122398
-0.110113
-0.102647
-0.0900226
-0.0873755
-0.0847059
-0.0770588
-0.064457
-0.0469457
-0.0395249
-0.0272624
-0.0253167
-0.0138235
0.0021041
0.00751132
0.0126018
0.0224887
0.0423077
0.0470362
0.0566742
0.061267
0.0708371
0.0754073
0.0799548
0.0845249
0.0941177
0.10371
0.108281
0.107828
0.102398
0.101991
0.101584
0.106177
0.110769
0.110317
0.114819
0.109253
0.10362
0.0929412
0.0872172
0.0864932
0.075724
0.0749095
0.0740951
0.073258
0.0624209
0.0565838
0.0557014
0.054819
0.0539593
0.0530996
0.0522625
0.0464706
0.0457014
0.0399548
0.0392534
0.0435747
0.0429186
0.0423077
0.0417421
0.0412217
0.0407693
0.0404073
0.0451131
0.0498416
0.054638
0.0545023
0.0544118
0.0543439
0.0592987
0.0592082
0.0491403
0.049095
0.049095
0.0491403
0.0441855
0.0442308
0.0392082
0.0441629
0.039095
0.0339593
0.0338009
0.0285747
0.0233032
0.0180091
0.0226923
0.0273303
0.0269005
0.0314932
0.0360181
0.0404751
0.0398869
0.034276
0.0286425
0.0329864
0.0323756
0.0317647
0.0262217
0.0206561
0.0250905
0.0194796
0.0138235
0.0131222
0.0124434
0.01681
0.0161765
0.0156109
0.0200679
0.0195249
0.0189819
0.0234389
0.0279186
0.0273982
0.0268552
0.0262896
0.0305656
0.0245475
0.0282127
0.021629
0.0198643
0.0178959
0.0158371
0.013733
0.00165159
-0.00545249
-0.0127376
-0.0152036
-0.0279186
-0.0407466
-0.0437104
-0.0466968
-0.0496833
-0.0626697
-0.0706109
-0.0734842
-0.0811765
-0.0836878
-0.0859276
-0.0828281
-0.0892987
-0.100249
-0.100679
-0.100724
-0.0954751
-0.09
-0.0844118
-0.073733
-0.0630091
-0.0572851
-0.0565837
-0.0558597
-0.0501358
-0.0394118
-0.0386878
-0.0379412
-0.0271719
-0.0214027
-0.0106335
-0.00988688
-0.0091629
-0.00346154
-0.0027828
-0.0071267
-0.00149321
-0.000837104
-0.000203621
0.000407238
-0.0039819
-0.00837104
-0.0127828
-0.0171946
-0.0266516
-0.0311312
-0.0355882
-0.0350226
-0.049457
-0.0588914
-0.0633258
-0.0677828
-0.0722398
-0.0766968
-0.0811312
-0.0806109
-0.0901131
-0.104615
-0.109118
-0.103597
-0.0980543
-0.0975339
-0.0969683
-0.091448
-0.0909728
-0.0904977
-0.0950453
-0.0946154
-0.0892308
-0.0838235
-0.0783937
-0.0829638
-0.0775113
-0.0720588
-0.0715837
-0.0661086
-0.0656335
-0.055181
-0.0596833
-0.0591629
-0.0636425
-0.0581448
-0.0576697
-0.0571719
-0.0516742
-0.0411538
-0.0405882
-0.0450226
-0.0493891
-0.0537104
-0.0579864
-0.0522172
-0.0464253
-0.0405882
-0.0347059
-0.0237783
-0.0128281
0.0031448
0.0391629
0.105204
0.181244
0.247285
0.303326
0.354367
0.385407
0.396403
0.402376
0.423281
0.46914
0.514977
0.580792
0.626539
0.662195
0.67776
0.683281
0.693756
0.689163
0.679502
0.644819
0.615068
0.565271
0.495407
0.40052
0.280588
0.165566
0.0804977
0.0204072
-0.0246833
-0.0497738
-0.0648869
-0.0799774
-0.0850679
-0.0901584
-0.100249
-0.100385
-0.110498
-0.110588
-0.115679
-0.120747
-0.130792
-0.135792
-0.130747
-0.125724
-0.120724
-0.115679
-0.110611
-0.110566
-0.115498
-0.11543
-0.110362
-0.105294
-0.105249
-0.100249
-0.100272
-0.0903394
-0.0854751
-0.0906109
-0.0907466
-0.0858597
-0.0810181
-0.0812217
-0.0764253
-0.0766742
-0.0719457
-0.0772398
-0.0775566
-0.0728733
-0.0732353
-0.0736425
-0.084095
-0.0895023
-0.0898869
-0.0952715
-0.0906335
-0.0859502
-0.0862443
-0.0865384
-0.0868326
-0.0821267
-0.0823982
-0.0826697
-0.0829412
-0.0832353
-0.0785068
-0.0787556
-0.0790271
-0.0842534
-0.0844344
-0.0895701
-0.0947511
-0.0949321
-0.0951131
-0.0952715
-0.0954299
-0.100611
-0.110769
-0.120882
-0.121018
-0.131199
-0.14138
-0.151561
-0.156765
-0.161968
-0.172149
-0.177285
-0.182421
-0.187511
-0.192557
-0.202511
-0.202285
-0.206765
-0.200928
-0.204819
-0.203484
-0.201946
-0.190249
-0.183507
-0.176742
-0.169864
-0.167783
-0.160475
-0.152896
-0.140068
-0.117081
-0.104027
-0.0909502
-0.0828054
-0.0697285
-0.0616968
-0.0487783
-0.0359955
-0.0184842
-0.00633484
0.000384614
0.0115611
0.0222398
0.027534
0.032534
0.037353
0.0470362
0.0516516
0.0611765
0.0656787
0.0651584
0.0745928
0.0740271
0.0783937
0.0777376
0.0720588
0.0763349
0.0705656
0.0697738
0.0740045
0.0782579
0.0725566
0.0668778
0.0662217
0.0655656
0.0649095
0.0642987
0.063733
0.0632127
0.067715
0.0672625
0.0718326
0.076448
0.071086
0.0657014
0.0603168
0.0549321
0.0545475
0.0491855
0.0538688
0.0535294
0.0531901
0.0527828
0.0523982
0.0520136
0.0466064
0.0511765
0.0457014
0.0452036
0.0446833
0.0391629
0.0336878
0.0282579
0.0278055
0.022353
0.0219005
0.0214706
0.026086
0.0307014
0.0303394
0.0300226
0.0297512
0.0344797
0.0291855
0.0189141
0.0186652
0.0234163
0.0231675
0.0179412
0.0176923
0.0174209
0.0221494
0.0218553
0.0215385
0.0261765
0.0307919
0.0253394
0.019819
0.0192308
0.0235973
0.0229186
0.017172
0.0214027
0.0206109
0.019819
0.0140045
0.00812219
0.00723983
0.0113349
0.0154751
0.0195928
0.0236878
0.0177149
0.0167195
0.0156561
0.00941178
0.00789595
0.00108599
0.00409503
-0.00807691
-0.0103167
-0.0125339
-0.0147059
-0.0218778
-0.0141629
-0.0166063
-0.029276
-0.0321267
-0.025181
-0.0183032
-0.0214932
-0.0247059
-0.0328959
-0.0360407
-0.034095
-0.0420815
-0.0398416
-0.0423303
-0.0393213
-0.0406787
-0.0414253
-0.0417421
-0.04181
-0.0367195
-0.0315158
-0.0312444
-0.0259729
-0.0256335
-0.0252941
-0.0249321
-0.0245249
-0.029095
-0.0286425
-0.0281901
-0.0277376
-0.0322851
-0.04181
-0.0463348
-0.0508597
-0.0553394
-0.0597511
-0.0641629
-0.0635747
-0.0629638
-0.0623756
-0.0618326
-0.0562896
-0.0507692
-0.0552489
-0.0597285
-0.0541855
-0.0486652
-0.0381901
-0.0427149
-0.0372625
-0.0318326
-0.026448
-0.0260634
-0.025724
-0.0204299
-0.025181
-0.0299774
-0.0347964
-0.0296606
-0.0295475
-0.0295023
-0.029457
-0.0394118
-0.0393892
-0.0443439
-0.0542987
-0.0592308
-0.0591855
-0.0541177
-0.0640724
-0.0690724
-0.0740498
-0.0790045
-0.0839367
-0.0788688
-0.0737783
-0.0736652
-0.0735068
-0.0783032
-0.0780769
-0.0728054
-0.0674887
-0.062172
-0.05681
-0.0514254
-0.0459955
-0.040543
-0.0400679
-0.0395475
-0.0440045
-0.0434163
-0.0378281
-0.0372398
-0.0366516
-0.0410407
-0.0403846
-0.0347059
-0.0190045
-0.0033258
0.0173756
0.0630995
0.128801
0.19448
0.240136
0.285792
0.31138
0.326946
0.327489
0.337986
0.368439
0.413914
0.469389
0.519796
0.575181
0.605566
0.630928
0.641267
0.646561
0.646787
0.631968
0.622172
0.577353
0.527489
0.422602
0.292738
0.162851
0.0679186
0.0229412
-0.0120815
-0.0321041
-0.0471267
-0.0521946
-0.0622624
-0.0673303
-0.0724434
-0.0776244
-0.0778507
-0.0881222
-0.0934163
-0.0936878
-0.0939593
-0.0992534
-0.0995928
-0.0999548
-0.110362
-0.120769
-0.121176
-0.116629
-0.117104
-0.117557
-0.112986
-0.118394
-0.118756
-0.119095
-0.124457
-0.124842
-0.120226
-0.110566
-0.110837
-0.106086
-0.10129
-0.0964253
-0.0914932
-0.0865385
-0.0765837
-0.066629
-0.0616968
-0.06181
-0.0569457
-0.0520588
-0.0421493
-0.0422172
-0.0422851
-0.0323756
-0.0324887
-0.0326018
-0.0377602
-0.0329638
-0.0331674
-0.0333484
-0.0335747
-0.0388235
-0.0390724
-0.0443439
-0.0496154
-0.0548643
-0.0600905
-0.0653167
-0.075543
-0.0808145
-0.086086
-0.0913122
-0.0965158
-0.111674
-0.116833
-0.121946
-0.127036
-0.137127
-0.142217
-0.14733
-0.157466
-0.162602
-0.167715
-0.167851
-0.167986
-0.173122
-0.173235
-0.173303
-0.173303
-0.178213
-0.183009
-0.182602
-0.1769
-0.175882
-0.169661
-0.163258
-0.156787
-0.150249
-0.13871
-0.132149
-0.125453
-0.123529
-0.116357
-0.108959
-0.0963122
-0.0785294
-0.0706561
-0.0577149
-0.0447511
-0.0317873
-0.0288688
-0.0259728
-0.00828055
-0.000837088
0.00113124
0.00751133
0.0183032
0.0286652
0.0388236
0.0438236
0.0487557
0.0586199
0.0634389
0.0632353
0.0730091
0.0877828
0.097534
0.102285
0.107014
0.101719
0.101448
0.101176
0.100905
0.100633
0.105317
0.0998869
0.0943665
0.0988009
0.103235
0.0976697
0.0921267
0.086629
0.0811086
0.0805656
0.08
0.0793892
0.0838235
0.0782806
0.0727828
0.0623077
0.0569005
0.0465385
0.0361991
0.0309276
0.030724
0.0355883
0.0354978
0.0404525
0.0404299
0.0404299
0.0354751
0.0305882
0.030724
0.0258824
0.031086
0.0262896
0.0265159
0.0317195
0.0319683
0.0322172
0.0324887
0.0327602
0.0280091
0.0282579
0.0234616
0.0236199
0.0237557
0.0238235
0.0238462
0.0288235
0.0287783
0.0237104
0.0236199
0.0185068
0.0233258
0.0180996
0.0178281
0.0225113
0.0221946
0.0268778
0.0265385
0.0261765
0.0258145
0.0304525
0.0300679
0.0246607
0.0192534
0.0138688
0.0135068
0.00814481
0.00278281
0.00242082
0.00208145
-0.0032353
-0.00355204
0.00117646
0.010905
0.0106561
0.0104072
0.0151584
0.0148869
0.00952488
0.00895927
0.00812217
0.00696833
0.00556561
0.00902715
0.00230769
0.000520362
-0.00128959
-0.00809955
-0.0150226
-0.0171493
-0.014457
-0.0170588
-0.019819
-0.0227376
-0.0256787
-0.0286199
-0.0315837
-0.0395023
-0.0423756
-0.0400679
-0.0476471
-0.0499548
-0.0568552
-0.0581448
-0.0587783
-0.063914
-0.0636878
-0.0682805
-0.0676923
-0.071991
-0.0711991
-0.0603394
-0.0443891
-0.0334389
-0.0224887
-0.0165158
-0.0154977
-0.0195023
-0.0235294
-0.0225792
-0.0166063
-0.0106335
-0.00466064
-0.0137104
-0.0127602
-0.0118552
-0.0159955
-0.0252036
-0.0294118
-0.0286425
-0.0379412
-0.0472398
-0.0515385
-0.0508145
-0.0551131
-0.0593892
-0.0586652
-0.0629186
-0.0671946
-0.0715158
-0.0758371
-0.0751584
-0.074457
-0.0787783
-0.0781222
-0.0824434
-0.08181
-0.0861765
-0.0855656
-0.0849774
-0.0843892
-0.0788009
-0.0732579
-0.0727376
-0.062172
-0.0566063
-0.056086
-0.055543
-0.0550226
-0.0545249
-0.0540272
-0.0535521
-0.0480543
-0.0425566
-0.0370815
-0.046629
-0.0511539
-0.0506335
-0.0550679
-0.0595023
-0.063914
-0.0582806
-0.0526244
-0.0569683
-0.0613122
-0.0656561
-0.0649548
-0.0692082
-0.0734389
-0.0776244
-0.0767873
-0.0759502
-0.0801357
-0.074276
-0.0733484
-0.0674434
-0.0565385
-0.0455882
-0.0196154
0.0263801
0.0923982
0.168439
0.234457
0.280498
0.326516
0.352489
0.368439
0.379367
0.405226
0.451018
0.50681
0.577624
0.613394
0.654118
0.669774
0.680362
0.695928
0.691448
0.6869
0.657353
0.637828
0.578281
0.498688
0.37905
0.244367
0.139638
0.0648416
0.02
-0.0198869
-0.0447738
-0.0647285
-0.0797285
-0.0947059
-0.099638
-0.104548
-0.104389
-0.109186
-0.109005
-0.108891
-0.108801
-0.11871
-0.118597
-0.118462
-0.113303
-0.10819
-0.103077
-0.0979638
-0.0929186
-0.0979638
-0.103054
-0.0981448
-0.103281
-0.103462
-0.103665
-0.0988914
-0.0991629
-0.099457
-0.104729
-0.105
-0.100294
-0.100611
-0.10595
-0.106267
-0.106584
-0.1019
-0.102217
-0.0925113
-0.0928054
-0.0880996
-0.0833937
-0.0886878
-0.0889593
-0.0842534
-0.0795249
-0.0897964
-0.0899774
-0.0801131
-0.0802489
-0.0753846
-0.0754978
-0.0756109
-0.075724
-0.0758371
-0.0809276
-0.0759729
-0.0659955
-0.071086
-0.0762217
-0.0863349
-0.0864706
-0.091629
-0.0967873
-0.101923
-0.107036
-0.112217
-0.117443
-0.127738
-0.143032
-0.153326
-0.16362
-0.168937
-0.174253
-0.169548
-0.174864
-0.180158
-0.17543
-0.175679
-0.180905
-0.186109
-0.196199
-0.201063
-0.205611
-0.199819
-0.203733
-0.192421
-0.185905
-0.179276
-0.172579
-0.160815
-0.148914
-0.14681
-0.144412
-0.131674
-0.118778
-0.100701
-0.0825792
-0.0744118
-0.0611991
-0.0480091
-0.0448869
-0.0419004
-0.0390045
-0.0263574
-0.0190949
-0.0073981
0.00364261
0.0141856
0.0243892
0.0293892
0.0292082
0.0388915
0.0484843
0.0529865
0.0574662
0.0619684
0.0564481
0.0508824
0.0552942
0.064706
0.0641177
0.0635295
0.062896
0.0622852
0.0616969
0.0611087
0.0605431
0.0600001
0.0695249
0.0790725
0.0835973
0.0830996
0.0826471
0.0821719
0.0817195
0.0862443
0.0907918
0.090362
0.0849321
0.079457
0.0790045
0.0785747
0.0781448
0.072647
0.0721493
0.0666289
0.0661085
0.0555429
0.055
0.0494344
0.0488914
0.0483484
0.0427601
0.0521945
0.0516742
0.0511991
0.0406787
0.035181
0.0347511
0.0343212
0.0289592
0.0286425
0.0283484
0.0280769
0.0278054
0.0225339
0.022285
0.0271267
0.0319683
0.0268099
0.0266516
0.0265384
0.0214253
0.0212896
0.0211764
0.0310407
0.035905
0.0457466
0.045543
0.0402715
0.0349547
0.0345701
0.0341629
0.028733
0.0283032
0.0278281
0.0222851
0.0217421
0.0261765
0.0305656
0.0299095
0.0241855
0.0184389
0.0176471
0.0168552
0.0110181
0.0102263
0.00943442
0.00864255
0.00282808
-0.00298641
-0.00384614
-0.0148869
-0.0211991
-0.022828
-0.0246606
-0.0216516
-0.0237104
-0.0208371
-0.0229412
-0.0150226
-0.0172172
-0.0195249
-0.0270588
-0.0247285
-0.0226244
-0.0156561
-0.0138235
-0.0170588
-0.0202489
-0.0234615
-0.0216063
-0.0246606
-0.0225113
-0.0351584
-0.0475113
-0.0493665
-0.0406561
-0.0413575
-0.0416063
-0.0415837
-0.0414027
-0.0411312
-0.0458145
-0.0504751
-0.0450905
-0.0446833
-0.044276
-0.0538462
-0.0533484
-0.0527828
-0.0521946
-0.0565611
-0.055905
-0.0602263
-0.0545475
-0.0538235
-0.0580543
-0.0572625
-0.0514706
-0.0557014
-0.0549321
-0.0541403
-0.0433258
-0.0425339
-0.0367195
-0.0309276
-0.0201584
-0.0144344
-0.00873304
-0.00807693
-0.00242082
0.00321266
-0.00124435
-0.00567874
-0.0101131
-0.00957014
-0.0141177
-0.0186878
-0.0182805
-0.0279186
-0.0375792
-0.0422624
-0.0469457
-0.046629
-0.0513348
-0.051086
-0.0608597
-0.0655882
-0.0702941
-0.0800226
-0.0897738
-0.0945249
-0.0942987
-0.104072
-0.103846
-0.108552
-0.108213
-0.107805
-0.107398
-0.106968
-0.101538
-0.101086
-0.100656
-0.0952489
-0.089819
-0.0793891
-0.0739367
-0.0684615
-0.0629412
-0.0573982
-0.0518326
-0.0513122
-0.0458145
-0.0402715
-0.0347059
-0.0341176
-0.0285068
-0.0228733
-0.0122398
-0.00158371
0.0190498
0.0597059
0.120339
0.200928
0.256516
0.307127
0.337783
0.358439
0.364095
0.369751
0.395475
0.421199
0.471878
0.512511
0.568122
0.608756
0.649457
0.675181
0.675882
0.686584
0.67224
0.662828
0.628371
0.588869
0.529276
0.42457
0.294819
0.160091
0.065362
0.0156109
-0.0191855
-0.0390272
-0.0488914
-0.0538462
-0.0638914
-0.0689593
-0.0690498
-0.0741629
-0.0793439
-0.0845475
-0.0847511
-0.095
-0.100249
-0.10552
-0.105814
-0.111109
-0.116403
-0.121742
-0.127081
-0.127376
-0.127692
-0.133009
-0.138348
-0.138643
-0.143891
-0.144095
-0.139276
-0.139389
-0.134434
-0.129434
-0.129412
-0.124344
-0.109253
-0.104163
-0.104095
-0.0990724
-0.0890498
-0.0890724
-0.0841403
-0.0742082
-0.0743213
-0.069457
-0.0696154
-0.0697964
-0.0649774
-0.060181
-0.0553846
-0.0606335
-0.060905
-0.0611991
-0.0565385
-0.0569004
-0.0573077
-0.0577149
-0.0581674
-0.0636199
-0.069095
-0.0745475
-0.0749774
-0.0854072
-0.0908597
-0.0962896
-0.0916968
-0.0921041
-0.0974887
-0.0978507
-0.10819
-0.113507
-0.118778
-0.119027
-0.124231
-0.119389
-0.119548
-0.129683
-0.134796
-0.144864
-0.149932
-0.154955
-0.154955
-0.164932
-0.164842
-0.169661
-0.174299
-0.168665
-0.16767
-0.171425
-0.175
-0.173439
-0.166765
-0.165023
-0.168281
-0.166471
-0.15457
-0.147443
-0.135113
-0.132534
-0.134774
-0.131833
-0.123778
-0.120724
-0.107602
-0.0845475
-0.0715385
-0.0536878
-0.0410181
-0.0236199
-0.0116742
-0.00529404
-0.00452481
0.00081455
0.0109729
0.0209729
0.0258824
0.0407467
0.0555883
0.0654073
0.0701811
0.0749774
0.0797286
0.0844344
0.0840951
0.0937104
0.0882353
0.0927376
0.0921946
0.0966743
0.0961313
0.100543
0.0999095
0.0942534
0.0935973
0.0929638
0.0973077
0.096629
0.0859729
0.0802941
0.0795928
0.073914
0.0632353
0.0576244
0.0520588
0.0465158
0.0459955
0.0405203
0.0401131
0.0447059
0.0443439
0.0490045
0.0537104
0.0534615
0.0532579
0.0480543
0.0478733
0.0476923
0.0475339
0.0473982
0.0473077
0.0472624
0.0472172
0.0471493
0.0470814
0.0420362
0.0469909
0.046923
0.0468099
0.0466968
0.0465384
0.0413348
0.0360859
0.0358597
0.0406108
0.040362
0.0351131
0.0348869
0.0346833
0.034457
0.0392534
0.0390271
0.0338235
0.0336425
0.0284389
0.02319
0.0229864
0.0227828
0.0225339
0.0172624
0.0169683
0.0116742
0.0113574
0.0160633
0.0107466
0.0104072
0.0100226
0.00961537
0.00920812
0.00880089
0.0183484
0.0178733
0.0123982
0.00194568
0.00644795
0.0158823
0.0202489
0.0195927
0.0138914
0.0131448
0.0122172
0.0109955
0.009457
0.00764704
0.000610843
-0.00156111
-0.0037783
-0.00601812
-0.00816745
-0.010362
-0.0176018
-0.0250226
-0.0276697
-0.0304977
-0.0434615
-0.046448
-0.0495023
-0.052534
-0.055543
-0.0633937
-0.0611539
-0.0687557
-0.0661312
-0.0631222
-0.0595928
-0.0504751
-0.0408145
-0.0407919
-0.0354751
-0.0399774
-0.0393665
-0.0337104
-0.0279864
-0.0272625
-0.0265385
-0.0307919
-0.0300453
-0.029276
-0.0335068
-0.0327828
-0.0271041
-0.0264254
-0.0257692
-0.035181
-0.0396154
-0.0440498
-0.0435068
-0.0379864
-0.0475113
-0.0470362
-0.0514932
-0.0459729
-0.0554299
-0.0598416
-0.0592534
-0.0586652
-0.0580996
-0.0575339
-0.0619683
-0.0614254
-0.065905
-0.070362
-0.074819
-0.0692987
-0.0687783
-0.0682579
-0.0677602
-0.0622625
-0.0517873
-0.0513349
-0.0458824
-0.0404299
-0.0350226
-0.039638
-0.0442534
-0.0488688
-0.0535294
-0.0532353
-0.0579638
-0.0577149
-0.0625113
-0.0673077
-0.0771041
-0.0868778
-0.081629
-0.0764027
-0.0811765
-0.0809276
-0.0806787
-0.0804299
-0.0851584
-0.089819
-0.0894796
-0.0941176
-0.098733
-0.0933258
-0.0878959
-0.0874208
-0.0819231
-0.0814027
-0.0758145
-0.0751584
-0.0744797
-0.0738009
-0.0631222
-0.0523756
-0.0365611
-0.0206787
-0.00479639
0.016086
0.0569457
0.117828
0.188688
0.254548
0.305362
0.346086
0.376765
0.392398
0.388032
0.408597
0.43414
0.484638
0.540091
0.580543
0.61595
0.631312
0.656606
0.656878
0.667104
0.64733
0.637511
0.60767
0.562783
0.482896
0.373009
0.2431
0.133213
0.0483258
-0.0115837
-0.0514932
-0.0714706
-0.081448
-0.0913801
-0.0912896
-0.0962217
-0.101154
-0.101109
-0.101063
-0.101063
-0.101109
-0.0961539
-0.0961539
-0.0961765
-0.0912217
-0.0913348
-0.096448
-0.0966063
-0.0918326
-0.0870588
-0.0873529
-0.0976471
-0.0929638
-0.0932353
-0.098552
-0.098914
-0.0992534
-0.0995928
-0.0999095
-0.100204
-0.0955204
-0.0908371
-0.0961765
-0.0965158
-0.0919005
-0.0922851
-0.0926697
-0.0930317
-0.0883711
-0.0836652
-0.0788914
-0.079095
-0.079276
-0.0744118
-0.0745023
-0.0745928
-0.0696833
-0.0597738
-0.0549095
-0.0500226
-0.0451357
-0.0352489
-0.0304072
-0.0306108
-0.0408371
-0.0461086
-0.0463348
-0.0515611
-0.0568326
-0.0571267
-0.0574208
-0.0677375
-0.0830769
-0.0884389
-0.0938462
-0.0942986
-0.104796
-0.110249
-0.120701
-0.126131
-0.131538
-0.1469
-0.152217
-0.157534
-0.162873
-0.17319
-0.183439
-0.188643
-0.198778
-0.198846
-0.203801
-0.198665
-0.203348
-0.197738
-0.196787
-0.185475
-0.168937
-0.15724
-0.145407
-0.143507
-0.126629
-0.119661
-0.112579
-0.105271
-0.102738
-0.0900452
-0.0872172
-0.0693213
-0.0613348
-0.0483937
-0.0454525
-0.0375792
-0.0247738
-0.0171493
-0.00977373
-0.00276016
0.00877829
0.0147059
0.0251358
0.0302036
0.0350226
0.0446606
0.0442082
0.0387331
0.0382127
0.0426923
0.0421493
0.0416064
0.0410634
0.0505204
0.0549774
0.054457
0.0490045
0.0535747
0.0581674
0.0628055
0.0574661
0.0621267
0.0767873
0.081448
0.0861312
0.0858371
0.0854751
0.0801358
0.0797964
0.0844344
0.0790498
0.0786425
0.0732127
0.0677602
0.0672624
0.0667647
0.0662896
0.0607919
0.0652715
0.0697511
0.0692534
0.0637557
0.0582579
0.0527828
0.0473529
0.041991
0.041629
0.0362443
0.0308823
0.0255203
0.020181
0.0148642
0.0195928
0.0143213
0.00911764
0.00895926
0.0138688
0.0188009
0.0137556
0.0136878
0.00859727
0.0135294
0.0184615
0.0233936
0.0233258
0.0282805
0.0282127
0.0280995
0.0379638
0.0427828
0.0475792
0.0423303
0.0470362
0.0416742
0.0412896
0.0308597
0.0253393
0.0247737
0.0291855
0.0235973
0.0179864
0.0173303
0.0166516
0.0158823
0.00513572
0.00434388
0.00357465
-0.0022172
-0.00798643
-0.0237556
-0.0245249
-0.0202488
-0.0209728
-0.0217873
-0.0228054
-0.0240497
-0.0255656
-0.027285
-0.0241855
-0.0211991
-0.0182127
-0.0202489
-0.0172851
-0.00945701
-0.00180994
-0.009457
-0.0073303
-0.000384603
0.00644798
0.00319006
-0.00509049
-0.00334841
-0.00658371
-0.0146833
-0.0226697
-0.0254072
-0.0278281
-0.0347285
-0.036086
-0.0369005
-0.0372851
-0.0424434
-0.0424434
-0.0423529
-0.042172
-0.0469231
-0.0566516
-0.0613801
-0.066086
-0.070724
-0.0752941
-0.0798643
-0.0793891
-0.0738235
-0.0731674
-0.0774661
-0.0717195
-0.0709729
-0.0702489
-0.0695249
-0.0638009
-0.0580996
-0.0524208
-0.0467421
-0.0361086
-0.0304977
-0.0298869
-0.0292986
-0.0237557
-0.0182127
-0.0226697
-0.022172
-0.0216968
-0.0212444
-0.0258371
-0.0354525
-0.0351131
-0.0297964
-0.0295475
-0.0293213
-0.0341403
-0.0340272
-0.0339593
-0.0288462
-0.0387783
-0.0437783
-0.0488235
-0.0488462
-0.0538462
-0.0588688
-0.058914
-0.0639819
-0.0689819
-0.0739367
-0.0738688
-0.0788235
-0.083733
-0.0886199
-0.0884842
-0.0832805
-0.0780543
-0.0777828
-0.0725113
-0.0672398
-0.066991
-0.0617421
-0.0565158
-0.0513122
-0.0510634
-0.0557919
-0.0604977
-0.0602262
-0.0599321
-0.0496154
-0.0542308
-0.0488688
-0.0484842
-0.0480769
-0.0476697
-0.0472624
-0.0369004
-0.0315158
-0.0211086
0.00929865
0.0547285
0.120181
0.185633
0.236086
0.281538
0.307014
0.317511
0.323032
0.338529
0.374005
0.424502
0.490023
0.545498
0.59595
0.626403
0.651855
0.662262
0.667602
0.667919
0.648213
0.628439
0.578597
0.518688
0.403733
0.27871
0.15862
0.0684842
0.0183032
-0.0169683
-0.0372851
-0.0476244
-0.0579638
-0.0633484
-0.0687783
-0.0692534
-0.0797964
-0.090362
-0.0959729
-0.101629
-0.107308
-0.122964
-0.128597
-0.139276
-0.13991
-0.140543
-0.141154
-0.136742
-0.137285
-0.132783
-0.138258
-0.133665
-0.129027
-0.129367
-0.124706
-0.120068
-0.115385
-0.110679
-0.100995
-0.10129
-0.101538
-0.0967873
-0.0970588
-0.0923756
-0.0876923
-0.0779864
-0.0783258
-0.0736652
-0.0640271
-0.0594118
-0.064819
-0.060181
-0.0505882
-0.0409955
-0.041448
-0.0419004
-0.0423529
-0.0378281
-0.0383032
-0.0488009
-0.0542986
-0.054819
-0.050362
-0.0559276
-0.0615385
-0.067172
-0.0727828
-0.0733484
-0.0788688
-0.0843891
-0.0798416
-0.0802489
-0.0806335
-0.0859729
-0.086267
-0.0965385
-0.0967873
-0.107059
-0.107376
-0.112692
-0.118009
-0.133258
-0.138507
-0.143756
-0.14905
-0.154412
-0.159796
-0.165181
-0.170543
-0.170882
-0.171154
-0.176267
-0.181199
-0.180837
-0.180204
-0.179367
-0.178326
-0.177195
-0.176018
-0.169796
-0.158484
-0.152014
-0.145339
-0.138348
-0.126131
-0.113643
-0.100973
-0.0881674
-0.0752941
-0.0623982
-0.0545023
-0.0416742
-0.0289367
-0.0114027
0.00085973
0.0126018
0.0288009
0.039457
0.0497059
0.0647285
0.0746154
0.0794344
0.0792308
0.0839593
0.0836425
0.0883032
0.0979412
0.0975113
0.101991
0.106403
0.110747
0.110045
0.104253
0.108439
0.102579
0.101719
0.0958371
0.0899548
0.0841403
0.0783484
0.0775792
0.0667873
0.0660407
0.0653394
0.0646154
0.0689593
0.0633484
0.0627602
0.0621946
0.0566742
0.0461538
0.0456561
0.0452262
0.0447964
0.0444118
0.0440271
0.0536652
0.0532805
0.0529638
0.0577149
0.0624661
0.0571719
0.0569004
0.0516968
0.0565158
0.0563122
0.051086
0.0508823
0.050724
0.0505656
0.045362
0.0451357
0.0499321
0.0497738
0.0545701
0.0543439
0.0491176
