ekg
0
0.00166667
0.00900003
0.0157143
0.0211111
0.0336363
0.0365385
0.0436667
0.0485294
0.05
0.0483333
0.0480435
0.048
0.0433333
0.0391379
0.0356452
0.0374242
0.0342857
0.0362162
0.0280769
0.025
0.0173256
0.0205556
0.0252128
0.0260204
0.0326471
0.035283
0.0442727
0.0442983
0.0499153
0.0562295
0.0635714
0.0766154
0.0851492
0.0992029
0.108592
0.123288
0.138333
0.148701
0.16462
0.176358
0.188916
0.196824
0.204885
0.202978
0.201099
0.199194
0.197316
0.200515
0.198636
0.206733
0.199806
0.197762
0.185607
0.178211
0.170496
0.167168
0.167478
0.156752
0.155882
0.141033
0.134106
0.12616
0.12626
0.138295
0.140992
0.148722
0.151222
0.158102
0.163885
0.167943
0.16986
0.169655
0.167823
0.159732
0.155762
0.151242
0.141355
0.121146
0.100692
0.0900311
0.0642025
0.0481818
0.037006
0.0305917
0.0239766
0.0121676
0.0101143
0.00279661
-0.00474861
-0.00756906
-0.0155738
-0.0187838
-0.0270321
-0.0351852
-0.0432461
-0.0512176
-0.0540769
-0.0567513
-0.0642211
-0.0665423
-0.0737438
-0.0758049
-0.0776087
-0.0792823
-0.0808057
-0.0821362
-0.0783721
-0.0744701
-0.070411
-0.0611538
-0.0535746
-0.0255882
0.0127828
0.0514932
0.0804977
0.0997511
0.104186
0.0938009
0.0635521
0.0134163
-0.0816289
-0.201584
-0.336425
-0.456222
-0.56095
-0.645633
-0.720226
-0.774729
-0.804163
-0.823575
-0.832919
-0.84724
-0.846493
-0.850679
-0.834774
-0.823778
-0.792738
-0.756629
-0.700498
-0.644344
-0.573145
-0.496923
-0.425633
-0.359344
-0.308054
-0.251855
-0.210724
-0.169683
-0.13871
-0.112715
-0.0916968
-0.075543
-0.0592308
-0.0476244
-0.0305882
-0.0180317
-0.005
0.00848416
0.0223529
0.0315385
0.0460181
0.0556335
0.0703394
0.0850453
0.0947738
0.109434
0.124095
0.14371
0.158235
0.167647
0.181833
0.200792
0.214434
0.23276
0.250747
0.263416
0.280792
0.292896
0.314751
0.326403
0.337896
0.354253
0.365475
0.381606
0.382624
0.388552
0.384434
0.385226
0.385882
0.381403
0.386833
0.377104
0.382262
0.372353
0.367353
0.362308
0.352172
0.346991
0.341742
0.336425
0.331063
0.330633
0.325158
0.314593
0.298959
0.293258
0.287489
0.281652
0.275769
0.264819
0.253824
0.247738
0.241606
0.24043
0.229163
0.222873
0.211561
0.205294
0.194027
0.177783
0.166584
0.14543
0.124434
0.103597
0.0829638
0.0724887
0.0621493
0.0518552
0.0465611
0.0411538
0.0354977
0.029457
0.0178733
0.0157013
0.00803165
0.0049321
-0.00348419
-0.0172172
-0.0211765
-0.0252489
-0.0343891
-0.0385747
-0.0427828
-0.0469683
-0.0611764
-0.0702941
-0.0743665
-0.0782579
-0.0819683
-0.0804072
-0.083552
-0.0813348
-0.0837104
-0.0757014
-0.0623303
-0.0336425
-0.00466063
0.0295475
0.0539819
0.0635747
0.0683032
0.0481674
0.0181222
-0.0418326
-0.141719
-0.261538
-0.371312
-0.476018
-0.560633
-0.635204
-0.694729
-0.734208
-0.758643
-0.773032
-0.787353
-0.781629
-0.785882
-0.775045
-0.76414
-0.73819
-0.702217
-0.661222
-0.605181
-0.544118
-0.467986
-0.40681
-0.345656
-0.294548
-0.243552
-0.202579
-0.171629
-0.145679
-0.119638
-0.103484
-0.0871267
-0.0705204
-0.0634842
-0.0509728
-0.0380317
-0.0247285
-0.0111086
0.00282807
0.0169231
0.0261991
0.0454978
0.0548416
0.0691629
0.0834842
0.0977602
0.111991
0.126131
0.140136
0.153982
0.172602
0.18595
0.198959
0.211674
0.229095
0.241267
0.25319
0.26491
0.281448
0.292851
0.30414
0.325362
0.331493
0.337579
0.333552
0.339434
0.340204
0.340837
0.34138
0.33681
0.342127
0.337308
0.332353
0.322308
0.317172
0.306946
0.301674
0.306357
0.29595
0.295498
0.289955
0.279344
0.268688
0.252964
0.247195
0.241335
0.23543
0.229457
0.228416
0.217308
0.211131
0.209932
0.203643
0.202308
0.190928
0.184548
0.178145
0.166787
0.155452
0.13914
0.122828
0.106561
0.0853846
0.0743665
0.0635068
0.0528281
0.0473077
0.0418552
0.0314253
0.0259502
0.020362
0.0145701
0.013371
0.0116516
0.004457
-0.00821267
-0.0112443
-0.0195928
-0.0231674
-0.0319231
-0.0357919
-0.0447285
-0.0537104
-0.0526244
-0.0665611
-0.0704072
-0.0741855
-0.0777828
-0.0761765
-0.0743213
-0.072172
-0.0747059
-0.0718326
-0.0586425
-0.0351357
-0.00138008
0.0226244
0.0368326
0.0461765
0.0406561
0.0252489
-0.00506787
-0.0603167
-0.150475
-0.260588
-0.355656
-0.435679
-0.510656
-0.575588
-0.620475
-0.655317
-0.670136
-0.68491
-0.684638
-0.694321
-0.688959
-0.683552
-0.6681
-0.642624
-0.607127
-0.561606
-0.511018
-0.450385
-0.389751
-0.329163
-0.27862
-0.228145
-0.192738
-0.162285
-0.136742
-0.116086
-0.100294
-0.0892308
-0.0828507
-0.0659955
-0.0486878
-0.0309502
-0.0128959
0.000452474
0.00902714
0.0177602
0.0316516
0.0456109
0.0595928
0.0735294
0.0874887
0.0963801
0.105226
0.123982
0.132579
0.146018
0.164231
0.172149
0.189706
0.1969
0.208801
0.220475
0.236923
0.24819
0.264321
0.280294
0.286154
0.296923
0.302602
0.313213
0.313733
0.319186
0.31457
0.309864
0.310068
0.310158
0.310136
0.304977
0.299661
0.294276
0.288824
0.278281
0.27267
0.272014
0.261267
0.255453
0.239548
0.228575
0.222534
0.216425
0.215272
0.209027
0.202738
0.191358
0.18991
0.188394
0.186855
0.180272
0.16862
0.166991
0.155294
0.14862
0.131923
0.120249
0.103575
0.0919457
0.080362
0.0637783
0.0522624
0.0408371
0.0345475
0.0284163
0.0224434
0.0215837
0.0157919
0.0150226
0.00918553
0.0082353
0.00203621
-0.00452488
-0.00653847
-0.00895928
-0.0117195
-0.014819
-0.0181674
-0.0217195
-0.0254073
-0.0241855
-0.0330091
-0.03681
-0.0406561
-0.0444118
-0.0481222
-0.0467195
-0.0451584
-0.0433937
-0.0463801
-0.049095
-0.041448
-0.0234842
-0.000203617
0.0233484
0.0471493
0.0461086
0.0402262
0.024457
0.00375565
-0.0368552
-0.102398
-0.202896
-0.308303
-0.39862
-0.468891
-0.534118
-0.584299
-0.624434
-0.654548
-0.674593
-0.684593
-0.684548
-0.69448
-0.689389
-0.684299
-0.659208
-0.634072
-0.598914
-0.55371
-0.498439
-0.428167
-0.362873
-0.302647
-0.257511
-0.212443
-0.177398
-0.147353
-0.12224
-0.102014
-0.0816968
-0.0661312
-0.0502036
-0.0388009
-0.0269457
-0.0146606
-0.00203619
0.0108824
0.0240498
0.0374434
0.0559729
0.0745701
0.0831901
0.0918326
0.105498
0.119118
0.127738
0.14129
0.154706
0.172964
0.185995
0.203756
0.221222
0.228394
0.240294
0.251923
0.268326
0.284502
0.295498
0.301403
0.307195
0.317873
0.318416
0.323891
0.319253
0.324548
0.319751
0.324842
0.319842
0.314751
0.31457
0.304253
0.298846
0.293326
0.292738
0.282104
0.271403
0.265679
0.254887
0.254072
0.248145
0.247149
0.236086
0.224955
0.218778
0.212557
0.211312
0.2
0.198643
0.192217
0.195724
0.189208
0.182624
0.181018
0.164367
0.157715
0.146041
0.134412
0.122805
0.111244
0.0996833
0.0781448
0.0666742
0.0552941
0.0440498
0.0379185
0.0369457
0.0310181
0.0300905
0.0341176
0.0280543
0.0218552
0.015362
0.00846153
0.00108597
0.00334841
0.00531675
0.00199096
-0.00653846
-0.0102262
-0.0190045
-0.0228733
-0.0267647
-0.0256561
-0.0245701
-0.0234389
-0.0222625
-0.0209276
-0.024457
-0.0277828
-0.0308824
-0.0286652
-0.021086
-0.00314481
0.0251584
0.048733
0.0675792
0.076629
0.0758371
0.065181
0.0496154
0.00418552
-0.0711765
-0.166448
-0.266652
-0.356787
-0.436878
-0.506923
-0.5619
-0.611833
-0.641697
-0.661493
-0.671199
-0.68086
-0.690498
-0.690091
-0.694638
-0.679163
-0.658643
-0.628077
-0.592443
-0.541765
-0.481041
-0.420317
-0.359615
-0.303982
-0.258439
-0.217986
-0.177579
-0.157195
-0.131787
-0.111335
-0.090724
-0.0749095
-0.0586652
-0.0469005
-0.0395702
-0.0217647
-0.0135294
2.26051e-05
0.0138688
0.0328959
0.0470136
0.0661991
0.0804072
0.0896832
0.103914
0.113145
0.127285
0.13629
0.160158
0.178824
0.192285
0.205498
0.218371
0.230905
0.238122
0.255091
0.266833
0.283394
0.299796
0.311086
0.322262
0.328326
0.339299
0.340136
0.345905
0.341561
0.342127
0.337624
0.338032
0.333371
0.328575
0.328688
0.32371
0.32362
0.313484
0.303303
0.298077
0.292805
0.292534
0.282172
0.281719
0.271199
0.270611
0.259955
0.254276
0.253597
0.247851
0.242036
0.231131
0.230158
0.224118
0.223032
0.216923
0.210769
0.204615
0.193416
0.187217
0.175995
0.169774
0.153575
0.142398
0.12629
0.105249
0.0893665
0.0735747
0.0629186
0.0573077
0.0517195
0.0511312
0.0404751
0.0396606
0.0335068
0.0269683
0.02
0.0176923
0.0150679
0.00717194
0.0040724
-0.00425339
-0.00766968
-0.0161538
-0.024638
-0.0281448
-0.0316968
-0.0352263
-0.0387783
-0.0421946
-0.0454525
-0.0485294
-0.0514027
-0.0489819
-0.0362217
-0.0281448
-0.00468327
0.024095
0.0581448
0.0824434
0.0969231
0.0965158
0.091267
0.0661086
0.0210633
-0.0688914
-0.188733
-0.308529
-0.418303
-0.508009
-0.58267
-0.652308
-0.691855
-0.721312
-0.740724
-0.750023
-0.764253
-0.763484
-0.772692
-0.756855
-0.735973
-0.705068
-0.664072
-0.618009
-0.5719
-0.505792
-0.434661
-0.368552
-0.312511
-0.271516
-0.230656
-0.199842
-0.169027
-0.148213
-0.127308
-0.10629
-0.0900226
-0.0783937
-0.061267
-0.0486199
-0.0404751
-0.0269231
-0.0179864
-0.00377828
0.0106787
0.0253168
0.0450226
0.054819
0.0696154
0.079457
0.094276
0.104095
0.123824
0.143416
0.157873
0.172104
0.186109
0.199774
0.208145
0.226199
0.238982
0.261493
0.273733
0.290792
0.302692
0.31448
0.331131
0.337647
0.354072
0.360385
0.366584
0.367715
0.363778
0.364751
0.360634
0.36638
0.361991
0.367489
0.357873
0.358167
0.353416
0.34362
0.343778
0.333869
0.333914
0.323846
0.318688
0.303462
0.293167
0.282851
0.272466
0.272059
0.261538
0.255928
0.245249
0.23948
0.238643
0.232738
0.23181
0.215815
0.199774
0.188688
0.177579
0.161448
0.145339
0.134299
0.108303
0.0924435
0.0766969
0.0611312
0.0606788
0.0553168
0.045
0.0446833
0.0393213
0.0337783
0.0228733
0.0214254
0.0194797
0.0170362
0.00923079
0.0111539
-0.00221715
-0.010724
-0.0143439
-0.028009
-0.0366742
-0.0353846
-0.0340498
-0.0427602
-0.0463801
-0.0499095
-0.0532579
-0.0564027
-0.059276
-0.0519231
-0.0492534
-0.0362217
-0.017828
0.00588237
0.0448643
0.069095
0.0835294
0.0931674
0.0829412
0.0628281
0.0178507
-0.0620362
-0.166878
-0.286652
-0.396357
-0.490995
-0.575611
-0.640181
-0.699706
-0.739186
-0.758597
-0.777941
-0.78724
-0.806493
-0.805701
-0.809864
-0.789005
-0.768077
-0.737104
-0.696086
-0.645023
-0.578937
-0.517851
-0.446742
-0.390588
-0.334434
-0.283258
-0.242127
-0.211086
-0.185158
-0.159321
-0.133484
-0.117624
-0.101652
-0.0805204
-0.0741855
-0.0623982
-0.0550905
-0.0422172
-0.0238461
-0.0100679
0.00404979
0.0185068
0.0331448
0.0429864
0.0528733
0.0678054
0.0777376
0.0926244
0.117511
0.137285
0.151991
0.171448
0.180701
0.194615
0.20319
0.226403
0.249253
0.26181
0.279095
0.296154
0.313032
0.319751
0.336312
0.347692
0.358937
0.365045
0.371041
0.371923
0.372692
0.373394
0.368914
0.374321
0.369593
0.369729
0.364842
0.354887
0.349864
0.334796
0.329661
0.319434
0.319095
0.30871
0.308281
0.297805
0.282217
0.276606
0.26586
0.260023
0.249118
0.2381
0.232014
0.220882
0.219729
0.213484
0.212217
0.200882
0.194525
0.178145
0.171765
0.165453
0.15414
0.137941
0.12181
0.100814
0.085
0.0693213
0.0537331
0.0431901
0.0376471
0.0270362
0.021267
0.0201358
0.018552
0.011448
-0.00108599
0.00101808
-0.00721721
-0.0107014
-0.0144344
-0.0233032
-0.0272399
-0.0362444
-0.0402715
-0.0493892
-0.0534842
-0.0576018
-0.0615837
-0.0604072
-0.0640497
-0.0674887
-0.0656787
-0.0585294
-0.0610633
-0.0581674
-0.0499547
-0.0364027
-0.0175565
0.0165385
0.0508145
0.0802263
0.0947964
0.0945023
0.084276
0.0541177
0.0140724
-0.0859276
-0.20586
-0.330769
-0.445633
-0.53043
-0.610181
-0.679864
-0.729502
-0.774095
-0.788643
-0.80819
-0.80767
-0.807127
-0.806539
-0.79086
-0.780136
-0.739367
-0.703529
-0.63767
-0.571765
-0.490882
-0.419955
-0.359027
-0.308167
-0.262353
-0.221629
-0.19095
-0.155317
-0.129638
-0.113846
-0.0929185
-0.0767647
-0.0652262
-0.0531674
-0.0454977
-0.027285
-0.0136425
0.00540726
0.0247285
0.0343213
0.0490498
0.0588915
0.0737557
0.0885973
0.108416
0.128167
0.142919
0.157557
0.172149
0.196516
0.210656
0.23448
0.252941
0.270996
0.288665
0.300996
0.318032
0.329796
0.346358
0.352738
0.368982
0.375045
0.380973
0.381787
0.377511
0.383145
0.373665
0.37905
0.374321
0.374412
0.369412
0.364299
0.364095
0.353778
0.348394
0.337896
0.337308
0.331652
0.32595
0.310181
0.294299
0.283394
0.272398
0.266335
0.255204
0.248959
0.24267
0.236267
0.234796
0.228213
0.226606
0.214932
0.198213
0.186493
0.179751
0.173009
0.161267
0.149615
0.122964
0.106358
0.0847964
0.0683032
0.0519458
0.0407693
0.0348191
0.0240272
0.0183711
0.0177376
0.0171041
0.0113349
0.0054073
-0.000927545
-0.00276012
-0.00511306
-0.00796374
-0.0111312
-0.0196153
-0.023371
-0.0273529
-0.0365158
-0.0357466
-0.0450679
-0.0493665
-0.0536426
-0.0578733
-0.0569909
-0.0610407
-0.0648642
-0.0684615
-0.0716742
-0.0645023
-0.0568778
-0.0388914
-0.0155656
0.00803168
0.0418552
0.0658597
0.0799774
0.084276
0.0686878
0.0482127
0.0028733
-0.0773756
-0.192602
-0.327805
-0.447919
-0.547941
-0.632896
-0.697783
-0.757602
-0.792398
-0.827149
-0.836878
-0.846538
-0.846177
-0.840747
-0.840272
-0.824751
-0.814186
-0.773597
-0.737964
-0.67233
-0.601674
-0.516041
-0.440498
-0.375045
-0.314683
-0.264344
-0.218982
-0.183507
-0.152873
-0.121923
-0.0954977
-0.0834615
-0.0658371
-0.0476923
-0.0291403
-0.0102489
0.00395929
0.0283484
0.0378959
0.0524887
0.0621946
0.0819005
0.0966064
0.116267
0.13586
0.15543
0.169842
0.184118
0.203054
0.216674
0.234864
0.25267
0.270113
0.292217
0.304027
0.325611
0.342014
0.363258
0.369321
0.385249
0.396041
0.401674
0.407195
0.407602
0.412919
0.403145
0.403303
0.398281
0.398122
0.397805
0.387353
0.381787
0.366131
0.360407
0.34457
0.338643
0.327647
0.326584
0.320475
0.309208
0.297873
0.286471
0.280045
0.263529
0.251923
0.240226
0.238439
0.231584
0.229638
0.22767
0.220588
0.213484
0.20129
0.189072
0.181855
0.169638
0.152466
0.130294
0.108167
0.086086
0.0740724
0.057172
0.0454073
0.0388009
0.0373982
0.0411765
0.0350679
0.0340272
0.0229186
0.0117421
0.00538464
0.00868781
0.0115385
-0.00617643
-0.0143665
-0.0229638
-0.0269004
-0.0311312
-0.0356108
-0.0402036
-0.0449321
-0.0547059
-0.0545023
-0.0592534
-0.0589593
-0.0636425
-0.0682353
-0.0677149
-0.0619683
-0.0560181
-0.0446606
-0.0278733
0.00441177
0.0370815
0.0651131
0.0834389
0.0870136
0.0758145
0.0447964
-0.0110634
-0.111765
-0.24233
-0.372851
-0.493281
-0.578643
-0.663937
-0.729163
-0.774344
-0.809412
-0.824434
-0.854412
-0.854367
-0.864253
-0.859095
-0.853869
-0.848552
-0.818145
-0.792715
-0.73224
-0.676742
-0.591199
-0.515611
-0.439955
-0.374299
-0.313643
-0.268122
-0.23267
-0.19733
-0.162014
-0.131697
-0.11129
-0.090724
-0.0749547
-0.0537783
-0.0370136
-0.0245701
-0.0165385
0.00196834
0.0208145
0.04
0.0594118
0.0740272
0.0886878
0.103394
0.1231
0.142738
0.162398
0.181991
0.191561
0.22595
0.240181
0.259118
0.267738
0.290995
0.313801
0.331244
0.353303
0.370091
0.386606
0.397941
0.419072
0.425023
0.445815
0.451425
0.4569
0.457308
0.447602
0.447783
0.437805
0.43767
0.432376
0.426968
0.421448
0.410837
0.400158
0.384434
0.373688
0.362851
0.361946
0.35595
0.349842
0.343665
0.327443
0.316199
0.299796
0.288326
0.276742
0.275068
0.268348
0.256516
0.249638
0.247692
0.240679
0.22862
0.221516
0.214412
0.207285
0.190181
0.178077
0.166063
0.139095
0.112217
0.0854299
0.0738009
0.0573529
0.0510633
0.0449547
0.0388914
0.0328507
0.0266968
0.0202941
0.0134842
0.0111086
0.00319004
-0.000226249
-0.00393666
-0.00800905
-0.0123303
-0.0218552
-0.0315158
-0.0361991
-0.0410181
-0.0458145
-0.0506787
-0.0554751
-0.0652262
-0.0749095
-0.0744344
-0.0788009
-0.0728507
-0.0765837
-0.0748416
-0.0776697
-0.0650453
-0.0470362
-0.00866518
0.0249774
0.0638461
0.0879185
0.0921493
0.0865611
0.061086
0.020724
-0.0645702
-0.194751
-0.339842
-0.479887
-0.584887
-0.664796
-0.739638
-0.789389
-0.844072
-0.85871
-0.883303
-0.887828
-0.887308
-0.89672
-0.891063
-0.885339
-0.849593
-0.823733
-0.767851
-0.706968
-0.631109
-0.545226
-0.474321
-0.398484
-0.337715
-0.282104
-0.241606
-0.196154
-0.160656
-0.130113
-0.0993891
-0.0784389
-0.0670814
-0.0502036
-0.0376923
-0.0196154
-0.00104072
0.0179638
0.0372851
0.0519231
0.0667195
0.0816968
0.0966742
0.111652
0.131606
0.151516
0.166471
0.186312
0.201131
0.220769
0.235158
0.259208
0.272851
0.296131
0.318959
0.331471
0.358665
0.370566
0.387217
0.398688
0.414955
0.426041
0.431968
0.437783
0.433507
0.439118
0.429638
0.430068
0.425339
0.425453
0.425407
0.420272
0.415045
0.394774
0.389434
0.374027
0.368529
0.367964
0.357285
0.351561
0.340769
0.329932
0.309027
0.303077
0.292059
0.29095
0.284774
0.273484
0.272149
0.265747
0.269299
0.257783
0.251199
0.239548
0.232805
0.221086
0.209321
0.192647
0.17095
0.149299
0.122624
0.101041
0.0795702
0.0632806
0.0471946
0.0363122
0.0356335
0.025
0.0193665
0.0136426
0.0127602
0.0065611
-0.000180975
-0.00251129
-0.0104299
-0.0187556
-0.0224208
-0.0314027
-0.0355882
-0.04
-0.044457
-0.0540498
-0.0536426
-0.0582127
-0.0627828
-0.0673077
-0.0717873
-0.0710634
-0.0702036
-0.0590045
-0.0524661
-0.0404751
-0.0280091
-0.000113159
0.0331674
0.0818099
0.120724
0.139842
0.149208
0.143756
0.123484
0.078371
-0.00665163
-0.121606
-0.271493
-0.396335
-0.516109
-0.610769
-0.685339
-0.759819
-0.799231
-0.848597
-0.857896
-0.872172
-0.87638
-0.87552
-0.884593
-0.86362
-0.862579
-0.826516
-0.78543
-0.719276
-0.643077
-0.571855
-0.480588
-0.409321
-0.34319
-0.287149
-0.236244
-0.19543
-0.154593
-0.123688
-0.0926471
-0.0714254
-0.0548417
-0.0427828
-0.0301358
-0.0169231
-0.00316744
0.0109955
0.0256108
0.0405203
0.050724
0.0610407
0.0764253
0.0918326
0.112195
0.127602
0.152964
0.163303
0.183507
0.19362
0.213529
0.228167
0.247534
0.271538
0.285249
0.308552
0.321493
0.33914
0.351561
0.368778
0.385769
0.397579
0.414208
0.415724
0.427081
0.418326
0.424434
0.420407
0.426222
0.421855
0.41733
0.417692
0.407964
0.4031
0.383167
0.378213
0.373167
0.368032
0.362851
0.347602
0.337285
0.321878
0.311425
0.295882
0.290249
0.284548
0.278756
0.272896
0.266946
0.27095
0.264864
0.258756
0.247602
0.241357
0.235068
0.22371
0.217353
0.195995
0.179729
0.153507
0.132353
0.106312
0.0954072
0.0746833
0.0691629
0.0638688
0.0536878
0.0485973
0.0385294
0.0334163
0.0331222
0.0274661
0.0263575
0.0245928
0.0223303
0.00957014
0.00144797
-0.0069457
-0.0156561
-0.0195249
-0.0285973
-0.0276923
-0.0368326
-0.0409728
-0.0450905
-0.0492082
-0.0531901
-0.0521493
-0.045905
-0.054457
-0.0476471
-0.0454073
-0.0377376
-0.0195475
0.0190271
0.0629638
0.102195
0.136697
0.141403
0.141312
0.12138
0.086629
0.011991
-0.0975792
-0.222104
-0.356584
-0.475996
-0.570362
-0.669683
-0.733959
-0.803167
-0.832353
-0.866516
-0.875588
-0.879615
-0.893575
-0.882466
-0.886244
-0.859955
-0.848597
-0.81224
-0.770882
-0.714502
-0.643122
-0.576697
-0.490317
-0.418959
-0.352715
-0.306584
-0.25552
-0.214502
-0.178394
-0.147195
-0.125815
-0.0992082
-0.0821946
-0.064638
-0.0514706
-0.0328281
-0.0137104
0.00570136
0.0154525
0.0254072
0.0455882
0.0558824
0.0661539
0.0814706
0.101742
0.112059
0.132308
0.147489
0.167511
0.182353
0.201946
0.221176
0.240136
0.25871
0.276946
0.299819
0.312421
0.329819
0.341991
0.354005
0.375814
0.387489
0.404027
0.410452
0.416765
0.412941
0.413982
0.414864
0.405611
0.406199
0.401674
0.406991
0.397262
0.392466
0.382602
0.372692
0.362692
0.357624
0.352511
0.337308
0.332059
0.316765
0.306425
0.290973
0.275407
0.269796
0.264072
0.258303
0.252466
0.246606
0.240633
0.23457
0.223462
0.212308
0.206131
0.194955
0.188846
0.172692
0.151606
0.125543
0.0995249
0.0836199
0.0678959
0.0573982
0.0470814
0.0419909
0.0369683
0.0319683
0.0219231
0.0167194
0.0162217
0.0152715
0.0137783
0.00671943
0.00418551
0.00131223
-0.00196832
-0.0105204
-0.0143891
-0.0183484
-0.0324661
-0.0366063
-0.0407466
-0.0499321
-0.0590498
-0.07319
-0.0772172
-0.0761765
-0.0649095
-0.0633937
-0.0515159
-0.0442534
-0.026629
-0.00355204
0.0299095
0.0687104
0.0927149
0.116991
0.111471
0.101154
0.0759955
0.0259276
-0.0540271
-0.183914
-0.31371
-0.423439
-0.523077
-0.592624
-0.672104
-0.716561
-0.775995
-0.805362
-0.819706
-0.834027
-0.828281
-0.842466
-0.831606
-0.830679
-0.804729
-0.778756
-0.73276
-0.666719
-0.610679
-0.529638
-0.458665
-0.382805
-0.327036
-0.276312
-0.230588
-0.199774
-0.163846
-0.137692
-0.111222
-0.0942308
-0.0716742
-0.0585747
-0.0400905
-0.0262217
-0.0121041
0.00228506
0.0218552
0.0415837
0.0514253
0.066267
0.0761312
0.0859502
0.100769
0.115498
0.130204
0.149751
0.16414
0.178326
0.192172
0.210724
0.233824
0.241538
0.263891
0.275995
0.287851
0.299502
0.320973
0.342262
0.353416
0.364389
0.370226
0.375973
0.371629
0.377195
0.372624
0.372896
0.373009
0.367941
0.36776
0.362489
0.362127
0.346674
0.336154
0.330543
0.319819
0.319027
0.308145
0.297262
0.291312
0.280317
0.264208
0.243032
0.23181
0.225498
0.224118
0.21267
0.211177
0.204593
0.197941
0.191222
0.184412
0.182579
0.180634
0.173688
0.156742
0.139887
0.113054
0.0962896
0.0796154
0.0630543
0.0466516
0.0353846
0.0343439
0.023439
0.0176923
0.00696835
0.00119914
0.000362039
-0.000678696
-0.00205878
-0.00900449
-0.0164705
-0.0243891
-0.0326923
-0.0362669
-0.040181
-0.0442534
-0.0485973
-0.0530317
-0.0575339
-0.067104
-0.0716289
-0.0812217
-0.0857918
-0.0853619
-0.0797737
-0.0790271
-0.0780316
-0.0666742
-0.0549774
-0.0278054
0.00972849
0.0476923
0.0659728
0.0795022
0.0682579
0.0521719
0.021267
-0.0395249
-0.140181
-0.260769
-0.376244
-0.466674
-0.552014
-0.607285
-0.677489
-0.717624
-0.757692
-0.777692
-0.78767
-0.797579
-0.797466
-0.80733
-0.797127
-0.796855
-0.766539
-0.746177
-0.705769
-0.645339
-0.589887
-0.504389
-0.433824
-0.358281
-0.307738
-0.257308
-0.217036
-0.181855
-0.146674
-0.121403
-0.0910634
-0.0705656
-0.0547964
-0.0435973
-0.0268326
-0.00945703
0.0083484
0.0215837
0.0401131
0.0539367
0.0629638
0.0771493
0.091448
0.105701
0.125
0.149253
0.158529
0.177738
0.181855
0.200792
0.214525
0.238009
0.256109
0.268824
0.291131
0.303122
0.319842
0.33129
0.342534
0.358575
0.374434
0.390136
0.390679
0.406131
0.406539
0.411855
0.407059
0.407149
0.407104
0.396923
0.391629
0.381222
0.385724
0.375158
0.369548
0.358846
0.3481
0.347263
0.336335
0.330362
0.324344
0.318303
0.302195
0.291018
0.274751
0.263416
0.257059
0.245634
0.244163
0.232625
0.231041
0.229389
0.222625
0.220837
0.223959
0.222082
0.210181
0.198348
0.186539
0.169774
0.148077
0.121448
0.11
0.0887331
0.0726923
0.0667421
0.060905
0.0550679
0.0491856
0.0482127
0.041991
0.040362
0.0331901
0.030543
0.0225113
0.014095
0.00552037
-0.00334841
-0.00735293
-0.0115158
-0.0157466
-0.0250226
-0.0293213
-0.0336199
-0.0429412
-0.0522172
-0.0564932
-0.0555882
-0.0595701
-0.0583484
-0.0568552
-0.0550679
-0.0528507
-0.0452715
-0.0272851
0.00597285
0.0495475
0.0783484
0.0973529
0.0965837
0.0909729
0.0655204
0.0101584
-0.0801357
-0.210385
-0.340543
-0.440634
-0.535634
-0.600566
-0.670407
-0.715181
-0.754932
-0.779615
-0.784231
-0.803801
-0.798303
-0.812715
-0.797082
-0.78638
-0.755679
-0.714932
-0.669163
-0.598326
-0.532443
-0.451516
-0.38552
-0.324525
-0.273575
-0.227715
-0.187014
-0.15138
-0.120792
-0.0901584
-0.0694797
-0.0586426
-0.0426018
-0.0311765
-0.0192986
-0.0118326
0.00608597
0.0194118
0.0330769
0.0420136
0.0512444
0.0655883
0.0800453
0.089457
0.103891
0.123326
0.137738
0.152059
0.161244
0.175272
0.188982
0.207443
0.220543
0.228326
0.245769
0.257896
0.274774
0.286403
0.302896
0.324253
0.330453
0.346561
0.347624
0.358643
0.35457
0.355385
0.351109
0.351742
0.35224
0.342602
0.342919
0.333122
0.333213
0.323258
0.313235
0.308167
0.298032
0.292873
0.282647
0.282376
0.272036
0.266674
0.266244
0.245747
0.240181
0.229525
0.223824
0.2181
0.21733
0.211471
0.210543
0.20457
0.203529
0.202443
0.191358
0.185317
0.179276
0.178235
0.167195
0.156154
0.145181
0.129231
0.118394
0.097715
0.0872625
0.0769684
0.0617421
0.0515838
0.0464028
0.0461539
0.0456561
0.0447964
0.0383711
0.0364028
0.0290272
0.0212444
0.0132127
0.00488692
0.00138013
-0.00730767
-0.0160859
-0.0198642
-0.023733
-0.0275566
-0.0364253
-0.0402036
-0.043914
-0.0424661
-0.0408371
-0.0390045
-0.0367873
-0.0392082
-0.0362217
-0.0278733
-0.00418552
0.0247738
0.0689819
0.0984163
0.123032
0.127828
0.117783
0.0978281
0.0529412
-0.0268778
-0.131629
-0.261335
-0.360995
-0.460588
-0.540113
-0.60957
-0.668982
-0.703371
-0.732715
-0.732014
-0.746267
-0.745475
-0.749593
-0.733688
-0.70776
-0.67681
-0.620815
-0.574796
-0.508733
-0.447624
-0.376493
-0.315362
-0.259253
-0.213235
-0.182285
-0.151403
-0.12052
-0.0996606
-0.0836878
-0.0726471
-0.061448
-0.0450226
-0.03319
-0.0259502
-0.0132353
-0.00513575
-0.00169683
0.00705882
0.0210181
0.0302036
0.0444344
0.053733
0.0679864
0.0772398
0.091448
0.105633
0.119819
0.128846
0.142738
0.156403
0.169774
0.187805
0.20052
0.207941
0.220091
0.237014
0.25371
0.265249
0.276629
0.282896
0.28405
0.280091
0.281041
0.286901
0.292738
0.298484
0.28914
0.294706
0.290204
0.290634
0.28595
0.281177
0.286335
0.271403
0.271403
0.261335
0.261222
0.251063
0.245882
0.235634
0.225362
0.220023
0.209615
0.20414
0.198597
0.198009
0.192376
0.186674
0.185928
0.180113
0.174253
0.168326
0.162353
0.156358
0.155362
0.154389
0.138416
0.122466
0.111516
0.0956109
0.0797286
0.0690046
0.0584163
0.048077
0.0428733
0.0328055
0.0278055
0.0277602
0.0226471
0.022353
0.0166968
0.0155883
0.00891405
0.00685523
-0.000633463
-0.00843889
-0.0165384
-0.0198869
-0.023371
-0.026991
-0.0355656
-0.0392081
-0.0478507
-0.0464932
-0.0450679
-0.0485068
-0.0517873
-0.049819
-0.0476018
-0.0500452
-0.0521719
-0.038914
-0.0252941
0.00861992
0.0327828
0.0621041
0.081629
0.0913122
0.0811086
0.0659955
0.0409276
-0.0140724
-0.104005
-0.198914
-0.303778
-0.388597
-0.473371
-0.543145
-0.597896
-0.647579
-0.66724
-0.691855
-0.686425
-0.69595
-0.69043
-0.694864
-0.694276
-0.668665
-0.643009
-0.59233
-0.546629
-0.475905
-0.415136
-0.354367
-0.298643
-0.247941
-0.202285
-0.166719
-0.136222
-0.110747
-0.0852489
-0.0697285
-0.0541403
-0.0383937
-0.0323756
-0.0209276
-0.00902715
0.00323529
0.00590498
0.0138914
0.0221946
0.0356787
0.0443439
0.0530996
0.0618552
0.0756335
0.0894118
0.103213
0.111946
0.125633
0.13414
0.147511
0.160656
0.173552
0.186154
0.198439
0.205453
0.217172
0.228665
0.244955
0.256063
0.266991
0.27776
0.283416
0.288982
0.289502
0.294955
0.295294
0.29552
0.290656
0.295701
0.285634
0.285498
0.275272
0.274932
0.269525
0.259027
0.258484
0.252896
0.247285
0.246629
0.240905
0.235113
0.219231
0.213303
0.202285
0.196199
0.190068
0.183891
0.182692
0.171425
0.170068
0.168643
0.162127
0.160588
0.15405
0.147511
0.145973
0.134434
0.122919
0.111425
0.0949321
0.0735294
0.0621946
0.0510634
0.0450679
0.0292308
0.0235294
0.0179186
0.0122851
0.0116063
0.00583711
0.00484164
0.00846156
0.00169685
-0.000497717
-0.00800903
-0.0108823
-0.0140498
-0.0224661
-0.0260633
-0.0297285
-0.0385068
-0.0422625
-0.0510634
-0.0547738
-0.0535068
-0.0521946
-0.0607466
-0.0591629
-0.0572851
-0.0551584
-0.0526245
-0.0447738
-0.0316063
-0.0181448
0.00556561
0.0395249
0.0636652
0.0779412
0.0773303
0.0718326
0.0514027
0.0160407
-0.0392534
-0.129502
-0.224706
-0.314864
-0.399955
-0.475045
-0.545113
-0.590158
-0.635158
-0.650113
-0.665045
-0.669955
-0.679819
-0.684638
-0.679434
-0.674231
-0.644005
-0.623756
-0.578462
-0.533167
-0.472896
-0.407692
-0.347557
-0.287511
-0.242489
-0.197421
-0.16224
-0.126946
-0.0964706
-0.0757014
-0.0595249
-0.0478733
-0.0308145
-0.0184389
-0.00581449
0.00703619
0.0150679
0.0283258
0.0366516
0.0500905
0.0684841
0.0819004
0.0952941
0.103665
0.117014
0.120317
0.133529
0.146584
0.164457
0.182059
0.194366
0.21138
0.223077
0.229502
0.240701
0.246719
0.262602
0.278326
0.293959
0.309502
0.319932
0.325317
0.325633
0.325882
0.331063
0.331154
0.326154
0.326063
0.320882
0.320588
0.310204
0.304729
0.299186
0.288529
0.277828
0.272059
0.266222
0.260362
0.254457
0.248507
0.237534
0.226516
0.210407
0.204253
0.198054
0.19681
0.185498
0.179118
0.177715
0.176199
0.174661
0.158054
0.156448
0.144842
0.138258
0.131652
0.115068
0.103529
0.0819909
0.0705204
0.059095
0.0478054
0.0415837
0.0304977
0.0245927
0.0238235
0.0231674
0.0225113
0.0218778
0.0211538
0.0203167
0.0142534
0.0128054
0.0109728
0.00373303
0.00115383
-0.0017421
-0.00493214
-0.0083258
-0.0169457
-0.0206109
-0.0243439
-0.0280543
-0.0318099
-0.030543
-0.0292081
-0.027828
-0.0312443
-0.0345475
-0.0275792
-0.015362
0.00719457
0.0300905
0.0533032
0.0668326
0.0655656
0.0545249
0.0386425
0.00794119
-0.0476244
-0.133077
-0.233462
-0.323778
-0.389005
-0.444163
-0.494253
-0.539299
-0.584321
-0.609299
-0.634231
-0.634118
-0.638914
-0.638665
-0.643371
-0.638054
-0.632692
-0.61733
-0.581923
-0.546471
-0.49095
-0.440362
-0.379774
-0.319163
-0.26362
-0.218167
-0.18276
-0.152398
-0.126991
-0.106493
-0.0858824
-0.0651131
-0.0541177
-0.0428281
-0.0311538
-0.0140724
-0.00160634
0.0111765
0.0242081
0.0324434
0.0408371
0.0543891
0.0679638
0.0815837
0.095181
0.103778
0.117353
0.130882
0.139367
0.147715
0.16095
0.173982
0.18181
0.204367
0.211629
0.22362
0.235385
0.246968
0.263326
0.269525
0.290588
0.296538
0.307398
0.308122
0.313778
0.314321
0.314796
0.315226
0.310543
0.315792
0.305928
0.305995
0.290973
0.290882
0.285724
0.280498
0.275226
0.26491
0.26457
0.254186
0.253778
0.243348
0.237873
0.232353
0.221787
0.221176
0.210498
0.204796
0.19905
0.198258
0.202421
0.196493
0.195543
0.184548
0.183507
0.172443
0.161403
0.155385
0.139367
0.133348
0.11733
0.10638
0.0904977
0.0797511
0.0691403
0.0586652
0.0582805
0.0528959
0.0525113
0.0470815
0.0465611
0.0408145
0.0397285
0.0332127
0.026267
0.0190724
0.011629
0.00900453
0.0061991
0.00321266
-0.00486426
-0.00803168
-0.0161765
-0.0193439
-0.0224887
-0.0256787
-0.0288235
-0.0319231
-0.0349095
-0.0377149
-0.040362
-0.0427149
-0.0347964
-0.0265385
-0.00296379
0.0209276
0.0400905
0.054457
0.0590045
0.0536878
0.0434842
0.0234163
-0.0165611
-0.0764932
-0.16138
-0.251176
-0.330882
-0.400543
-0.460136
-0.504683
-0.544208
-0.578688
-0.593122
-0.607511
-0.606833
-0.616086
-0.620317
-0.614502
-0.608643
-0.582783
-0.5619
-0.52095
-0.484977
-0.433982
-0.382919
-0.326855
-0.280792
-0.239774
-0.198824
-0.167919
-0.137081
-0.111222
-0.090362
-0.0744118
-0.0583937
-0.042172
-0.0306561
-0.0237104
-0.0113122
-0.00355205
0.00457013
0.0129412
0.0265837
0.0353394
0.0492534
0.05819
0.0671493
0.0811086
0.0900453
0.104005
0.112896
0.121765
0.135452
0.144005
0.157353
0.170475
0.183371
0.190973
0.203326
0.215453
0.227376
0.244163
0.250814
0.262376
0.273801
0.280136
0.281357
0.282466
0.288507
0.289434
0.290294
0.286063
0.286742
0.282353
0.277873
0.273303
0.268665
0.268982
0.259253
0.25448
0.244683
0.239864
0.23
0.225113
0.230181
0.220181
0.220136
0.210023
0.204887
0.199706
0.19448
0.189163
0.183801
0.183371
0.177873
0.182353
0.176787
0.171199
0.160588
0.154955
0.154299
0.143597
0.132919
0.117262
0.106674
0.0911991
0.0758597
0.0656109
0.0554299
0.0502941
0.0451358
0.0349548
0.0346833
0.0342308
0.0335294
0.0224661
0.0160181
0.0142081
0.0071267
0.00479638
0.00230769
-0.005362
-0.00816742
-0.0110407
-0.0189819
-0.0268778
-0.029819
-0.0327602
-0.0356787
-0.033552
-0.036267
-0.0438914
-0.0412896
-0.0434842
-0.0403846
-0.0369909
-0.0283032
-0.0093439
0.0148416
0.0392534
0.0588009
0.0735294
0.078371
0.0683258
0.0533258
0.0134163
-0.0514027
-0.146176
-0.245905
-0.330566
-0.405204
-0.469819
-0.529412
-0.568937
-0.603439
-0.612873
-0.622285
-0.626697
-0.631063
-0.635407
-0.629729
-0.624027
-0.593303
-0.567534
-0.526742
-0.48595
-0.435136
-0.379344
-0.32862
-0.282964
-0.237376
-0.20181
-0.176222
-0.155611
-0.134909
-0.114095
-0.0980995
-0.08181
-0.0701357
-0.0580317
-0.0455882
-0.0378281
-0.024819
-0.0215611
-0.00809954
0.00552038
0.0141855
0.0279412
0.0367195
0.0504977
0.054276
0.063009
0.0716968
0.0802489
0.0886878
0.101968
0.110045
0.122919
0.13052
0.142873
0.155023
0.171968
0.183733
0.195339
0.211833
0.218235
0.229548
0.235792
0.241946
0.247986
0.253959
0.264887
0.260724
0.266471
0.262127
0.262715
0.25819
0.258575
0.258891
0.254118
0.254299
0.249434
0.249502
0.249525
0.244502
0.239457
0.234321
0.23414
0.223891
0.218552
0.208167
0.207738
0.20224
0.201674
0.201063
0.190362
0.189593
0.183778
0.182919
0.177036
0.166131
0.165204
0.154231
0.143258
0.127262
0.111312
0.100385
0.0845022
0.0737104
0.0630543
0.0625113
0.0520588
0.0516968
0.0463574
0.0510181
0.0456335
0.0401131
0.0392986
0.0330316
0.0263574
0.0243212
0.0219909
0.0193891
0.0115385
0.00852941
0.000362001
-0.00280544
-0.000995472
-0.00418551
-0.00739819
-0.00561085
-0.00877827
-0.0119004
-0.0148642
-0.0177149
-0.0103394
-0.00773755
0.00515838
0.0233484
0.0468326
0.0706109
0.0846154
0.0938236
0.0931674
0.0826245
0.0671946
0.0318778
-0.0333484
-0.118507
-0.208597
-0.283643
-0.35362
-0.413575
-0.468484
-0.518394
-0.558258
-0.573054
-0.597828
-0.602534
-0.612217
-0.616855
-0.616493
-0.611154
-0.590769
-0.570362
-0.529932
-0.494457
-0.449005
-0.398529
-0.348054
-0.307602
-0.267217
-0.231878
-0.201584
-0.176312
-0.160995
-0.135633
-0.125158
-0.109547
-0.0936651
-0.0823982
-0.0706561
-0.0584615
-0.0459502
-0.0380995
-0.0300226
-0.0167194
-0.00828053
0.000316747
0.0139593
0.0226244
0.0313122
0.0399774
0.0536652
0.0673077
0.0758597
0.0892308
0.0974434
0.115452
0.13319
0.145611
0.157738
0.169638
0.186312
0.197805
0.21414
0.225339
0.236425
0.247398
0.253281
0.264095
0.269796
0.275452
0.281018
0.286516
0.2819
0.282172
0.282376
0.282466
0.277466
0.277376
0.277262
0.272081
0.271855
0.261584
0.256267
0.245882
0.245452
0.249977
0.239412
0.233801
0.223145
0.217421
0.211652
0.205792
0.204887
0.193914
0.187896
0.181833
0.180747
0.174638
0.168507
0.162353
0.156154
0.154955
0.143733
0.132579
0.116448
0.105407
0.0894796
0.0686652
0.063009
0.0524208
0.0469004
0.0414027
0.035905
0.0303394
0.0246154
0.0235747
0.0171041
0.0152489
0.00809953
0.00572398
0.00312217
0.000316747
-0.00271492
-0.010905
-0.0141629
-0.0225339
-0.0258824
-0.0292534
-0.0326018
-0.0259276
-0.0342081
-0.0373756
-0.0404751
-0.0433484
-0.0360181
-0.0334163
-0.0305203
-0.0173077
0.00613124
0.0297964
0.0486652
0.0626923
0.0668779
0.0611312
0.0454978
0.0199321
-0.035543
-0.11595
-0.216335
-0.306652
-0.3819
-0.452104
-0.507262
-0.557398
-0.592466
-0.627511
-0.637511
-0.647489
-0.652443
-0.652353
-0.65724
-0.647081
-0.631878
-0.596606
-0.566312
-0.520995
-0.470634
-0.405249
-0.349864
-0.299525
-0.254253
-0.214027
-0.178846
-0.158665
-0.133462
-0.113213
-0.092828
-0.0822851
-0.0664027
-0.0550226
-0.0430543
-0.0355656
-0.022647
-0.00941174
-0.000882331
0.0128733
0.0268326
0.0408597
0.05
0.0591629
0.0733258
0.0825113
0.101652
0.115769
0.124729
0.138597
0.157285
0.165679
0.178756
0.196471
0.208846
0.225928
0.237738
0.249321
0.260679
0.276855
0.282873
0.288756
0.299525
0.305181
0.315747
0.316222
0.321629
0.316946
0.317127
0.312195
0.307172
0.307059
0.296787
0.296471
0.291063
0.285588
0.275023
0.274389
0.273665
0.277851
0.286991
0.281041
0.270045
0.248959
0.237783
0.226516
0.225181
0.218778
0.217262
0.215701
0.20405
0.197353
0.185588
0.178801
0.172014
0.165181
0.168348
0.156516
0.144729
0.128009
0.111357
0.0897285
0.0782127
0.0668552
0.0556335
0.0495475
0.0385294
0.0376018
0.0366742
0.0307014
0.0246154
0.0233032
0.0266516
0.0195701
0.0121493
0.00941179
0.00142534
-0.00180995
-0.0102715
-0.0138688
-0.0226244
-0.0214027
-0.0252263
-0.0340498
-0.0378507
-0.041629
-0.045362
-0.0589819
-0.0573982
-0.0606335
-0.0585747
-0.0511991
-0.0434389
-0.025362
-0.00201358
0.0215837
0.040362
0.0543213
0.0583711
0.0575566
0.0368552
0.00626697
-0.0592986
-0.164796
-0.290204
-0.400566
-0.490905
-0.566199
-0.631425
-0.681606
-0.726765
-0.746855
-0.7719
-0.776923
-0.7819
-0.786833
-0.786742
-0.786561
-0.761358
-0.741154
-0.695928
-0.640634
-0.575317
-0.504977
-0.434638
-0.374367
-0.319208
-0.269186
-0.229231
-0.194299
-0.164321
-0.134253
-0.11405
-0.0935068
-0.0774887
-0.0608145
-0.043552
-0.0307692
-0.00757918
0.00599548
0.0198416
0.028914
0.0481448
0.0574661
0.0718326
0.0861991
0.105588
0.119955
0.139321
0.15862
0.172873
0.191991
0.205928
0.22457
0.247851
0.270769
0.288326
0.305566
0.327511
0.339208
0.355724
0.367014
0.3831
0.389027
0.399796
0.405453
0.405995
0.406493
0.396878
0.392172
0.382353
0.382376
0.372285
0.362081
0.356787
0.34638
0.345928
0.330362
0.324729
0.31905
0.318281
0.312421
0.306493
0.30052
0.284457
0.278326
0.262104
0.260814
0.259457
0.253009
0.251493
0.244864
0.243213
0.236471
0.229661
0.217805
0.215905
0.203959
0.191923
0.179932
0.157896
0.135928
0.114005
0.0971493
0.0853846
0.073733
0.0722172
0.0657919
0.0644796
0.0582127
0.051991
0.0456787
0.049276
0.0476018
0.0354751
0.0328281
0.0297059
0.0262444
0.0174661
0.00841631
0.00916291
-0.000271478
-0.00477374
-0.00938914
-0.0189819
-0.0235973
-0.02819
-0.0377602
-0.0372851
-0.0366742
-0.0359502
-0.0399321
-0.0435973
-0.0418552
-0.0297285
-0.0072172
0.0306335
0.0687557
0.0921493
0.105747
0.109548
0.0935068
0.0676244
0.00183258
-0.0988462
-0.234457
-0.364977
-0.475407
-0.570792
-0.656041
-0.721244
-0.776403
-0.811516
-0.841584
-0.851606
-0.856584
-0.866493
-0.871312
-0.871086
-0.855815
-0.840498
-0.800136
-0.764729
-0.709321
-0.648891
-0.578484
-0.508145
-0.437896
-0.377738
-0.322534
-0.282285
-0.241923
-0.20138
-0.175543
-0.144276
-0.122511
-0.100181
-0.0823303
-0.0640724
-0.0504751
-0.0365385
-0.0123982
-0.00305429
0.0163348
0.0307692
0.050181
0.0595701
0.0789593
0.0982579
0.112489
0.131606
0.150633
0.169434
0.188009
0.206267
0.219163
0.241697
0.253914
0.270882
0.287647
0.304231
0.325656
0.3369
0.358009
0.369005
0.379887
0.390701
0.401471
0.412149
0.407738
0.418235
0.408575
0.408756
0.403824
0.403778
0.403665
0.398462
0.398235
0.387964
0.382647
0.372262
0.37181
0.361312
0.355769
0.350181
0.339502
0.333801
0.318009
0.312172
0.306244
0.300226
0.294208
0.288122
0.286991
0.275769
0.27448
0.263122
0.256719
0.245249
0.238778
0.232353
0.210928
0.194525
0.168122
0.151765
0.135475
0.119321
0.113371
0.102602
0.0969684
0.0864254
0.0809276
0.075362
0.0747285
0.0688236
0.0674887
0.0605883
0.0531448
0.0502715
0.036991
0.0333711
0.0294797
0.020362
0.0211312
0.0117647
0.0073982
-0.00199094
-0.0114027
-0.0158145
-0.0151584
-0.0143891
-0.0185294
-0.0174208
-0.0110633
-0.00434389
0.0177376
0.0502036
0.0830543
0.116267
0.124796
0.123597
0.112624
0.0818552
0.0312895
-0.0591403
-0.159434
-0.279638
-0.394751
-0.484751
-0.569661
-0.64948
-0.704253
-0.748937
-0.76862
-0.788258
-0.787805
-0.792285
-0.79172
-0.786086
-0.775385
-0.754638
-0.733846
-0.688009
-0.642149
-0.576244
-0.510339
-0.434502
-0.378756
-0.323145
-0.277602
-0.242081
-0.206493
-0.170769
-0.139864
-0.118643
-0.0969683
-0.0897511
-0.0769457
-0.0635973
-0.0497737
-0.0355882
-0.0160633
0.00368779
0.0136425
0.0286878
0.0388462
0.0540272
0.0642308
0.0744118
0.0895023
0.104525
0.119389
0.12914
0.148643
0.162964
0.176968
0.185611
0.208869
0.221742
0.239299
0.256629
0.263756
0.275679
0.287443
0.309072
0.320543
0.3369
0.34819
0.359412
0.36552
0.361561
0.367511
0.363326
0.364027
0.35957
0.359977
0.355294
0.350498
0.350656
0.345701
0.340679
0.335566
0.335362
0.325113
0.319842
0.314502
0.304095
0.29362
0.278054
0.272421
0.261697
0.255905
0.250045
0.239095
0.238145
0.227081
0.225995
0.219819
0.213597
0.197353
0.186109
0.17991
0.163688
0.142511
0.116335
0.0952263
0.0792308
0.0633937
0.0527376
0.0422851
0.0369231
0.0265611
0.0211765
0.0156787
0.00997737
0.00889139
0.00739818
0.00545248
-0.00699096
-0.0147738
-0.0279185
-0.0313801
-0.0350679
-0.033914
-0.032828
-0.0468099
-0.0507692
-0.0597511
-0.0636878
-0.0675792
-0.0713575
-0.07
-0.0684842
-0.0616742
-0.0595701
-0.0470588
-0.0241629
0.0141403
0.0527376
0.0816063
0.100701
0.0999774
0.0894796
0.0591629
0.00900453
-0.0810407
-0.190973
-0.31086
-0.420701
-0.515475
-0.600181
-0.664819
-0.724367
-0.768846
-0.793281
-0.817647
-0.821991
-0.83129
-0.82552
-0.814729
-0.803914
-0.778077
-0.752217
-0.706357
-0.670475
-0.604593
-0.533756
-0.453032
-0.382353
-0.316787
-0.271312
-0.230882
-0.190452
-0.159932
-0.129253
-0.103235
-0.0767647
-0.0696833
-0.0569457
-0.0385973
-0.0247964
-0.00561084
0.00891404
0.0236878
0.0386878
0.0588009
0.0690272
0.0842308
0.0944797
0.114729
0.129955
0.145091
0.165091
0.174955
0.184525
0.198869
0.217851
0.231471
0.249661
0.267489
0.280023
0.297262
0.314253
0.331018
0.337602
0.359027
0.365317
0.381493
0.387602
0.393597
0.39948
0.395249
0.400928
0.396493
0.406946
0.402217
0.40233
0.402353
0.397262
0.387081
0.37681
0.376471
0.371018
0.365475
0.359887
0.354208
0.343484
0.32267
0.31681
0.300837
0.294774
0.283575
0.277285
0.26595
0.25957
0.253167
0.246629
0.245045
0.233371
0.226652
0.20991
0.19819
0.181538
0.15991
0.138326
0.111742
0.0902489
0.0738688
0.0626923
0.0567195
0.050905
0.0452263
0.0295702
0.0239141
0.0181222
0.0121267
0.00572402
-0.00110856
-0.00341626
-0.0111538
-0.0192307
-0.0276923
-0.0364027
-0.0403846
-0.0495249
-0.0587557
-0.0630769
-0.0673982
-0.0817647
-0.086086
-0.085362
-0.0845702
-0.0836425
-0.0825566
-0.0762217
-0.069638
-0.0526471
-0.0252489
0.00260182
0.0358371
0.0694344
0.0932805
0.097353
0.086629
0.0610407
0.00561086
-0.0847059
-0.20491
-0.340091
-0.465204
-0.560204
-0.650136
-0.719955
-0.779729
-0.82948
-0.859208
-0.883869
-0.883507
-0.898122
-0.897692
-0.897195
-0.881652
-0.856086
-0.825475
-0.769887
-0.724299
-0.64871
-0.578077
-0.492421
-0.42681
-0.366312
-0.310995
-0.260724
-0.215475
-0.185181
-0.149796
-0.129208
-0.103348
-0.0920136
-0.0700453
-0.0574435
-0.039276
-0.0206109
-0.0065611
0.00282805
0.0225113
0.0423756
0.0523982
0.0674661
0.0825792
0.097647
0.112692
0.132692
0.152624
0.162443
0.182059
0.196425
0.220407
0.234005
0.252195
0.27
0.292489
0.314638
0.326493
0.3431
0.354502
0.375724
0.38681
0.402783
0.413643
0.419367
0.415
0.405498
0.40586
0.406063
0.411131
0.406018
0.405769
0.40043
0.394977
0.389457
0.378846
0.37319
0.362421
0.361584
0.355634
0.354593
0.338484
0.322285
0.306018
0.284615
0.283145
0.271561
0.269864
0.258122
0.251267
0.244344
0.237353
0.235317
0.228167
0.225995
0.218801
0.211606
0.199457
0.18733
0.165294
0.138281
0.116403
0.0946606
0.0780995
0.0617195
0.0505656
0.0395701
0.0336199
0.0326923
0.0266516
0.0254073
0.0237557
0.0216064
0.0138688
0.000610868
-0.00800904
-0.0220136
-0.026267
-0.0257919
-0.0254978
-0.0303394
-0.0352489
-0.0351584
-0.0451131
-0.0500452
-0.0549774
-0.0547964
-0.0544796
-0.0490045
-0.0482353
-0.042172
-0.0407014
-0.0388688
-0.0165385
0.0211538
0.0692081
0.0926018
0.11129
0.115204
0.0992534
0.0735068
0.0178507
-0.0726923
-0.208167
-0.343529
-0.463846
-0.579095
-0.659231
-0.739299
-0.794344
-0.839321
-0.874208
-0.884072
-0.898891
-0.898643
-0.903348
-0.892986
-0.882557
-0.862059
-0.821561
-0.770996
-0.695407
-0.629774
-0.544118
-0.473439
-0.407738
-0.342104
-0.281538
-0.236154
-0.195815
-0.16052
-0.135113
-0.109593
-0.0938462
-0.0676923
-0.0610407
-0.038733
-0.0208597
-0.00246606
0.0113801
0.0305656
0.0450226
0.0547285
0.0745249
0.0894118
0.109276
0.119163
0.133982
0.148756
0.173484
0.193077
0.207511
0.226629
0.245452
0.273824
0.286765
0.309367
0.331606
0.343552
0.365204
0.376606
0.392783
0.403778
0.419638
0.425385
0.436041
0.441629
0.437104
0.437489
0.427783
0.432919
0.422873
0.422715
0.412398
0.406946
0.391403
0.380747
0.375023
0.359231
0.358371
0.347443
0.346425
0.335407
0.329321
0.318167
0.301878
0.295543
0.279072
0.277557
0.265995
0.264389
0.252738
0.251018
0.244276
0.237443
0.235566
0.22362
0.216652
0.209706
0.197805
0.175973
0.159163
0.147443
0.120724
0.10414
0.0827149
0.0615385
0.045543
0.0396606
0.0388462
0.0279864
0.0270815
0.0259276
0.0194118
0.0123077
0.00963801
0.00649321
-0.00710407
-0.0159955
-0.0202262
-0.0246606
-0.034276
-0.0390045
-0.043733
-0.0535068
-0.0582579
-0.0680317
-0.0727376
-0.0773756
-0.0768778
-0.0811538
-0.0801584
-0.0737557
-0.0719683
-0.0646832
-0.0570362
-0.0240045
0.00938915
0.0581222
0.0821041
0.101312
0.095724
0.0802715
0.0449548
-0.0352941
-0.140407
-0.290452
-0.425407
-0.540271
-0.640068
-0.709796
-0.774434
-0.829005
-0.853552
-0.878032
-0.877466
-0.891833
-0.881154
-0.88043
-0.869661
-0.843801
-0.807896
-0.751991
-0.701018
-0.614977
-0.538869
-0.462738
-0.391584
-0.325498
-0.269548
-0.218665
-0.172873
-0.137081
-0.106244
-0.0852941
-0.0641855
-0.0527602
-0.0308145
-0.0183032
-0.00520361
0.0134163
0.0325113
0.0419684
0.0617873
0.08181
0.0919909
0.112195
0.122443
0.13767
0.157851
0.173032
0.1981
0.2031
0.222896
0.237534
0.261855
0.27086
0.294434
0.307602
0.325453
0.342986
0.355294
0.372353
0.384253
0.40095
0.412511
0.428959
0.440272
0.441471
0.442579
0.433575
0.439434
0.425181
0.430837
0.426335
0.431719
0.426991
0.412104
0.407127
0.397059
0.391968
0.376787
0.376584
0.366312
0.360973
0.350588
0.335113
0.319593
0.303959
0.298235
0.287443
0.281584
0.270656
0.259661
0.25362
0.247489
0.246312
0.240045
0.233733
0.222398
0.211063
0.199729
0.183416
0.162172
0.135928
0.124751
0.10362
0.0876471
0.0718326
0.0612896
0.050905
0.0406561
0.0354299
0.0301584
0.0297738
0.0240498
0.0128733
0.0110634
0.00371041
0.000904975
-0.0073077
-0.0157692
-0.0245023
-0.0284389
-0.0324661
-0.0365837
-0.0406561
-0.0497964
-0.0538688
-0.0579638
-0.0619683
-0.0608371
-0.0545023
-0.0578733
-0.0609502
-0.053552
-0.0507466
-0.0375113
-0.00386877
0.0351584
0.0695023
0.0991403
0.114027
0.114095
0.104344
0.0747059
0.0151584
-0.0942986
-0.223643
-0.352919
-0.477149
-0.576267
-0.665294
-0.744276
-0.798167
-0.836991
-0.855792
-0.874525
-0.873235
-0.876878
-0.87543
-0.858937
-0.842376
-0.805815
-0.774208
-0.712579
-0.655905
-0.564208
-0.487489
-0.415837
-0.354276
-0.302828
-0.256538
-0.220294
-0.179072
-0.152738
-0.126267
-0.104548
-0.0824434
-0.064819
-0.0465385
-0.0326697
-0.0182579
-0.00343891
0.0117873
0.0273077
0.0380995
0.0589819
0.0699321
0.0908597
0.10181
0.117715
0.128529
0.149321
0.164955
0.175453
0.200656
0.215543
0.234977
0.254005
0.27267
0.290973
0.303982
0.321697
0.334163
0.351425
0.363507
0.380475
0.392308
0.399027
0.405634
0.407104
0.408484
0.404729
0.410814
0.406742
0.407602
0.408303
0.408891
0.399367
0.389729
0.38
0.370181
0.365317
0.355385
0.350385
0.345317
0.335113
0.319864
0.304525
0.294118
0.278597
0.272986
0.262308
0.256561
0.250747
0.239864
0.238914
0.232873
0.23681
0.225724
0.219615
0.208529
0.197466
0.181403
0.160317
0.144321
0.123326
0.102443
0.0817421
0.0662443
0.0509502
0.0408371
0.0358597
0.0258824
0.020905
0.0207919
0.0104751
0.0047285
-0.00153847
-0.00334843
-0.0156787
-0.0234389
-0.0315837
-0.0400679
-0.0437557
-0.0475792
-0.051448
-0.0553846
-0.0642987
-0.0732353
-0.0771267
-0.075905
-0.0795928
-0.078077
-0.0763575
-0.0692986
-0.0718778
-0.0589366
-0.035543
-0.0017647
0.0373529
0.0817195
0.106335
0.121131
0.111131
0.091267
0.0515385
-0.0230769
-0.137602
-0.282036
-0.42138
-0.535656
-0.639887
-0.724072
-0.793213
-0.847285
-0.871312
-0.900272
-0.899186
-0.913032
-0.906833
-0.900588
-0.894344
-0.868032
-0.841697
-0.785362
-0.729005
-0.642624
-0.566222
-0.489864
-0.418575
-0.357421
-0.301403
-0.255452
-0.214548
-0.178575
-0.152489
-0.126222
-0.104683
-0.0876923
-0.0650905
-0.05181
-0.0329864
-0.0136878
0.000995472
0.0109502
0.0311991
0.0466063
0.0621719
0.0827375
0.0983484
0.113891
0.124412
0.139909
0.160317
0.175656
0.200837
0.215837
0.235475
0.254796
0.27871
0.297195
0.310294
0.328032
0.345498
0.362692
0.379683
0.396471
0.4031
0.409615
0.415996
0.417262
0.423439
0.424502
0.430407
0.421154
0.426765
0.417217
0.412511
0.407692
0.39776
0.387715
0.372579
0.372398
0.362127
0.361787
0.346403
0.330928
0.315407
0.304796
0.29414
0.288348
0.282466
0.276493
0.265407
0.254276
0.243054
0.236765
0.230385
0.228937
0.217376
0.205747
0.199118
0.187489
0.170882
0.154276
0.127738
0.101199
0.0747511
0.0584163
0.0422624
0.0363122
0.0256108
0.0200679
0.0145927
0.00911763
0.00355203
-0.00214933
-0.00316745
-0.00968325
-0.0167873
-0.024457
-0.0276018
-0.0311764
-0.0350905
-0.0443213
-0.0537783
-0.0583258
-0.0679865
-0.0726471
-0.0823982
-0.0871041
-0.0867874
-0.0914027
-0.0908824
-0.090181
-0.0791403
-0.0777828
-0.0709502
-0.0487104
-0.0210634
0.0219683
0.0603167
0.0889593
0.107828
0.1069
0.0911312
0.0654977
0.0149774
-0.0804525
-0.210815
-0.361063
-0.481244
-0.591357
-0.67138
-0.736335
-0.801244
-0.836063
-0.870815
-0.880543
-0.900226
-0.894842
-0.899412
-0.898959
-0.888484
-0.877964
-0.847421
-0.81681
-0.751176
-0.695498
-0.614819
-0.534163
-0.453597
-0.383167
-0.327805
-0.272466
-0.237081
-0.191561
-0.160905
-0.130045
-0.108824
-0.0870136
-0.074638
-0.0567421
-0.033371
-0.014638
0.0043665
0.0236652
0.0430996
0.0526923
0.0673077
0.0819457
0.0965158
0.106063
0.120588
0.135023
0.149412
0.163597
0.172602
0.19129
0.204728
0.227783
0.245498
0.262851
0.284842
0.296516
0.317896
0.33405
0.355
0.365769
0.386403
0.401878
0.407217
0.407466
0.407579
0.412579
0.407421
0.407081
0.401538
0.400837
0.395068
0.389185
0.378235
0.367172
0.366063
0.354887
0.353643
0.342353
0.335973
0.32957
0.313077
0.296516
0.284864
0.273167
0.26138
0.259502
0.252557
0.24552
0.238416
0.236222
0.238959
0.231584
0.229163
0.216697
0.209185
0.191697
0.169231
0.151855
0.129502
0.11224
0.0950905
0.0781222
0.0663801
0.0548416
0.0484615
0.0421946
0.0409954
0.0347285
0.0333936
0.0318326
0.0298642
0.0223529
0.0142081
0.0105656
0.00144798
-0.00796378
-0.0176696
-0.027647
-0.0377601
-0.0379864
-0.0382126
-0.0485294
-0.0538009
-0.0591176
-0.0593891
-0.0596154
-0.0597511
-0.0597285
-0.0595249
-0.0589819
-0.0481448
-0.0268326
0.00490951
0.0421041
0.0696833
0.0875566
0.0907014
0.0740045
0.0575566
0.0162443
-0.0599095
-0.185973
-0.311923
-0.422805
-0.528597
-0.604299
-0.67491
-0.73543
-0.775882
-0.816267
-0.826629
-0.841923
-0.837172
-0.847376
-0.842534
-0.83267
-0.82276
-0.792851
-0.767919
-0.712986
-0.668009
-0.593009
-0.522986
-0.448032
-0.373213
-0.313462
-0.258801
-0.219095
-0.179321
-0.144412
-0.114321
-0.088914
-0.0679638
-0.0514706
-0.0294118
-0.0168552
0.0061086
0.024457
0.0480996
0.0619683
0.0660181
0.0801131
0.094276
0.113416
0.122557
0.136697
0.150769
0.159774
0.178597
0.187262
0.205656
0.218756
0.236425
0.248756
0.270724
0.292376
0.303778
0.31991
0.335815
0.351516
0.367059
0.387511
0.397873
0.413167
0.423326
0.423394
0.423371
0.41819
0.417896
0.407443
0.4069
0.396244
0.390453
0.384593
0.378643
0.372647
0.356561
0.355453
0.344276
0.343054
0.33681
0.325498
0.314118
0.302647
0.296131
0.279525
0.277873
0.271131
0.264299
0.252398
0.24043
0.238439
0.231335
0.234231
0.222059
0.219887
0.207738
0.200588
0.188484
0.17638
0.164321
0.137308
0.12043
0.0987331
0.0822398
0.070905
0.0646833
0.0635294
0.0523077
0.0510634
0.044638
0.0429186
0.0356561
0.0278733
0.0196606
0.0160181
0.0071041
-0.00212668
-0.00658371
-0.0111765
-0.015905
-0.0256335
-0.0304525
-0.0352489
-0.0450905
-0.0448869
-0.049638
-0.0442986
-0.0437783
-0.0430769
-0.0420815
-0.0408145
-0.0291177
-0.00201357
0.0404977
0.0734163
0.101674
0.110226
0.108982
0.0979412
0.0670588
0.0163348
-0.089276
-0.204774
-0.330181
-0.440452
-0.525656
-0.615792
-0.680815
-0.735747
-0.775634
-0.790498
-0.810294
-0.815023
-0.824729
-0.824389
-0.819005
-0.803575
-0.773145
-0.742647
-0.687149
-0.636629
-0.556086
-0.490543
-0.420068
-0.359683
-0.304389
-0.249208
-0.204027
-0.163801
-0.128484
-0.103009
-0.0872172
-0.0709955
-0.0492308
-0.03181
-0.0238462
-0.00542987
0.00841628
0.0275792
0.0369457
0.0514932
0.0711086
0.0807918
0.0954751
0.105226
0.124955
0.134638
0.149253
0.16371
0.173009
0.192059
0.205837
0.224253
0.23733
0.255045
0.262421
0.279548
0.296425
0.308077
0.329502
0.340769
0.3619
0.362919
0.378891
0.384751
0.385543
0.391244
0.386833
0.392353
0.387783
0.393145
0.388326
0.383371
0.378303
0.373122
0.367896
0.357579
0.35724
0.34681
0.346358
0.33586
0.330294
0.319706
0.304027
0.293303
0.277511
0.276674
0.265747
0.254751
0.24371
0.232602
0.236403
0.235136
0.233824
0.227443
0.226041
0.214615
0.203213
0.186833
0.175498
0.159231
0.137964
0.116787
0.100747
0.0849548
0.0693439
0.0588914
0.0535068
0.0481448
0.0477828
0.0423077
0.041629
0.0354977
0.0288688
0.0167195
0.00911766
0.0111765
-0.00212668
-0.00567871
-0.00945699
-0.0183936
-0.0273755
-0.0364027
-0.0304299
-0.0395023
-0.0435294
-0.0475339
-0.0464253
-0.0501584
-0.0486878
-0.0419231
-0.0398643
-0.0273982
-0.0045475
0.0337104
0.0723303
0.10629
0.120566
0.125068
0.119796
0.0996833
0.0497285
-0.0351357
-0.13991
-0.27457
-0.39414
-0.493665
-0.593122
-0.662489
-0.716787
-0.756041
-0.780226
-0.799344
-0.803416
-0.822421
-0.821403
-0.825317
-0.809208
-0.783077
-0.746923
-0.695769
-0.644548
-0.573303
-0.507059
-0.43086
-0.369706
-0.313733
-0.262896
-0.217127
-0.17638
-0.150543
-0.119593
-0.0984163
-0.0819004
-0.0648642
-0.0472398
-0.0340724
-0.0104299
-0.00138009
0.0130317
0.0227602
0.0427376
0.0628281
0.0730091
0.08819
0.0934389
0.113665
0.123891
0.139027
0.149027
0.158914
0.178552
0.182941
0.201968
0.210656
0.228937
0.236855
0.254502
0.271855
0.283959
0.30086
0.317602
0.334253
0.345792
0.35724
0.36862
0.374955
0.381176
0.382308
0.378303
0.369231
0.375068
0.370792
0.371403
0.3619
0.357262
0.352511
0.347647
0.342738
0.332783
0.327805
0.322738
0.317602
0.312421
0.302172
0.291833
0.281403
0.27095
0.260385
0.254774
0.249118
0.243394
0.232624
0.226742
0.22586
0.21491
0.213959
0.202964
0.196946
0.180928
0.169932
0.154027
0.143122
0.12233
0.101652
0.0811539
0.0608598
0.0457466
0.040724
0.0307466
0.0307693
0.0207014
0.0154525
0.00986428
0.00382355
-0.00278278
-0.00988686
-0.0123755
-0.0252941
-0.0285068
-0.0369457
-0.045543
-0.0492308
-0.0579638
-0.0667195
-0.070543
-0.0743665
-0.0781901
-0.0769005
-0.0754751
-0.0738462
-0.0769683
-0.0747964
-0.0622624
-0.0443665
-0.0210407
0.0226471
0.0666516
0.0959276
0.110453
0.110181
0.0950453
0.0650679
-0.009819
-0.109615
-0.234321
-0.353914
-0.453439
-0.547851
-0.62224
-0.696561
-0.74586
-0.775113
-0.799299
-0.803416
-0.822466
-0.821493
-0.830453
-0.809367
-0.788258
-0.762149
-0.716041
-0.664887
-0.593733
-0.532557
-0.451403
-0.385249
-0.324231
-0.268303
-0.222466
-0.186697
-0.160905
-0.135045
-0.10905
-0.0878733
-0.076448
-0.0645928
-0.0471946
-0.0342534
-0.0158145
-0.00701358
0.00212669
0.0115837
0.0212443
0.0361086
0.0559955
0.0709502
0.0908824
0.100882
0.110837
0.120724
0.140543
0.160226
0.169751
0.184005
0.198032
0.216697
0.230045
0.248009
0.260634
0.273009
0.285136
0.292104
0.313869
0.32552
0.337081
0.338507
0.349842
0.361063
0.362195
0.363235
0.354163
0.359977
0.350701
0.35129
0.351742
0.347036
0.342217
0.337285
0.332308
0.32724
0.327104
0.316878
0.306584
0.301199
0.290724
0.280181
0.264548
0.258869
0.2531
0.247285
0.24138
0.235385
0.224367
0.223258
0.217059
0.215792
0.20948
0.198145
0.19181
0.180498
0.174208
0.157941
0.146674
0.130475
0.109344
0.0883484
0.0725792
0.0620362
0.0516516
0.0463575
0.0411086
0.0357918
0.0353846
0.0296606
0.0235068
0.0118099
0.004638
-0.00294118
-0.00590498
-0.0141629
-0.0177376
-0.0165385
-0.0204299
-0.0343891
-0.0433484
-0.0523982
-0.0564253
-0.0654977
-0.064457
-0.0633484
-0.0620814
-0.0605882
-0.0638235
-0.0567194
-0.049276
-0.0364027
-0.00314479
0.0304751
0.0644344
0.0886425
0.0980543
0.0976245
0.0823303
0.0521493
0.00710408
-0.0778959
-0.192851
-0.307715
-0.417511
-0.502217
-0.586923
-0.651584
-0.701199
-0.745792
-0.760317
-0.779751
-0.779118
-0.798439
-0.792692
-0.786923
-0.776109
-0.750226
-0.719276
-0.663326
-0.62233
-0.551312
-0.490249
-0.414163
-0.348054
-0.296991
-0.246041
-0.215181
-0.179434
-0.15871
-0.137964
-0.117172
-0.0962896
-0.0802262
-0.0638009
-0.0568552
-0.0393665
-0.0263575
-0.0129412
0.000791859
0.014819
0.0340498
0.0434842
0.0579864
0.0675792
0.082172
0.101787
0.116425
0.130973
0.150453
0.169796
0.184005
0.202941
0.216606
0.229932
0.242919
0.260543
0.277805
0.284774
0.301448
0.317941
0.334231
0.345385
0.35138
0.357217
0.357941
0.358529
0.354027
0.359367
0.359615
0.364751
0.359751
0.354593
0.349299
0.343891
0.338416
0.327851
0.327217
0.316516
0.310814
0.305045
0.299186
0.283258
0.272217
0.261086
0.249887
0.24362
0.242285
0.230905
0.21948
0.212919
0.21129
0.204548
0.20276
0.19586
0.198959
0.187036
0.180113
0.168213
0.161267
0.144389
0.127557
0.105837
0.0842987
0.0629412
0.0517647
0.040724
0.0297738
0.0238462
0.0228959
0.0118099
0.0105656
0.00898188
0.00192306
-0.00563349
-0.0136651
-0.0120362
-0.0207692
-0.0297285
-0.0338914
-0.0432127
-0.0525792
-0.0620136
-0.0614254
-0.075905
-0.0803394
-0.0897512
-0.094095
-0.0983258
-0.0973756
-0.101131
-0.0996833
-0.0978733
-0.0957692
-0.0882579
-0.0704072
-0.0372624
-0.00882353
0.0198416
0.0437104
0.0476923
0.04681
0.0260181
-0.00463801
-0.0752036
-0.190701
-0.311154
-0.436516
-0.52181
-0.602059
-0.66724
-0.712376
-0.762443
-0.782466
-0.807398
-0.812308
-0.822172
-0.826946
-0.816674
-0.811357
-0.785973
-0.76552
-0.715023
-0.669502
-0.598914
-0.528303
-0.45267
-0.376991
-0.316312
-0.260769
-0.220294
-0.17991
-0.149593
-0.119276
-0.0939367
-0.0734842
-0.0529186
-0.0370588
-0.0157692
-0.00386878
0.00866516
0.0217195
0.0401357
0.0588688
0.077828
0.0870136
0.10629
0.120656
0.135045
0.139412
0.153778
0.173077
0.182353
0.206448
0.225407
0.244118
0.257579
0.275724
0.293529
0.305995
0.328077
0.339887
0.361425
0.372738
0.393869
0.399819
0.410656
0.416335
0.416878
0.427308
0.422647
0.422873
0.412964
0.407919
0.402715
0.397353
0.391923
0.381403
0.375792
0.365113
0.364389
0.353575
0.342692
0.331787
0.325814
0.319796
0.308688
0.302534
0.286312
0.280023
0.268688
0.262262
0.255769
0.249186
0.242602
0.235905
0.234163
0.227353
0.225475
0.213575
0.201674
0.194774
0.182873
0.176018
0.159163
0.147398
0.130769
0.114299
0.0930091
0.0818552
0.0758597
0.0648869
0.0639593
0.0529412
0.0468326
0.0454525
0.0385973
0.0312443
0.0233258
0.0200905
0.0115158
0.0076923
0.0037104
-0.00547511
-0.0197059
-0.0240498
-0.0283937
-0.0377828
-0.042172
-0.0465158
-0.0508145
-0.0549774
-0.0590045
-0.0527602
-0.0613122
-0.0595023
-0.0573529
-0.0547737
-0.0417873
-0.00843891
0.0202263
0.0541403
0.0833032
0.0926244
0.0921041
0.0717195
0.046448
-0.018733
-0.118801
-0.248733
-0.38862
-0.498439
-0.583213
-0.657919
-0.712557
-0.767104
-0.791629
-0.821086
-0.825475
-0.829819
-0.834163
-0.823462
-0.822692
-0.796878
-0.775995
-0.730045
-0.68405
-0.618009
-0.541923
-0.475814
-0.399683
-0.343507
-0.282398
-0.236357
-0.195407
-0.15948
-0.128575
-0.102624
-0.0765611
-0.0603846
-0.0439366
-0.0320362
-0.0145927
-0.00167421
0.0166968
0.0354072
0.0444796
0.0587557
0.0732579
0.0878507
0.102489
0.117172
0.136787
0.14638
0.160882
0.170362
0.189706
0.208869
0.222805
0.236425
0.249796
0.267805
0.28052
0.297941
0.305136
0.322059
0.333756
0.345294
0.361674
0.367941
0.374072
0.375091
0.381018
0.376833
0.382579
0.373213
0.363756
0.364186
0.354525
0.354751
0.344887
0.344955
0.334932
0.334887
0.324751
0.314525
0.304276
0.293959
0.293575
0.278122
0.272624
0.262059
0.251403
0.245701
0.23491
0.23405
0.228122
0.227149
0.221109
0.220045
0.213937
0.207783
0.196629
0.185452
0.184321
0.173167
0.167059
0.145973
0.129932
0.108982
0.0931901
0.0775792
0.0621267
0.0568552
0.0516516
0.0464706
0.0412443
0.0409276
0.0303394
0.0193213
0.0177828
0.0106335
0.00803168
0.0050905
0.0018552
-0.00660633
-0.0103167
-0.0141176
-0.0230543
-0.026991
-0.0309502
-0.0348869
-0.038733
-0.0475339
-0.0461991
-0.0497511
-0.0480543
-0.0511312
-0.0488462
-0.0411312
-0.0380543
-0.0295702
-0.00576925
0.0283484
0.0576697
0.0822172
0.0919457
0.0918325
0.0718552
0.0470136
-0.00273758
-0.107421
-0.227059
-0.341629
-0.446131
-0.525566
-0.60991
-0.659208
-0.718439
-0.742625
-0.761787
-0.770882
-0.764932
-0.768914
-0.757873
-0.756787
-0.730679
-0.699548
-0.653349
-0.597149
-0.545928
-0.474751
-0.41362
-0.352579
-0.306629
-0.250747
-0.204887
-0.168982
-0.137986
-0.11181
-0.0903846
-0.0735294
-0.0561538
-0.0383032
-0.0250452
-0.0114027
0.00248869
0.0166742
0.0260407
0.035543
0.0501131
0.0647285
0.0793891
0.0889819
0.10362
0.123145
0.132579
0.14681
0.160882
0.174751
0.188303
0.201561
0.224434
0.237036
0.254344
0.261403
0.278303
0.290045
0.301652
0.308122
0.319502
0.330769
0.331923
0.337986
0.338959
0.339864
0.335679
0.336425
0.332014
0.327489
0.327828
0.318054
0.31819
0.308235
0.303235
0.298167
0.288009
0.282783
0.277511
0.272172
0.256719
0.251244
0.240701
0.230113
0.21948
0.213756
0.212964
0.207127
0.206244
0.200272
0.199276
0.188213
0.177081
0.16595
0.159729
0.153552
0.142353
0.136199
0.120068
0.0989593
0.0829186
0.0669005
0.0509503
0.0401132
0.0394797
0.0290046
0.0236878
0.0184389
0.0132127
0.00791859
0.00251134
0.00194573
0.000927635
-0.000565581
-0.00753391
-0.00995473
-0.0176923
-0.0258145
-0.0341176
-0.0376697
-0.0363122
-0.0450452
-0.0488235
-0.0525565
-0.0562896
-0.0599548
-0.0635747
-0.0570588
-0.060362
-0.0533937
-0.0511086
-0.0335068
-0.0105204
0.0178281
0.0515158
0.0704299
0.0896154
0.0890045
0.0785747
0.0533032
0.00316742
-0.0868778
-0.201833
-0.301719
-0.396538
-0.47629
-0.540973
-0.615588
-0.655136
-0.694661
-0.709163
-0.728643
-0.738054
-0.732421
-0.741742
-0.726041
-0.715272
-0.679502
-0.653733
-0.607919
-0.552082
-0.491244
-0.415475
-0.364774
-0.304186
-0.258643
-0.223145
-0.192624
-0.162014
-0.136244
-0.115272
-0.0938462
-0.0719231
-0.0595023
-0.0466516
-0.0284163
-0.014819
-0.000972852
0.0181448
0.0323529
0.0466516
0.0609502
0.0702715
0.079638
0.0889593
0.103258
0.122398
0.136425
0.150204
0.158778
0.177081
0.185
0.197602
0.209842
0.221833
0.243575
0.255158
0.266584
0.277851
0.294005
0.300023
0.315973
0.33181
0.332534
0.348145
0.343688
0.34914
0.34448
0.339774
0.339955
0.335
0.334932
0.329774
0.329502
0.319118
0.313688
0.303145
0.297534
0.291878
0.286131
0.285294
0.269389
0.263416
0.247398
0.236312
0.230136
0.218891
0.217602
0.206222
0.199774
0.193281
0.191765
0.190181
0.183552
0.176923
0.170272
0.15862
0.151946
0.140339
0.123733
0.107195
0.0856787
0.0692308
0.0479412
0.0317873
0.0258371
0.0200226
0.0193439
0.0136878
0.00798644
0.0022172
0.00126696
-0.00502262
-0.00678733
-0.00895928
-0.0165158
-0.0244118
-0.0325566
-0.0410181
-0.044638
-0.0484163
-0.0472172
-0.056086
-0.0599548
-0.0687557
-0.0675792
-0.0713122
-0.0699774
-0.0634163
-0.0666968
-0.0647059
-0.0573756
-0.0347059
-0.00162897
0.0317194
0.0553846
0.0692986
0.0783937
0.0676244
0.041991
0.00149322
-0.0888914
-0.18914
-0.299299
-0.389389
-0.474412
-0.554367
-0.614253
-0.674095
-0.698846
-0.723529
-0.72319
-0.737805
-0.747398
-0.746991
-0.746561
-0.716086
-0.700566
-0.65
-0.609412
-0.553824
-0.483235
-0.417647
-0.347127
-0.301697
-0.256357
-0.226041
-0.190724
-0.160407
-0.134977
-0.109389
-0.0936199
-0.0774661
-0.0608145
-0.0436652
-0.0310407
-0.0130996
0.00520362
0.013733
0.0275113
0.0414253
0.0554525
0.0645249
0.0786425
0.0977602
0.111833
0.130905
0.144819
0.153665
0.172285
0.190724
0.203914
0.221765
0.234276
0.25138
0.26819
0.284729
0.291063
0.30724
0.318235
0.329095
0.339819
0.350453
0.361018
0.361493
0.366878
0.367195
0.372398
0.367534
0.367557
0.362443
0.362217
0.366878
0.356425
0.35586
0.345158
0.334389
0.323552
0.317647
0.316697
0.305656
0.29457
0.278416
0.267195
0.255928
0.244593
0.23819
0.226697
0.220136
0.213484
0.206787
0.195045
0.188281
0.176471
0.164638
0.157783
0.150905
0.14405
0.127217
0.115452
0.0987104
0.0769909
0.0603167
0.043733
0.0323529
0.0211538
0.0101583
0.00425336
0.00343888
0.00255653
-0.00343894
-0.00957017
-0.021086
-0.0229865
-0.030362
-0.038077
-0.0411313
-0.0495249
-0.0531675
-0.0620815
-0.0711086
-0.0702489
-0.0743665
-0.0785294
-0.0776697
-0.0817873
-0.0858597
-0.0847737
-0.0886199
-0.0872172
-0.0855882
-0.0736425
-0.0713122
-0.0486199
-0.020543
0.0077828
0.0313575
0.0401131
0.0490498
0.0331222
0.0123303
-0.0233258
-0.0938914
-0.189367
-0.299774
-0.390091
-0.465339
-0.54052
-0.595634
-0.655701
-0.685724
-0.715701
-0.725611
-0.740498
-0.740294
-0.740023
-0.744706
-0.719299
-0.708869
-0.663416
-0.627941
-0.572421
-0.511855
-0.441244
-0.365656
-0.310068
-0.254502
-0.218982
-0.183552
-0.153145
-0.127715
-0.102217
-0.0815837
-0.065724
-0.0495023
-0.0327602
-0.0204299
-0.00264706
0.0105656
0.0290498
0.0478281
0.0617647
0.070905
0.0851358
0.0943891
0.113643
0.127873
0.142081
0.161199
0.170249
0.189163
0.197873
0.21629
0.229367
0.242104
0.259434
0.271425
0.288122
0.299548
0.315769
0.32681
0.33767
0.348394
0.354005
0.359502
0.359887
0.370181
0.365385
0.36552
0.360543
0.355475
0.355272
0.354932
0.35948
0.348914
0.343281
0.322557
0.316742
0.30586
0.309932
0.308959
0.297896
0.291765
0.275543
0.269276
0.252941
0.241516
0.235023
0.228439
0.22681
0.225091
0.223326
0.216516
0.209683
0.192783
0.185882
0.173959
0.167014
0.165091
0.158145
0.146267
0.129434
0.112692
0.0959955
0.0794118
0.0679864
0.0567195
0.0456109
0.0395701
0.0386425
0.0326923
0.0266742
0.0204977
0.0140271
0.0121946
0.00488688
-0.00278281
-0.0057466
-0.0089819
-0.0174434
-0.0211765
-0.025
-0.0339593
-0.0379185
-0.0519457
-0.0559276
-0.0599095
-0.068914
-0.0677828
-0.0715837
-0.0651584
-0.063552
-0.0666516
-0.064457
-0.0518552
-0.0388688
-0.0205656
0.00303168
0.0268552
0.0458823
0.0500679
0.0443891
0.0238235
-0.0166516
-0.0870136
-0.202308
-0.327511
-0.42767
-0.517738
-0.58276
-0.647715
-0.687579
-0.732376
-0.747127
-0.761833
-0.761516
-0.766131
-0.770701
-0.760249
-0.749729
-0.719163
-0.683529
-0.627896
-0.567195
-0.501471
-0.420747
-0.354977
-0.294208
-0.243439
-0.20276
-0.167195
-0.131719
-0.111312
-0.0908597
-0.0753394
-0.0596833
-0.0437783
-0.0274208
-0.0155656
-0.00314479
0.00977375
0.0281222
0.0417873
0.0557692
0.0699774
0.0792986
0.0936878
0.108054
0.122466
0.136833
0.151244
0.170588
0.184819
0.198846
0.212624
0.226154
0.244321
0.262149
0.279593
0.291719
0.308552
0.315158
0.331561
0.33776
0.353801
0.359661
0.365385
0.371018
0.371561
0.377059
0.367466
0.362783
0.357964
0.353009
0.352964
0.347783
0.342534
0.332172
0.326742
0.311244
0.300701
0.295068
0.294344
0.288552
0.27267
0.266765
0.255792
0.244729
0.22862
0.222443
0.221199
0.209864
0.208507
0.197059
0.195543
0.183914
0.182262
0.180566
0.173824
0.167104
0.160362
0.153688
0.142036
0.135407
0.113801
0.102285
0.0858371
0.074457
0.0582353
0.0471267
0.0411538
0.0352262
0.0342986
0.0333032
0.0221041
0.0206561
0.0136878
0.0112217
0.00334843
0.000135753
-0.00337104
-0.0121267
-0.0210407
-0.0301584
-0.0342986
-0.0384842
-0.0426471
-0.0468326
-0.0459955
-0.0500905
-0.0591176
-0.0629412
-0.0615837
-0.0649321
-0.0629412
-0.055543
-0.0527149
-0.0445475
-0.0310633
-0.00230768
0.0366742
0.0658597
0.0902489
0.0897964
0.079457
0.0541855
-0.000995457
-0.091086
-0.206086
-0.331018
-0.445882
-0.545679
-0.615385
-0.685045
-0.729661
-0.764231
-0.783756
-0.798235
-0.81267
-0.812036
-0.816335
-0.800588
-0.784796
-0.743959
-0.7031
-0.652217
-0.586335
-0.520407
-0.439502
-0.373643
-0.307919
-0.257285
-0.211719
-0.171131
-0.140498
-0.114728
-0.0888009
-0.0775339
-0.0607692
-0.0484389
-0.0304977
-0.0171719
0.00156109
0.0206109
0.0299774
0.0495701
0.0593213
0.0791177
0.088914
0.103733
0.118529
0.138303
0.157986
0.172602
0.192036
0.201222
0.215136
0.233778
0.247104
0.265023
0.277602
0.29991
0.306946
0.323778
0.340385
0.356833
0.363077
0.374231
0.380294
0.38129
0.387195
0.383032
0.383756
0.379412
0.379977
0.37543
0.375792
0.381041
0.371199
0.371244
0.361199
0.356086
0.350905
0.345656
0.350407
0.335068
0.334706
0.319253
0.308733
0.293145
0.292511
0.28181
0.275995
0.275113
0.264118
0.2581
0.251991
0.250837
0.239638
0.233416
0.227195
0.210928
0.204683
0.193462
0.17724
0.151041
0.134909
0.123824
0.112805
0.101878
0.0911086
0.0805656
0.070181
0.0549095
0.0496606
0.0493891
0.0440271
0.0384389
0.0325339
0.0261765
0.0193213
0.0119683
0.00420814
0.00115384
-0.00219457
-0.00570139
-0.0143665
-0.0180769
-0.0218326
-0.0306109
-0.0393665
-0.0431448
-0.04181
-0.0453394
-0.0435973
-0.0416063
-0.034276
-0.0315611
-0.0134841
0.01
0.0488009
0.0829412
0.10233
0.111946
0.106787
0.0917873
0.0619231
-0.00782804
-0.112489
-0.237036
-0.366516
-0.460928
-0.555249
-0.62948
-0.703665
-0.752783
-0.791833
-0.80586
-0.814796
-0.82371
-0.832557
-0.836357
-0.820091
-0.803756
-0.767398
-0.725995
-0.669593
-0.61819
-0.556765
-0.480407
-0.40914
-0.347986
-0.296878
-0.250837
-0.209751
-0.173575
-0.13724
-0.115701
-0.0938236
-0.081448
-0.0635294
-0.0500226
-0.0260407
-0.0166742
0.00300903
0.0129864
0.0281221
0.0434389
0.0588235
0.0742308
0.0896606
0.105068
0.120498
0.140814
0.146041
0.161109
0.17095
0.190543
0.209819
0.223733
0.237285
0.255543
0.278484
0.291176
0.313688
0.320995
0.343122
0.355113
0.367014
0.378778
0.380453
0.387036
0.383507
0.384864
0.386154
0.38733
0.383348
0.379253
0.375091
0.37086
0.366538
0.357104
0.352579
0.352986
0.348281
0.343507
0.338688
0.333801
0.313846
0.298801
0.283665
0.278439
0.268145
0.262783
0.257353
0.246878
0.246358
0.235747
0.230068
0.219321
0.213507
0.212647
0.201787
0.185973
0.165158
0.149389
0.123643
0.102964
0.0873303
0.0767874
0.0714027
0.0612444
0.0563349
0.0515159
0.0417647
0.0370136
0.0322172
0.0323303
0.0221493
0.0115611
0.00547512
0.00386878
-0.00814479
-0.0155656
-0.0133032
-0.0263574
-0.0296154
-0.0330543
-0.0415158
-0.045
-0.0535068
-0.0570362
-0.060543
-0.0639593
-0.0622624
-0.0603167
-0.0580995
-0.0505204
-0.0426244
-0.0193891
0.0142534
0.0482353
0.0775339
0.0971041
0.1019
0.0969231
0.0771041
0.0374434
-0.0271267
-0.131561
-0.25095
-0.375249
-0.48448
-0.568597
-0.64267
-0.706697
-0.745679
-0.784593
-0.793439
-0.807217
-0.810973
-0.814661
-0.823348
-0.801991
-0.785611
-0.744231
-0.707828
-0.651448
-0.595023
-0.52362
-0.45733
-0.391176
-0.330091
-0.279005
-0.237896
-0.201652
-0.165317
-0.138756
-0.116878
-0.0945249
-0.0765611
-0.0580769
-0.0441403
-0.0198869
-0.0103167
0.00447966
0.0195475
0.0347285
0.045
0.0552715
0.0705656
0.0908371
0.106086
0.116312
0.131471
0.146538
0.16138
0.176018
0.190385
0.209389
0.227986
0.246222
0.259118
0.271697
0.28905
0.301176
0.3131
0.329864
0.346471
0.362941
0.374276
0.380543
0.381742
0.377805
0.378733
0.374525
0.375181
0.370701
0.366086
0.366358
0.356538
0.346629
0.326629
0.326539
0.32138
0.316154
0.31086
0.300498
0.295113
0.279638
0.264072
0.248416
0.242692
0.236855
0.230928
0.224955
0.218869
0.217738
0.206538
0.200249
0.193869
0.187421
0.17595
0.169457
0.157986
0.136516
0.11509
0.0886877
0.0673529
0.0510859
0.0349547
0.0290045
0.0182126
0.00760177
0.00210404
-0.00832583
-0.0087557
-0.00925343
-0.00990953
-0.0208597
-0.0222398
-0.0291177
-0.0364706
-0.0442987
-0.0524887
-0.0509955
-0.0597738
-0.0687104
-0.0778281
-0.0869683
-0.0861539
-0.095362
-0.0895701
-0.0937783
-0.0878733
-0.0919005
-0.0907014
-0.084276
-0.0825339
-0.0654751
-0.0330317
0.00477375
0.0328959
0.0513348
0.0550226
0.0439367
0.0280317
-0.00271493
-0.063371
-0.158914
-0.284367
-0.399751
-0.495045
-0.570294
-0.64043
-0.69052
-0.750588
-0.780611
-0.805588
-0.81052
-0.820407
-0.820272
-0.825068
-0.824842
-0.809615
-0.794389
-0.749118
-0.708824
-0.653507
-0.593167
-0.517805
-0.452466
-0.382172
-0.321991
-0.2769
-0.23181
-0.196697
-0.161516
-0.136176
-0.110611
-0.0896832
-0.07819
-0.0611538
-0.0386425
-0.0207692
-0.0076018
0.0108145
0.019457
0.0332579
0.047172
0.0611313
0.0800905
0.0940272
0.112873
0.126697
0.135475
0.149186
0.162715
0.171063
0.184118
0.196878
0.214253
0.231267
0.247964
0.264389
0.280566
0.296516
0.307285
0.322919
0.338371
0.358688
0.368914
0.37405
0.379072
0.374027
0.378891
0.37362
0.37319
0.367624
0.3619
0.356086
0.350158
0.349163
0.338054
0.331878
0.320656
0.314321
0.307941
0.301538
0.300091
0.288552
0.276968
0.255294
0.248529
0.241719
0.234819
0.227896
0.220905
0.218846
0.211697
0.204457
0.202172
0.194842
0.182511
0.175158
0.172873
0.160566
0.143281
0.126018
0.108824
0.0917421
0.0748416
0.0681448
0.0566063
0.0502036
0.0388461
0.0325113
0.0311086
0.0346154
0.0278733
0.0257013
0.023009
0.0147964
0.0112217
0.0023303
-0.0068326
-0.0061991
-0.0108145
-0.015543
-0.0253846
-0.0352036
-0.0350679
-0.0399095
-0.0397737
-0.0395927
-0.0343213
-0.0389593
-0.0383484
-0.0375113
-0.0363575
-0.0298643
-0.0129864
0.0092534
0.0418778
0.0697964
0.0829412
0.0863575
0.0799548
0.058733
0.0226244
-0.043371
-0.159276
-0.275136
-0.380882
-0.466516
-0.532059
-0.592579
-0.643032
-0.683462
-0.713824
-0.72414
-0.734412
-0.739593
-0.739729
-0.734796
-0.729842
-0.719864
-0.684864
-0.654864
-0.594864
-0.544842
-0.474774
-0.409683
-0.344615
-0.289638
-0.239751
-0.194932
-0.160113
-0.130249
-0.100271
-0.0750905
-0.0596154
-0.0437104
-0.0273529
-0.0154751
-0.00316742
0.00954752
0.0275792
0.035905
0.0544118
0.0630543
0.0767421
0.0904751
0.109231
0.117941
0.126629
0.145226
0.158733
0.167036
0.180158
0.193054
0.205656
0.222919
0.239796
0.24638
0.262738
0.273869
0.284774
0.295498
0.311086
0.326561
0.341923
0.34724
0.357466
0.362602
0.357647
0.362624
0.362489
0.36724
0.356878
0.351425
0.34586
0.340181
0.334434
0.323597
0.317715
0.301742
0.300701
0.289661
0.283575
0.282443
0.271244
0.270023
0.25371
0.247353
0.235928
0.229412
0.222873
0.21629
0.214661
0.202919
0.201131
0.194299
0.192443
0.180588
0.173756
0.166968
0.155136
0.143348
0.126538
0.109751
0.0980091
0.0814027
0.0649321
0.0586425
0.0525339
0.0364932
0.0304977
0.0245023
0.0234389
0.0222398
0.0207919
0.0188914
0.00651583
-0.00124434
-0.00936652
-0.00773755
-0.0113801
-0.0152036
-0.0241629
-0.0282127
-0.0322851
-0.0414027
-0.0454977
-0.0495928
-0.0485973
-0.0525566
-0.0514253
-0.0450679
-0.0435294
-0.041629
-0.0444344
-0.03681
-0.0188235
0.0145022
0.0481221
0.0769909
0.0911312
0.0904525
0.0799321
0.0495475
0.00432122
-0.0808372
-0.175928
-0.28595
-0.385905
-0.470769
-0.545588
-0.610317
-0.655023
-0.689638
-0.704231
-0.718778
-0.723235
-0.722602
-0.721946
-0.71129
-0.695588
-0.654864
-0.619163
-0.568416
-0.51267
-0.4469
-0.381177
-0.320543
-0.275091
-0.229706
-0.184367
-0.148982
-0.118484
-0.0978055
-0.07681
-0.0653846
-0.0483937
-0.0358371
-0.0177602
0.00076922
0.0196606
0.0338688
0.0483484
0.0579412
0.0726471
0.0873529
0.102149
0.116923
0.126674
0.141357
0.15586
0.160249
0.179412
0.188394
0.207081
0.215452
0.233484
0.246176
0.258597
0.275769
0.28776
0.29957
0.311199
0.332692
0.33905
0.355362
0.361584
0.367738
0.368801
0.369774
0.380656
0.376425
0.387104
0.387692
0.388167
0.378575
0.373846
0.369005
0.359095
0.359118
0.354027
0.348869
0.343665
0.338394
0.328054
0.312647
0.302195
0.281629
0.275995
0.265294
0.264548
0.253756
0.242896
0.231946
0.225928
0.224887
0.213756
0.212602
0.196448
0.190317
0.179208
0.1631
0.152081
0.131063
0.11509
0.0891176
0.0732353
0.0624661
0.0518778
0.0464932
0.031267
0.0261312
0.0209955
0.0208597
0.0106335
0.0102715
0.00959275
0.00850678
0.00196833
-0.0100226
-0.0123529
-0.02
-0.0228959
-0.0309502
-0.0341403
-0.0373756
-0.0506787
-0.0589593
-0.0621946
-0.0604072
-0.058552
-0.0565611
-0.0492986
-0.05181
-0.0440045
-0.040905
-0.0174434
0.0163801
0.0604977
0.0898416
0.109412
0.109208
0.0941629
0.069276
0.0145023
-0.065181
-0.184819
-0.299367
-0.408846
-0.513235
-0.587534
-0.656765
-0.710928
-0.745045
-0.77414
-0.77819
-0.802195
-0.801131
-0.805
-0.793846
-0.767647
-0.741425
-0.700226
-0.663982
-0.597738
-0.536448
-0.460181
-0.398891
-0.342692
-0.296606
-0.260633
-0.224774
-0.188959
-0.1581
-0.137104
-0.125995
-0.109615
-0.0928281
-0.0804977
-0.0626244
-0.0442082
-0.0252941
-0.0109955
-0.00131221
0.0136199
0.0237783
0.0439593
0.0592308
0.0745023
0.0897964
0.10509
0.120362
0.130588
0.150656
0.170588
0.190249
0.204661
0.223688
0.237285
0.250543
0.268484
0.281199
0.298665
0.315928
0.332986
0.339887
0.356652
0.363281
0.364819
0.366244
0.362579
0.368801
0.35991
0.365928
0.36181
0.362602
0.353258
0.348778
0.344208
0.334548
0.329819
0.324977
0.325045
0.315045
0.305
0.289864
0.274661
0.269389
0.25905
0.258643
0.2481
0.242489
0.231833
0.221109
0.215294
0.209389
0.208462
0.197421
0.186312
0.180181
0.17405
0.157964
0.136878
0.120837
0.0997964
0.0888236
0.0728733
0.0570588
0.0514254
0.0460181
0.0407919
0.0356788
0.0356109
0.0304525
0.0252036
0.0247511
0.0240045
0.0177602
0.0110634
0.00391404
-0.00368777
-0.00660633
-0.014819
-0.0182579
-0.0218552
-0.0255656
-0.029276
-0.0380769
-0.0468552
-0.0506335
-0.0543213
-0.0528507
-0.0512217
-0.0493213
-0.0471946
-0.0447059
-0.0368552
-0.0285521
9.04854e-05
0.0340271
0.0732127
0.107602
0.127195
0.126946
0.116855
0.0968552
0.0519004
-0.0329638
-0.147738
-0.267466
-0.387104
-0.486629
-0.576086
-0.65052
-0.70491
-0.754253
-0.768575
-0.792828
-0.797014
-0.811177
-0.810272
-0.809344
-0.803394
-0.772421
-0.746403
-0.695362
-0.654299
-0.578213
-0.502149
-0.431176
-0.370339
-0.319593
-0.273959
-0.238371
-0.202715
-0.171946
-0.141041
-0.119887
-0.0983258
-0.0862217
-0.0685294
-0.0502489
-0.0365158
-0.0224434
-0.00805429
0.00153848
0.0113801
0.0312443
0.0462217
0.0611765
0.0761539
0.091086
0.110996
0.125905
0.140679
0.155317
0.174661
0.193756
0.212511
0.225905
0.248937
0.266606
0.273959
0.291018
0.307828
0.329434
0.335882
0.352195
0.363348
0.369367
0.375272
0.371086
0.376765
0.377308
0.377715
0.372986
0.373145
0.36819
0.3631
0.357964
0.347738
0.342466
0.332127
0.336742
0.331267
0.320679
0.305068
0.294434
0.278733
0.267941
0.262081
0.256109
0.250068
0.243937
0.242738
0.236493
0.230181
0.223824
0.217353
0.210815
0.199186
0.187489
0.175792
0.154095
0.137443
0.120792
0.0991855
0.0726018
0.0560634
0.0446833
0.0335068
0.0225566
0.0117873
0.0111538
0.00556561
0.00497739
0.00429866
-0.00156106
-0.00778279
-0.00947965
-0.0166289
-0.0292987
-0.032353
-0.0307918
-0.0395475
-0.043552
-0.0477376
-0.0519683
-0.0612896
-0.0605882
-0.0699548
-0.0693213
-0.0686652
-0.0729412
-0.0720588
-0.0659955
-0.059638
-0.0580317
-0.0409955
-0.013552
0.0242987
0.0574661
0.090905
0.114548
0.113416
0.102489
0.0767195
0.036086
-0.0494344
-0.169842
-0.300204
-0.435475
-0.530656
-0.615769
-0.680815
-0.730815
-0.785792
-0.800769
-0.830679
-0.830543
-0.845385
-0.840158
-0.839887
-0.839548
-0.819186
-0.798778
-0.748326
-0.707851
-0.63733
-0.566765
-0.486154
-0.415475
-0.349819
-0.294276
-0.248869
-0.20862
-0.178416
-0.148258
-0.123009
-0.102624
-0.0821041
-0.0663348
-0.050181
-0.0384389
-0.0210633
-0.00816741
0.0101358
0.0238235
0.0427376
0.0519231
0.0711991
0.0805656
0.0949547
0.109344
0.128778
0.15319
0.162579
0.17181
0.18595
0.204796
0.218416
0.241719
0.259661
0.277262
0.294525
0.306493
0.323145
0.334548
0.355701
0.366674
0.387489
0.403145
0.408665
0.41405
0.409276
0.414344
0.409299
0.41414
0.413801
0.408326
0.39776
0.387081
0.381312
0.370452
0.359547
0.348575
0.347557
0.341493
0.335339
0.32414
0.302896
0.296584
0.280158
0.273665
0.267127
0.265475
0.253756
0.246968
0.240136
0.22819
0.226199
0.224118
0.216991
0.204842
0.197647
0.180475
0.163303
0.146199
0.124095
0.107127
0.0852941
0.0736652
0.0622398
0.0609955
0.0449095
0.0338462
0.0277828
0.0266063
0.0202941
0.0136425
0.011448
0.00371043
-0.00463799
-0.0133484
-0.0224208
-0.0267421
-0.0312443
-0.0309502
-0.0357014
-0.0405656
-0.0403846
-0.0502489
-0.0550453
-0.0598416
-0.059638
-0.0643439
-0.0689367
-0.0632579
-0.0623529
-0.0610407
-0.0643439
-0.0621946
-0.044638
-0.0166968
0.0265837
0.0751358
0.103914
0.117851
0.111991
0.0912444
0.0655882
0.0150226
-0.0754525
-0.20086
-0.341244
-0.456516
-0.551719
-0.636833
-0.691878
-0.756855
-0.78181
-0.811674
-0.821493
-0.831267
-0.835973
-0.835588
-0.840136
-0.819661
-0.809163
-0.75862
-0.718032
-0.652421
-0.576742
-0.505996
-0.435226
-0.369457
-0.303778
-0.253235
-0.202805
-0.167443
-0.137127
-0.111742
-0.0912217
-0.0705656
-0.0546833
-0.0334163
-0.0215611
-0.014095
0.00395929
0.0224661
0.0364027
0.0555882
0.0700453
0.0846833
0.0994118
0.114163
0.128846
0.143575
0.163258
0.172964
0.187534
0.201923
0.221109
0.240023
0.258688
0.281991
0.3
0.317557
0.329796
0.351697
0.368303
0.384683
0.400882
0.4119
0.422738
0.423439
0.433982
0.429389
0.434661
0.424774
0.424774
0.419615
0.409344
0.403982
0.393575
0.388054
0.377443
0.376787
0.366086
0.355294
0.354457
0.343552
0.342602
0.326606
0.320543
0.309389
0.29819
0.286923
0.280588
0.274208
0.26276
0.256312
0.244751
0.243122
0.241425
0.239661
0.232851
0.220973
0.20914
0.187308
0.17052
0.14871
0.1269
0.105226
0.0836878
0.0673756
0.0563122
0.0504299
0.0345928
0.0337557
0.0328733
0.0319005
0.0257466
0.0241855
0.0271267
0.014457
0.00633483
-0.00219457
-0.0110634
-0.0151131
-0.0194118
-0.0287783
-0.0382805
-0.0427602
-0.0522398
-0.0616968
-0.0611312
-0.0655882
-0.0699095
-0.0741403
-0.0730996
-0.0718552
-0.0702489
-0.0732579
-0.0658597
-0.0530543
-0.0248417
0.018733
0.0526018
0.0867647
0.106109
0.110633
0.0952941
0.0700679
0.0249321
-0.0650905
-0.19
-0.329864
-0.454706
-0.554457
-0.65414
-0.718778
-0.788348
-0.832851
-0.862308
-0.876697
-0.871041
-0.880317
-0.874525
-0.883665
-0.862805
-0.841923
-0.800973
-0.754977
-0.703937
-0.627851
-0.561697
-0.47052
-0.404367
-0.333281
-0.277285
-0.226403
-0.185588
-0.149751
-0.118891
-0.0929186
-0.0718326
-0.0554525
-0.0386199
-0.0211538
-0.00812217
0.0104977
0.0295475
0.0439819
0.0586878
0.0736199
0.0886878
0.0987783
0.113914
0.134005
0.144118
0.164186
0.174231
0.184186
0.198959
0.218484
0.232692
0.251606
0.275113
0.288326
0.306154
0.313688
0.335928
0.352873
0.369638
0.391222
0.40267
0.418982
0.420181
0.426244
0.422149
0.427919
0.433507
0.423937
0.424231
0.419389
0.414434
0.404389
0.409276
0.40405
0.393756
0.388416
0.378032
0.377602
0.362104
0.356606
0.340995
0.335317
0.32457
0.30871
0.297828
0.286878
0.28586
0.269751
0.258575
0.24733
0.24095
0.239548
0.228077
0.216606
0.205113
0.198643
0.182172
0.170724
0.149276
0.127873
0.101561
0.0853846
0.069457
0.0537104
0.0481674
0.0377149
0.0323077
0.0268778
0.0263348
0.0156335
0.00954751
0.00794117
0.00572398
-0.00199096
-0.00511313
-0.00864255
-0.0124434
-0.0215611
-0.0258145
-0.0351584
-0.0395475
-0.048914
-0.0583258
-0.0626923
-0.0620815
-0.0613348
-0.0704525
-0.0693439
-0.0680091
-0.0663801
-0.0643213
-0.0568778
-0.0389367
-0.0156335
0.0230543
0.0620362
0.091267
0.100724
0.105339
0.0901131
0.0650452
0.0100679
-0.0948416
-0.229661
-0.364412
-0.494095
-0.593688
-0.68819
-0.752647
-0.812059
-0.846403
-0.860679
-0.869932
-0.869118
-0.883235
-0.87233
-0.876357
-0.855362
-0.829367
-0.778326
-0.71724
-0.661131
-0.579977
-0.518778
-0.437602
-0.381493
-0.320498
-0.264615
-0.223801
-0.183032
-0.152149
-0.126199
-0.110091
-0.0888009
-0.0721946
-0.0550679
-0.0323529
-0.014095
-0.000361995
0.013733
0.0281674
0.0428507
0.0576923
0.0726697
0.0926471
0.107624
0.122557
0.132511
0.152421
0.162262
0.181968
0.196448
0.210747
0.234729
0.243371
0.261606
0.27448
0.292059
0.309299
0.32129
0.348032
0.359593
0.375996
0.37724
0.383348
0.384344
0.390226
0.390973
0.391629
0.392127
0.387489
0.387715
0.377851
0.372873
0.362783
0.362647
0.357421
0.347104
0.346742
0.336357
0.330905
0.320385
0.314842
0.299253
0.288575
0.277851
0.272059
0.271244
0.255339
0.244389
0.238348
0.23724
0.236063
0.229796
0.223484
0.212149
0.200814
0.189434
0.183077
0.166742
0.145407
0.124118
0.102851
0.0867195
0.0706787
0.0598643
0.0542534
0.0437783
0.0433711
0.0380091
0.0276018
0.0270814
0.0263348
0.0201357
0.018371
0.0110407
0.00316743
-0.00513574
-0.00882351
-0.0127602
-0.0219457
-0.0312669
-0.0356561
-0.0450905
-0.0495023
-0.0539366
-0.0583032
-0.0626697
-0.0619004
-0.0659955
-0.064819
-0.0633032
-0.061448
-0.0541403
-0.0414932
-0.0134389
0.0149095
0.058552
0.0874661
0.111584
0.105882
0.100317
0.0798643
0.0394796
-0.0257692
-0.145928
-0.270995
-0.385973
-0.500882
-0.580724
-0.66052
-0.720272
-0.764977
-0.789615
-0.794208
-0.803733
-0.798213
-0.812647
-0.802059
-0.801448
-0.775792
-0.740091
-0.704367
-0.643643
-0.582873
-0.502149
-0.431493
-0.365973
-0.305543
-0.260136
-0.214706
-0.17914
-0.143462
-0.117602
-0.0965158
-0.0800452
-0.0580769
-0.0405882
-0.0276697
-0.00934388
0.00429866
0.0132127
0.0223529
0.0366516
0.0510181
0.060362
0.0747738
0.0941403
0.103529
0.112873
0.122172
0.136357
0.145339
0.15914
0.177624
0.190837
0.208688
0.216267
0.233575
0.245566
0.262308
0.278824
0.290181
0.306403
0.317511
0.328552
0.33448
0.340294
0.340973
0.341584
0.347059
0.342376
0.347557
0.337624
0.342579
0.332443
0.327217
0.326923
0.321539
0.316131
0.310656
0.310091
0.304502
0.298869
0.288167
0.277421
0.266584
0.260656
0.249661
0.23862
0.232534
0.226357
0.225091
0.223756
0.21733
0.205882
0.199367
0.192828
0.181267
0.174729
0.163167
0.146584
0.125045
0.103529
0.0870815
0.0757014
0.0644797
0.0583937
0.052534
0.04681
0.0462217
0.0456561
0.0450679
0.0444344
0.0336199
0.0275792
0.0210181
0.0189593
0.016448
0.00843892
0.0050905
0.00140272
-0.00253392
-0.0116742
-0.0159276
-0.020181
-0.0244796
-0.028733
-0.0330317
-0.0272398
-0.0364253
-0.0354299
-0.0342308
-0.0278054
-0.0210407
-0.00893665
0.0186199
0.0565385
0.0897964
0.108371
0.112172
0.106222
0.0904525
0.0648416
0.0143439
-0.0660634
-0.17638
-0.286584
-0.381719
-0.471787
-0.541787
-0.606742
-0.656652
-0.701561
-0.72138
-0.726154
-0.740882
-0.735566
-0.750204
-0.739842
-0.739457
-0.71905
-0.683597
-0.648122
-0.592602
-0.542059
-0.471516
-0.415995
-0.355611
-0.300339
-0.255091
-0.209864
-0.174593
-0.144276
-0.123824
-0.11319
-0.0972624
-0.0808824
-0.0589366
-0.0465158
-0.0285973
-0.0103394
0.00319006
0.0119683
0.0259502
0.0351131
0.0492987
0.0635294
0.0777602
0.0870362
0.101267
0.115498
0.124683
0.138778
0.152715
0.16638
0.184819
0.202896
0.215656
0.228032
0.240091
0.256878
0.273394
0.289729
0.30586
0.311833
0.32767
0.333394
0.339005
0.339502
0.344932
0.355272
0.350475
0.35052
0.345407
0.345204
0.339887
0.33948
0.334005
0.333484
0.327873
0.317195
0.316493
0.305747
0.304955
0.289072
0.283122
0.267104
0.250973
0.244819
0.238552
0.23224
0.22586
0.224434
0.222919
0.216335
0.214683
0.207964
0.201222
0.189434
0.18267
0.165882
0.154095
0.13733
0.120588
0.103937
0.0823529
0.0709728
0.0597738
0.0487783
0.0428959
0.0320362
0.0262217
0.025362
0.0244118
0.0232353
0.0167647
0.00977375
0.0073077
-0.000520369
-0.00371043
-0.00714934
-0.0158371
-0.0147059
-0.0287557
-0.0328507
-0.0419683
-0.0461312
-0.0452489
-0.0444118
-0.0485068
-0.0526018
-0.0565385
-0.0602941
-0.0638461
-0.0571041
-0.0500452
-0.0326018
0.000158396
0.0382806
0.0517195
0.0704525
0.074457
0.0736426
0.0579638
0.0273756
-0.0281448
-0.123597
-0.243982
-0.349253
-0.459457
-0.529593
-0.594638
-0.644615
-0.699548
-0.734434
-0.749299
-0.764118
-0.763891
-0.778597
-0.773281
-0.777919
-0.767511
-0.752104
-0.721629
-0.671131
-0.630588
-0.559977
-0.494299
-0.418597
-0.357941
-0.302308
-0.246765
-0.206335
-0.161041
-0.130792
-0.110611
-0.090362
-0.0700452
-0.0546154
-0.043914
-0.0327375
-0.0159502
0.00144797
0.0193439
0.0276697
0.0463348
0.0602941
0.0745249
0.0838688
0.103371
0.122873
0.132443
0.147014
0.161584
0.176131
0.190543
0.204842
0.233869
0.242647
0.266131
0.279321
0.297127
0.309593
0.326787
0.343688
0.360317
0.376719
0.382919
0.393959
0.399819
0.400543
0.406131
0.406606
0.411968
0.402172
0.402262
0.38724
0.387149
0.376968
0.371674
0.371335
0.355882
0.350407
0.344864
0.344321
0.328733
0.333077
0.327353
0.311538
0.300656
0.284706
0.27371
0.262624
0.256516
0.245294
0.244005
0.237624
0.231131
0.224661
0.218145
0.216584
0.2
0.193394
0.181765
0.17009
0.148484
0.131923
0.115498
0.0942307
0.07819
0.0572398
0.0414027
0.0356335
0.0348642
0.034095
0.0282126
0.0271267
0.0256108
0.0186199
0.0111538
0.00819002
-4.52613e-05
-0.00855205
-0.0171946
-0.0210634
-0.0250226
-0.0290272
-0.0330769
-0.0420815
-0.0461312
-0.0501357
-0.0541629
-0.0531222
-0.0620136
-0.060724
-0.0641629
-0.0673756
-0.0702262
-0.0677602
-0.0498869
-0.0366742
-0.00312214
0.0357466
0.0798869
0.104299
0.123891
0.12362
0.113462
0.0933937
0.0333937
-0.0665384
-0.191425
-0.331244
-0.44095
-0.540588
-0.615204
-0.684751
-0.744231
-0.773665
-0.808054
-0.812376
-0.836606
-0.835792
-0.844955
-0.83905
-0.8231
-0.802104
-0.756063
-0.71491
-0.653733
-0.592489
-0.511222
-0.439955
-0.378665
-0.312376
-0.256154
-0.205045
-0.164005
-0.133032
-0.102104
-0.0761086
-0.0600679
-0.0438914
-0.0324434
-0.0105656
0.00185521
0.009819
0.0182353
0.0321041
0.051267
0.0607466
0.0804072
0.0852036
0.105
0.109887
0.124819
0.139683
0.15457
0.179367
0.194072
0.213575
0.227873
0.2469
0.260633
0.279027
0.297014
0.314706
0.342081
0.344231
0.361131
0.372873
0.37948
0.385882
0.392149
0.403281
0.399299
0.400158
0.390905
0.391538
0.382059
0.377466
0.372738
0.362896
0.363009
0.348077
0.3431
0.333054
0.332986
0.317896
0.317738
0.317534
0.307285
0.301991
0.281606
0.276131
0.260611
0.255068
0.24948
0.238824
0.2331
0.227308
0.226471
0.220566
0.219661
0.208688
0.197692
0.186674
0.175611
0.16957
0.153529
0.137602
0.116742
0.101063
0.0805882
0.0652941
0.0551357
0.0450452
0.04
0.0399321
0.0397964
0.0344118
0.0335973
0.0322624
0.0202941
0.0178733
0.0150452
0.0119457
0.00355204
-6.78748e-05
-0.00877829
-0.0126244
-0.021448
-0.030362
-0.0292308
-0.0381222
-0.0419683
-0.045724
-0.0493665
-0.0527376
-0.0558824
-0.053733
-0.051267
-0.0383937
-0.0351358
-0.0215385
0.00744343
0.0467647
0.0764027
0.0963575
0.116516
0.10681
0.0971946
0.0726471
0.0131674
-0.0762444
-0.205543
-0.324796
-0.439005
-0.538213
-0.612353
-0.686425
-0.725453
-0.769412
-0.773349
-0.797195
-0.806018
-0.804796
-0.803552
-0.78724
-0.78086
-0.744457
-0.712986
-0.661493
-0.604955
-0.533371
-0.451742
-0.385091
-0.318462
-0.271833
-0.220362
-0.188982
-0.157647
-0.126357
-0.100023
-0.0786199
-0.0620588
-0.0453167
-0.0331674
-0.0205204
-0.0123077
0.00135748
0.0154525
0.029819
0.0395023
0.0543891
0.0694118
0.0844796
0.0945928
0.104751
0.119796
0.129887
0.144887
0.154842
0.174615
0.194186
0.208575
0.217647
0.231448
0.249864
0.262964
0.280769
0.293348
0.310701
0.317873
0.329887
0.341719
0.348394
0.35991
0.356335
0.362647
0.358846
0.359909
0.355837
0.351674
0.357376
0.352941
0.358416
0.348823
0.344163
0.339457
0.334706
0.32991
0.320045
0.320136
0.310113
0.300045
0.284955
0.279796
0.26957
0.259276
0.253891
0.243416
0.237851
0.227172
0.221471
0.215679
0.209819
0.203914
0.187941
0.176968
0.170928
0.159909
0.148891
0.132964
0.117059
0.0961991
0.0754977
0.0549773
0.0246154
0.00934386
0.00920811
0.0140497
0.0138914
0.0136199
0.00807688
0.00217189
0.000701308
-0.00626701
-0.00371045
-0.0115611
-0.0147286
-0.0232127
-0.02681
-0.0355883
-0.0443439
-0.0531901
-0.0570588
-0.0559276
-0.0647964
-0.0635521
-0.0622625
-0.0657692
-0.064095
-0.0621493
-0.0649095
-0.062285
-0.0542307
-0.0357918
-0.0119457
0.022172
0.0565611
0.0761539
0.090905
0.0858371
0.075905
0.0510634
0.00631223
-0.0833484
-0.202919
-0.327421
-0.436923
-0.536357
-0.600724
-0.680045
-0.724344
-0.768575
-0.782738
-0.801855
-0.810928
-0.799977
-0.808982
-0.787964
-0.7869
-0.750815
-0.724661
-0.688462
-0.632262
-0.576063
-0.494887
-0.433733
-0.372692
-0.326742
-0.275882
-0.240068
-0.204253
-0.173371
-0.147353
-0.121131
-0.109547
-0.087466
-0.074819
-0.0566742
-0.0430995
-0.0342307
-0.0200226
-0.000565574
0.0141177
0.0239141
0.0387557
0.0536425
0.0685294
0.0784163
0.0982353
0.113032
0.132692
0.14724
0.156584
0.175679
0.189525
0.208032
0.226222
0.24905
0.266584
0.288824
0.300837
0.31767
0.334344
0.34586
0.362217
0.363394
0.379434
0.380407
0.386244
0.382014
0.38267
0.38819
0.383552
0.383756
0.378824
0.378688
0.368439
0.363122
0.352783
0.352398
0.351968
0.341471
0.335905
0.325271
0.314548
0.303756
0.297873
0.291923
0.27586
0.269729
0.258507
0.252217
0.245814
0.244344
0.242828
0.231222
0.224615
0.212964
0.20129
0.189615
0.177986
0.161335
0.144728
0.12319
0.0967194
0.0803846
0.0691629
0.0530995
0.0471493
0.0363348
0.0305203
0.0296832
0.0237782
0.0177149
0.00626692
-0.000724033
0.00176466
-0.00622177
-0.0145928
-0.0182128
-0.0221494
-0.0312444
-0.0405204
-0.044819
-0.0541855
-0.0585521
-0.0628733
-0.0672398
-0.0714932
-0.0756787
-0.0796606
-0.0784842
-0.0721041
-0.0703846
-0.058371
-0.040905
-0.00809956
0.0250679
0.0534842
0.0771493
0.0809955
0.0750453
0.054276
0.0136425
-0.0568552
-0.172308
-0.292647
-0.407941
-0.503145
-0.573303
-0.653416
-0.703462
-0.758416
-0.778303
-0.798167
-0.812986
-0.81776
-0.822489
-0.812195
-0.816833
-0.786425
-0.77095
-0.735475
-0.695023
-0.644502
-0.578982
-0.518462
-0.443009
-0.387624
-0.32733
-0.287081
-0.25181
-0.221471
-0.19095
-0.160226
-0.13414
-0.112534
-0.100271
-0.0774661
-0.0691629
-0.055543
-0.0365837
-0.0173982
0.00199092
0.0164706
0.0360407
0.0506561
0.0702488
0.0848416
0.0993439
0.113846
0.128235
0.142466
0.161471
0.180226
0.203643
0.221674
0.239366
0.261697
0.27871
0.29543
0.306946
0.328281
0.344434
0.360452
0.376357
0.382104
0.397738
0.403258
0.408643
0.403937
0.409095
0.404118
0.399027
0.403801
0.398394
0.407873
0.40724
0.401516
0.385724
0.379842
0.373869
0.362828
0.351697
0.345475
0.344163
0.33276
0.326335
0.309819
0.29819
0.286471
0.274661
0.267805
0.25586
0.248869
0.236787
0.234661
0.232489
0.225249
0.208009
0.195747
0.183507
0.17129
0.149163
0.137081
0.115045
0.0981222
0.0763348
0.0647511
0.0583032
0.0520588
0.0408597
0.0296833
0.0234389
0.0170136
0.0153168
0.00812218
0.00547513
-0.00266965
-0.00617643
-0.0149321
-0.0240271
-0.0333258
-0.0428733
-0.0474887
-0.0521719
-0.0568778
-0.0616063
-0.0663575
-0.0710181
-0.0756787
-0.080181
-0.0745701
-0.068733
-0.0726923
-0.0663575
-0.054638
-0.0275566
0.00495476
0.0377602
0.0658597
0.0691629
0.0676697
0.0413348
0.005181
-0.0608371
-0.176742
-0.307534
-0.428281
-0.533891
-0.60948
-0.685
-0.73043
-0.780792
-0.801063
-0.82629
-0.836448
-0.841561
-0.846584
-0.836561
-0.836516
-0.811425
-0.78629
-0.741109
-0.695905
-0.630656
-0.555362
-0.485
-0.409615
-0.354253
-0.293982
-0.258824
-0.223756
-0.188665
-0.158462
-0.133122
-0.107579
-0.0867195
-0.0703394
-0.0483032
-0.0356335
-0.0125113
0.00606334
0.0199095
0.0340498
0.0533937
0.0679186
0.087534
0.0972172
0.111923
0.126538
0.146176
0.165701
0.185136
0.204367
0.218416
0.237262
0.250792
0.268982
0.291742
0.31414
0.336176
0.342919
0.359389
0.370656
0.386742
0.397624
0.408371
0.424005
0.424525
0.42991
0.425204
0.425385
0.415453
0.410385
0.415204
0.409864
0.414389
0.403778
0.4031
0.382353
0.376516
0.365588
0.359593
0.358552
0.347421
0.341244
0.319977
0.313665
0.297285
0.28086
0.274344
0.267715
0.265996
0.259163
0.252262
0.240317
0.238326
0.23629
0.224186
0.217059
0.209887
0.197738
0.180611
0.173552
0.156493
0.134525
0.112624
0.0908371
0.079276
0.0728733
0.0666516
0.0554751
0.0493439
0.0381448
0.0367873
0.035181
0.0280317
0.0253394
0.0121493
0.00855206
-0.000339355
-0.00954751
-0.013914
-0.0234842
-0.0281222
-0.0328507
-0.0376018
-0.0473982
-0.0521719
-0.0519004
-0.0566063
-0.0611312
-0.0655204
-0.059638
-0.058552
-0.0520815
-0.0552262
-0.0479638
-0.0252489
0.00778282
0.0461539
0.0747285
0.0885068
0.0774661
0.0615837
0.0308145
-0.034819
-0.135339
-0.275769
-0.411086
-0.516357
-0.611516
-0.676606
-0.746629
-0.786584
-0.831448
-0.841267
-0.856018
-0.865747
-0.86043
-0.870068
-0.849638
-0.839118
-0.803529
-0.767873
-0.722195
-0.661493
-0.590724
-0.509932
-0.43914
-0.368416
-0.312805
-0.257353
-0.221991
-0.186629
-0.151199
-0.120633
-0.0948643
-0.0736878
-0.056991
-0.044638
-0.0266742
-0.00814481
0.00576922
0.0250679
0.0446154
0.0643891
0.0792986
0.0892534
0.104276
0.124208
0.139163
0.149005
0.158801
0.178439
0.192873
0.212081
0.22595
0.23948
0.252534
0.270204
0.292534
0.309593
0.331403
0.348032
0.359434
0.370634
0.381697
0.397647
0.403462
0.414186
0.409819
0.415362
0.410792
0.411131
0.401358
0.401425
0.40638
0.391222
0.390973
0.380656
0.375272
0.364796
0.354231
0.353575
0.342851
0.347104
0.33629
0.325407
0.309412
0.298348
0.292195
0.28095
0.274661
0.268258
0.26181
0.255294
0.258733
0.247081
0.245385
0.238665
0.221878
0.215091
0.198281
0.196561
0.174887
0.163258
0.141629
0.115
0.0985294
0.0822172
0.0711539
0.0602489
0.054457
0.0486652
0.0478281
0.0419005
0.0356787
0.0290498
0.0218326
0.019095
0.0109276
0.00742082
-0.00135746
-0.0104525
-0.0196833
-0.024095
-0.0284842
-0.0329412
-0.0373982
-0.04181
-0.0462217
-0.0554977
-0.0597059
-0.0636878
-0.0624661
-0.0559729
-0.0641176
-0.0568552
-0.039095
-0.00595023
0.0375792
0.0764027
0.110498
0.119774
0.119231
0.0988688
0.0636652
-0.0114253
-0.126403
-0.26629
-0.406109
-0.530837
-0.625475
-0.715023
-0.76448
-0.818869
-0.84319
-0.862466
-0.876719
-0.875928
-0.885045
-0.869118
-0.86319
-0.827263
-0.791312
-0.745339
-0.689367
-0.618371
-0.527443
-0.456606
-0.385905
-0.330294
-0.274751
-0.239186
-0.193529
-0.15776
-0.126719
-0.100226
-0.0781448
-0.0604299
-0.0420814
-0.0282353
-0.0138914
0.00579187
0.0207919
0.0408824
0.0511312
0.0614253
0.0766968
0.0919457
0.107172
0.122421
0.142511
0.157466
0.177195
0.186697
0.200905
0.219729
0.23819
0.256244
0.273982
0.291425
0.303597
0.325543
0.337308
0.353914
0.365385
0.381787
0.393077
0.404299
0.42043
0.421425
0.427308
0.4181
0.413846
0.414434
0.414932
0.425294
0.415498
0.415566
0.40052
0.395362
0.385091
0.374751
0.369321
0.358846
0.358281
0.347624
0.336878
0.316018
0.305091
0.284072
0.277986
0.27681
0.26552
0.259163
0.242692
0.241176
0.229615
0.223032
0.211448
0.199819
0.193213
0.176606
0.165023
0.148462
0.126991
0.105498
0.0740724
0.0577602
0.0416063
0.030724
0.0250452
0.0195475
0.0141176
0.00871041
0.00325792
0.00266968
-0.00319005
-0.00952489
-0.0164027
-0.0238688
-0.0318552
-0.0452715
-0.054095
-0.0580769
-0.0622851
-0.0665611
-0.070905
-0.0752715
-0.084638
-0.0890045
-0.0882579
-0.0874661
-0.081448
-0.0802262
-0.0686878
-0.0668099
-0.0444796
-0.0166516
0.0265837
0.065181
0.0940724
0.108235
0.102579
0.087172
0.0369457
-0.0531222
-0.168032
-0.302851
-0.432579
-0.547217
-0.651787
-0.731312
-0.800747
-0.830113
-0.864389
-0.86862
-0.877828
-0.871968
-0.876086
-0.885158
-0.859186
-0.838145
-0.787059
-0.745928
-0.674819
-0.598688
-0.527534
-0.451403
-0.390339
-0.329367
-0.278529
-0.232805
-0.197081
-0.166312
-0.14043
-0.119321
-0.102828
-0.0857919
-0.0680769
-0.0496833
-0.0257466
-0.0163575
-0.00160634
0.0184615
0.033733
0.0491629
0.0646833
0.0852263
0.100747
0.121244
0.141719
0.157036
0.17724
0.192217
0.211968
0.231403
0.250475
0.274163
0.292421
0.310339
0.327896
0.345271
0.367443
0.379389
0.406109
0.417647
0.429095
0.435407
0.436652
0.44776
0.438756
0.439638
0.435385
0.436041
0.426584
0.427014
0.42233
0.417443
0.417443
0.402308
0.397081
0.391787
0.386425
0.380973
0.37043
0.364819
0.34914
0.338371
0.317511
0.306538
0.295475
0.294321
0.293077
0.276742
0.270362
0.258869
0.25233
0.240724
0.239118
0.227466
0.215814
0.209185
0.192602
0.181086
0.154593
0.133167
0.101787
0.0805429
0.059457
0.0485746
0.0379411
0.032466
0.0271267
0.016742
0.0113122
0.00567871
-0.00536202
-0.00683261
-0.0138236
-0.0213122
-0.029276
-0.0326697
-0.0414254
-0.0504751
-0.0595928
-0.0688462
-0.0730769
-0.0823303
-0.0815158
-0.0857014
-0.0898869
-0.0939367
-0.0978507
-0.0964932
-0.0898869
-0.0878507
-0.080362
-0.0624661
-0.0341403
-0.000497719
0.0434842
0.0777376
0.0972398
0.0969231
0.0867647
0.0467421
-0.02319
-0.133032
-0.272805
-0.407489
-0.527081
-0.621561
-0.710995
-0.785362
-0.829638
-0.863869
-0.873054
-0.887217
-0.88129
-0.890317
-0.889276
-0.86319
-0.847081
-0.800905
-0.759683
-0.688416
-0.617127
-0.540792
-0.464412
-0.398009
-0.336674
-0.300453
-0.254367
-0.213371
-0.167443
-0.141425
-0.120317
-0.0990271
-0.0874434
-0.0654073
-0.0477376
-0.0245023
-0.00574661
0.00843892
0.0230317
0.0328507
0.0429638
0.0631448
0.0784163
0.0987104
0.113959
0.129208
0.144434
0.164638
0.184683
0.199593
0.219253
0.23862
0.257624
0.281222
0.299457
0.317308
0.32991
0.347262
0.359367
0.38629
0.398009
0.41457
0.415973
0.422285
0.423484
0.42457
0.420566
0.416425
0.417149
0.417715
0.413145
0.408394
0.403507
0.403507
0.388439
0.383258
0.368009
0.372692
0.367285
0.36181
0.361244
0.340566
0.319842
0.299027
0.288122
0.277127
0.276063
0.26991
0.253688
0.247376
0.235973
0.229525
0.217986
0.211448
0.199864
0.193258
0.181629
0.169955
0.153326
0.126719
0.100181
0.0786652
0.0572624
0.0460181
0.0299321
0.019095
0.0084163
0.00289593
-0.00260181
-0.00812217
-0.0088009
-0.0147738
-0.0162217
-0.0232805
-0.030905
-0.0390271
-0.0475113
-0.0563801
-0.065543
-0.0698869
-0.0743891
-0.073914
-0.0835068
-0.0880543
-0.0926245
-0.0921493
-0.0915385
-0.0958598
-0.0999321
-0.0987557
-0.0922172
-0.0902941
-0.0829412
-0.0751584
-0.0470136
-0.00852942
0.0351357
0.0740498
0.0981448
0.102443
0.0919005
0.0614706
0.00113122
-0.0991629
-0.229344
-0.364457
-0.479457
-0.579389
-0.669253
-0.729072
-0.793869
-0.813643
-0.838348
-0.843009
-0.847602
-0.852172
-0.851697
-0.851131
-0.820498
-0.799819
-0.749118
-0.698371
-0.627602
-0.55681
-0.485996
-0.410204
-0.354502
-0.298937
-0.258462
-0.223009
-0.187489
-0.156878
-0.131131
-0.110181
-0.0938688
-0.0770362
-0.0595928
-0.041629
-0.0182353
-0.00450228
0.00952487
0.0238235
0.0382579
0.047828
0.0573982
0.0769683
0.0915158
0.106018
0.120566
0.135045
0.154457
0.173688
0.18767
0.20629
0.224548
0.242421
0.259887
0.277036
0.288891
0.305452
0.321787
0.332919
0.348869
0.354638
0.365272
0.370769
0.376176
0.386516
0.381742
0.386855
0.37681
0.381606
0.376267
0.370792
0.370249
0.359593
0.358869
0.343054
0.337172
0.331199
0.325158
0.319072
0.312919
0.306719
0.29543
0.284095
0.267647
0.261109
0.24948
0.242783
0.241018
0.234163
0.232285
0.225317
0.218326
0.206267
0.199186
0.197104
0.185
0.167873
0.155747
0.13871
0.116697
0.0947738
0.0778959
0.0611539
0.054638
0.0433032
0.0421946
0.0412217
0.0303394
0.0244344
0.0234163
0.0221267
0.015362
0.0130543
0.00513575
0.00174209
-0.0070362
-0.0111539
-0.0155204
-0.0201584
-0.0248416
-0.0296154
-0.0343665
-0.0341403
-0.0389366
-0.0537557
-0.058552
-0.0582127
-0.0577376
-0.0569909
-0.0509955
-0.0446154
-0.0328507
-0.0156787
0.0169005
0.0547964
0.0880317
0.101493
0.110136
0.0989366
0.0829185
0.0370136
-0.0387783
-0.15448
-0.290091
-0.410634
-0.511109
-0.586471
-0.651765
-0.717014
-0.752195
-0.787285
-0.78733
-0.80233
-0.80224
-0.807104
-0.811923
-0.801697
-0.791425
-0.751063
-0.715634
-0.655158
-0.594638
-0.51905
-0.438394
-0.367692
-0.306946
-0.256199
-0.210475
-0.174864
-0.139367
-0.108959
-0.0835973
-0.0632353
-0.047828
-0.0423077
-0.0265837
-0.015543
-0.00400452
0.00805431
0.0206787
0.0337104
0.0421267
0.0558371
0.064819
0.0790045
0.0932806
0.112647
0.127014
0.141425
0.155792
0.170158
0.189434
0.198575
0.222511
0.241222
0.259706
0.272828
0.290634
0.313077
0.325204
0.342036
0.348643
0.365
0.376131
0.382081
0.387896
0.393552
0.39905
0.389434
0.389706
0.379842
0.379842
0.379706
0.369457
0.374163
0.363756
0.358326
0.342873
0.33733
0.331719
0.331041
0.335317
0.324502
0.323643
0.312692
0.296719
0.280656
0.274525
0.268326
0.257059
0.250724
0.239276
0.23776
0.236222
0.239638
0.232941
0.231176
0.219389
0.207557
0.200747
0.183937
0.167217
0.145566
0.129027
0.112647
0.0914254
0.0804299
0.0745249
0.0737104
0.0628507
0.061991
0.0559502
0.0495928
0.0427376
0.0402715
0.0373077
0.028914
0.0202489
0.0163575
0.00723983
-0.00699094
-0.0163575
-0.0256787
-0.0350452
-0.0393665
-0.0436878
-0.0479864
-0.0522172
-0.0614027
-0.0653394
-0.0690724
-0.0674887
-0.0706109
-0.0733258
-0.0706108
-0.0674887
-0.0589819
-0.0401584
-0.00106332
0.0332579
0.0677602
0.0824208
0.0922398
0.0871493
0.0671267
0.0321493
-0.0427149
-0.147511
-0.272262
-0.391946
-0.486584
-0.576154
-0.640679
-0.710136
-0.75457
-0.788959
-0.813303
-0.817579
-0.831765
-0.825905
-0.83
-0.814072
-0.7931
-0.757127
-0.721063
-0.674955
-0.603801
-0.537647
-0.456493
-0.390362
-0.324367
-0.278462
-0.22767
-0.1869
-0.151063
-0.120158
-0.0940724
-0.0727376
-0.0559729
-0.043733
-0.030905
-0.0175792
0.00124434
0.0154525
0.025
0.044819
0.0547511
0.0647511
0.0797738
0.0948416
0.114864
0.129932
0.149955
0.164909
0.184706
0.194321
0.213665
0.23267
0.251357
0.269638
0.287557
0.315158
0.332489
0.344593
0.356516
0.373326
0.389977
0.401516
0.417919
0.419231
0.43043
0.421516
0.422466
0.418281
0.418982
0.42457
0.410023
0.405407
0.395724
0.396018
0.381267
0.376471
0.371584
0.366629
0.366584
0.356471
0.351312
0.336086
0.320792
0.30543
0.294977
0.289412
0.278733
0.272986
0.262149
0.256244
0.245317
0.239367
0.238371
0.222285
0.211176
0.2
0.193824
0.177647
0.161493
0.140385
0.114321
0.0933032
0.077353
0.061629
0.056086
0.0507466
0.0405204
0.0403846
0.0402489
0.035
0.024638
0.0189367
0.0178281
0.0112217
0.00914029
0.00167422
-0.00619907
-0.0142986
-0.0177149
-0.0212896
-0.0249774
-0.0287104
-0.0424208
-0.0461765
-0.0498643
-0.048552
-0.0471041
-0.045543
-0.0488009
-0.0468326
-0.0445701
-0.0369231
-0.023914
-0.000452487
0.038371
0.0725339
0.101946
0.121606
0.116493
0.106538
0.0717421
0.0220814
-0.0674887
-0.181968
-0.311403
-0.430769
-0.540091
-0.624299
-0.708462
-0.762579
-0.796629
-0.815656
-0.834661
-0.84862
-0.842534
-0.851358
-0.835113
-0.828824
-0.792511
-0.761131
-0.714729
-0.653281
-0.586787
-0.500249
-0.42871
-0.362217
-0.310792
-0.259457
-0.21819
-0.186923
-0.155566
-0.129072
-0.107421
-0.0954072
-0.0729638
-0.0598869
-0.0413122
-0.0272172
-0.0127602
0.00205883
0.017172
0.0274887
0.0429186
0.0533937
0.0589593
0.074457
0.0949774
0.110407
0.130792
0.151086
0.166199
0.181086
0.195679
0.214955
0.233801
0.252308
0.275475
0.288348
0.30595
0.323303
0.330475
0.337443
0.349253
0.36595
0.372511
0.388982
0.395339
0.396584
0.392692
0.388665
0.38448
0.385158
0.390701
0.381131
0.376425
0.366674
0.356878
0.346991
0.342036
0.347059
0.337014
0.336878
0.321674
0.306403
0.291041
0.280611
0.280091
0.26448
0.263801
0.253077
0.242308
0.226471
0.215588
0.209593
0.198529
0.192421
0.176312
0.170272
0.164231
0.148213
0.127217
0.111244
0.0953394
0.0744797
0.0587783
0.0482806
0.0379865
0.0328507
0.0228507
0.0228281
0.0177602
0.0125566
0.0121493
0.00640275
0.00518101
-0.00156105
-0.00380088
-0.0165158
-0.0195701
-0.028009
-0.0316516
-0.0354072
-0.0392308
-0.0431448
-0.0471041
-0.0560181
-0.0649548
-0.0637557
-0.0624887
-0.0660181
-0.0693439
-0.0673756
-0.0650453
-0.0623756
-0.0492534
-0.0257692
0.0130543
0.0471267
0.071448
0.0809955
0.0756561
0.0604751
0.0354073
-0.0295475
-0.12448
-0.254299
-0.374027
-0.488688
-0.573281
-0.652828
-0.712308
-0.771765
-0.801222
-0.820611
-0.839977
-0.839344
-0.848643
-0.832873
-0.827082
-0.806244
-0.775362
-0.72948
-0.678575
-0.62267
-0.541787
-0.476018
-0.405385
-0.349819
-0.294321
-0.248778
-0.213145
-0.177398
-0.146448
-0.120113
-0.103213
-0.0907466
-0.0727149
-0.0492534
-0.0304072
-0.011267
0.0081448
0.0177149
0.0324434
0.0472398
0.0670588
0.0768778
0.0866742
0.101448
0.121109
0.130679
0.145091
0.159276
0.173213
0.19181
0.21
0.227783
0.245226
0.262398
0.274299
0.285995
0.297489
0.313801
0.324887
0.340814
0.356629
0.367353
0.373009
0.363507
0.368914
0.364253
0.364457
0.364548
0.359525
0.364412
0.354186
0.348846
0.338416
0.332896
0.322308
0.321629
0.320905
0.315136
0.309299
0.293394
0.282398
0.266312
0.255136
0.248869
0.237489
0.236063
0.224548
0.212986
0.20638
0.204706
0.197986
0.191222
0.184412
0.167534
0.155701
0.143846
0.127014
0.105158
0.0833484
0.0715837
0.0548416
0.0431674
0.0316063
0.0252941
0.0191403
0.0081448
0.0122172
0.00628959
0.00529413
-0.00081446
0.00282808
-0.003914
-0.0161538
-0.0188688
-0.0270814
-0.0306561
-0.0396154
-0.0388009
-0.0382353
-0.0477602
-0.0523529
-0.0569909
-0.0666063
-0.0712443
-0.0707692
-0.0702715
-0.0696154
-0.063733
-0.0625339
-0.0560181
-0.0391629
-0.00190045
0.0407013
0.0736651
0.0969004
0.100407
0.0941403
0.0730543
0.0321267
-0.0436878
-0.154367
-0.274977
-0.38552
-0.475973
-0.561312
-0.631584
-0.696787
-0.736901
-0.771991
-0.782036
-0.797059
-0.802014
-0.806923
-0.81181
-0.796652
-0.781448
-0.741244
-0.701018
-0.645792
-0.585543
-0.510249
-0.435
-0.369842
-0.309796
-0.264842
-0.219932
-0.185
-0.154977
-0.119774
-0.0942987
-0.0733937
-0.0618552
-0.0496833
-0.0269457
-0.00884616
0.00461538
0.0233484
0.0323529
0.0464932
0.0557466
0.0650679
0.0793665
0.0936652
0.107919
0.122172
0.136312
0.150385
0.159253
0.172896
0.191267
0.209276
0.2319
0.24914
0.271063
0.287692
0.299072
0.315294
0.326335
0.337149
0.352851
0.363462
0.373982
0.379412
0.389774
0.385023
0.395181
0.390226
0.395158
0.389955
0.384615
0.384208
0.38371
0.383122
0.367443
0.366674
0.355837
0.34991
0.343959
0.342919
0.341833
0.330633
0.319389
0.298054
0.281606
0.27509
0.268484
0.27181
0.260023
0.253213
0.241335
0.234367
0.222353
0.215294
0.208167
0.196018
0.193914
0.17681
0.154751
0.127738
0.105747
0.0838235
0.0719909
0.0603619
0.0489592
0.0427601
0.0366968
0.0307013
0.0247058
0.0236425
0.0273981
0.0207918
0.0187556
0.011199
0.00321263
-0.0051584
-0.0088688
-0.0128733
-0.022172
-0.0266516
-0.0312896
-0.0309276
-0.0356109
-0.0452715
-0.0499547
-0.0546606
-0.054276
-0.0538009
-0.0530996
-0.047172
-0.0459276
-0.0443439
-0.0223529
0.0100452
0.0478054
0.080905
0.0992534
0.102851
0.091629
0.0655656
0.0146606
-0.0661312
-0.19181
-0.322421
-0.442986
-0.533462
-0.608846
-0.674163
-0.734389
-0.764593
-0.794751
-0.804887
-0.809977
-0.815023
-0.815
-0.81991
-0.804751
-0.78957
-0.744367
-0.69914
-0.643869
-0.578552
-0.50319
-0.43276
-0.372308
-0.311855
-0.266471
-0.231199
-0.201018
-0.160928
-0.14086
-0.120701
-0.105452
-0.0899774
-0.0792082
-0.0679638
-0.0562217
-0.038914
-0.0261991
-0.0130543
0.000429859
0.00920814
0.0181674
0.0322851
0.0464706
0.0656109
0.0797964
0.0939366
0.108077
0.127127
0.141086
0.164887
0.183462
0.201742
0.219661
0.237195
0.254389
0.27129
0.292964
0.304389
0.325633
0.341674
0.352557
0.363303
0.373937
0.37948
0.374932
0.380339
0.375611
0.375724
0.375679
0.370498
0.370226
0.364864
0.359434
0.348914
0.343303
0.332624
0.326878
0.321086
0.320249
0.324412
0.308484
0.302534
0.286493
0.280385
0.269186
0.262919
0.261629
0.260272
0.258891
0.247421
0.240928
0.229367
0.227738
0.226063
0.219367
0.212692
0.200995
0.189344
0.172715
0.156131
0.13957
0.123122
0.106833
0.090724
0.079819
0.0690045
0.0632353
0.0574434
0.0565611
0.0554977
0.049095
0.0421267
0.0395928
0.0365837
0.02819
0.0195249
0.0105882
0.0064027
0.00212668
-0.00230771
-0.0117421
-0.0161765
-0.0255882
-0.0349774
-0.0443665
-0.0436652
-0.0428959
-0.0468552
-0.0506109
-0.0490498
-0.047172
-0.0448869
-0.0372398
-0.0192308
0.00914028
0.0427602
0.0765837
0.105588
0.119819
0.114163
0.10362
0.0631448
0.00273756
-0.0925792
-0.207851
-0.323077
-0.418235
-0.508326
-0.588348
-0.658326
-0.698281
-0.73319
-0.748054
-0.752851
-0.762557
-0.762217
-0.766833
-0.75138
-0.73086
-0.695294
-0.654638
-0.598937
-0.53819
-0.467376
-0.396516
-0.335588
-0.279638
-0.233688
-0.197828
-0.162036
-0.13129
-0.110611
-0.0899095
-0.0741403
-0.0632805
-0.0523077
-0.0359955
-0.0192308
-0.00692307
0.00588235
0.00909503
0.0226697
0.0315611
0.0457014
0.0649774
0.0793665
0.0937557
0.10319
0.117579
0.127036
0.146471
0.155769
0.17491
0.188824
0.207511
0.225905
0.233959
0.246697
0.25414
0.276312
0.288235
0.304932
0.316448
0.327805
0.334027
0.335136
0.346131
0.342036
0.347828
0.343529
0.34414
0.344638
0.345023
0.345294
0.335475
0.335588
0.330611
0.325566
0.320453
0.310294
0.305091
0.304819
0.299525
0.284186
0.278778
0.263303
0.257738
0.252081
0.241335
0.245566
0.234706
0.228778
0.217805
0.211765
0.205634
0.199434
0.198213
0.181991
0.180792
0.164593
0.158416
0.14224
0.131109
0.110045
0.0890724
0.0782353
0.0675566
0.0570588
0.0467195
0.0414932
0.036267
0.0360181
0.0356335
0.0249547
0.023914
0.0223756
0.0203846
0.0129864
0.00522625
0.00214933
-0.00124434
-0.00977375
-0.0134615
-0.0221493
-0.0308371
-0.0345249
-0.0382127
-0.0469005
-0.0504977
-0.0539593
-0.0572172
-0.0552489
-0.0529638
-0.055362
-0.0523756
-0.0540045
-0.0452715
-0.0262217
0.00307692
0.0375566
0.0622172
0.0870362
0.0919457
0.0869231
0.0720136
0.042172
-0.0276018
-0.132308
-0.251946
-0.361516
-0.456018
-0.535498
-0.60991
-0.669276
-0.70862
-0.737896
-0.747127
-0.761312
-0.755453
-0.769548
-0.758597
-0.742579
-0.711561
-0.675475
-0.629367
-0.573213
-0.502014
-0.430769
-0.364525
-0.303371
-0.25724
-0.211222
-0.180294
-0.144434
-0.11362
-0.0927602
-0.0718326
-0.0607466
-0.0444344
-0.0376923
-0.0304072
-0.0175792
-0.00425339
0.00950226
0.0185973
0.0279412
0.0425113
0.0572172
0.0720136
0.08681
0.101629
0.116403
0.121176
0.135928
0.15552
0.169955
0.18914
0.2081
0.231742
0.240068
0.2631
0.275792
0.28819
0.300317
0.31724
0.328982
0.340566
0.347014
0.343303
0.344525
0.345611
0.351606
0.347489
0.343281
0.343937
0.344434
0.344864
0.340204
0.335453
0.325656
0.320792
0.31586
0.305882
0.31086
0.295724
0.290543
0.275339
0.270091
0.259751
0.249299
0.248801
0.238235
0.237602
0.2219
0.216131
0.205272
0.204367
0.198394
0.19233
0.181222
0.170068
0.158914
0.142783
0.131674
0.115588
0.0995249
0.0784842
0.0624435
0.0515159
0.045724
0.0401358
0.0346833
0.0343891
0.0391403
0.0288914
0.0235973
0.0181448
0.0174208
0.0162444
0.00959277
0.00248869
-0.00497736
-0.0127602
-0.0208597
-0.0192081
-0.0227149
-0.0263348
-0.0299774
-0.0386651
-0.0423077
-0.0510181
-0.0546154
-0.0531222
-0.056448
-0.0545928
-0.0524887
-0.0500905
-0.0573077
-0.0491176
-0.025543
-0.00160631
0.0326018
0.0670588
0.0916742
0.111493
0.106471
0.0915611
0.0667647
0.0120362
-0.0776018
-0.202217
-0.321787
-0.43129
-0.525747
-0.600136
-0.66448
-0.713778
-0.748032
-0.77224
-0.77638
-0.790475
-0.784502
-0.783507
-0.782511
-0.761471
-0.730385
-0.689253
-0.6431
-0.576878
-0.515588
-0.444344
-0.3781
-0.316946
-0.265882
-0.224909
-0.188982
-0.158009
-0.126946
-0.105747
-0.0893891
-0.0726697
-0.0554299
-0.0426471
-0.0293891
-0.015724
0.00330317
0.0126244
0.0271493
0.0417873
0.0465158
0.0612217
0.0759502
0.0906335
0.105317
0.124955
0.139457
0.148824
0.162964
0.181878
0.205475
0.218756
0.236674
0.249276
0.266606
0.278665
0.29552
0.307149
0.323643
0.34
0.351267
0.362421
0.363462
0.364367
0.365158
0.36086
0.361448
0.3569
0.36724
0.362466
0.362602
0.35267
0.347692
0.33767
0.332602
0.327534
0.322376
0.327172
0.3169
0.311561
0.296154
0.285634
0.270045
0.259367
0.253597
0.247738
0.241833
0.235882
0.229864
0.223801
0.21767
0.216516
0.200294
0.19405
0.182805
0.176539
0.165294
0.154072
0.137919
0.116742
0.0956335
0.0746607
0.058801
0.0481222
0.0426245
0.0322625
0.0270136
0.0217874
0.0164706
0.0110408
0.00536203
0.00436657
-0.00212666
-0.00907236
-0.0114932
-0.0193439
-0.0274886
-0.0359276
-0.0395475
-0.0433032
-0.0521493
-0.0559955
-0.0649095
-0.0637556
-0.0676018
-0.0714253
-0.0701131
-0.0736199
-0.0668552
-0.069819
-0.0674208
-0.0547059
-0.0365837
-0.00809955
0.0207014
0.0497738
0.0740498
0.0735068
0.0630769
0.0378054
-0.00235295
-0.0824434
-0.197466
-0.312421
-0.422308
-0.517149
-0.596946
-0.661652
-0.706335
-0.735973
-0.760566
-0.765158
-0.774706
-0.769186
-0.778643
-0.763054
-0.747421
-0.721742
-0.686086
-0.640385
-0.579638
-0.518824
-0.438009
-0.377217
-0.316538
-0.270905
-0.230339
-0.189774
-0.159163
-0.133462
-0.117579
-0.101493
-0.0850226
-0.0630769
-0.0506335
-0.0377602
-0.0245249
-0.0060181
0.00276018
0.01681
0.0309955
0.0453167
0.054638
0.0639819
0.0782579
0.0875792
0.101833
0.111018
0.125158
0.144095
0.162851
0.18629
0.199457
0.217217
0.234683
0.251833
0.268733
0.280385
0.296855
0.308167
0.319321
0.325339
0.336267
0.342059
0.34776
0.353371
0.353891
0.354321
0.344661
0.344864
0.339955
0.334955
0.334796
0.32948
0.324095
0.318643
0.3131
0.302489
0.306833
0.306109
0.305294
0.284412
0.268484
0.247489
0.241403
0.240272
0.229072
0.227805
0.216471
0.210068
0.203597
0.197036
0.195453
0.183778
0.182127
0.17543
0.16371
0.152014
0.130317
0.113688
0.0970362
0.0854299
0.0638914
0.0474661
0.0361991
0.0250905
0.0191629
0.0133937
0.0176697
0.0119231
0.00608598
0.00504526
0.00368778
0.0018552
-0.00545248
-0.00821266
-0.0113574
-0.0198416
-0.0236199
-0.0275565
-0.0316063
-0.0357466
-0.0399321
-0.0491629
-0.0483484
-0.0525566
-0.0516516
-0.0556561
-0.0495023
-0.0531674
-0.0515611
-0.0496154
-0.0423303
-0.0245928
0.00848415
0.0318778
0.0554977
0.0693213
0.0683484
0.0625113
0.03681
0.00117647
-0.0743665
-0.179842
-0.290226
-0.385566
-0.470837
-0.531041
-0.596199
-0.646312
-0.68138
-0.71138
-0.721335
-0.731244
-0.726131
-0.740995
-0.730815
-0.720588
-0.705362
-0.67009
-0.634774
-0.579389
-0.528959
-0.453529
-0.398122
-0.332783
-0.282511
-0.232262
-0.197014
-0.166674
-0.136222
-0.110611
-0.0897511
-0.0734842
-0.0566742
-0.0443213
-0.0265159
-0.0133258
0.000113107
0.0187783
0.0276244
0.0315611
0.0505882
0.0746154
0.0836878
0.0977149
0.111787
0.125792
0.134706
0.148507
0.167127
0.180566
0.193643
0.206403
0.223733
0.235769
0.247489
0.258959
0.270249
0.286312
0.302195
0.317919
0.323529
0.339072
0.339502
0.349864
0.355181
0.355362
0.355453
0.350407
0.355294
0.350068
0.349751
0.344299
0.338688
0.333009
0.322217
0.311357
0.300407
0.294457
0.288462
0.292421
0.281312
0.270136
0.258937
0.247647
0.236312
0.229909
0.228439
0.2169
0.210271
0.20362
0.2069
0.205136
0.198303
0.191493
0.179661
0.172828
0.160995
0.154208
0.137421
0.120679
0.104005
0.0823982
0.0659276
0.054638
0.0484841
0.0424434
0.0364932
0.0356108
0.0297059
0.0287104
0.0225565
0.0211086
0.0192081
0.0168326
0.00907238
0.000972828
0.00264704
-0.00595024
-0.00975114
-0.0186878
-0.0227149
-0.0317647
-0.0358145
-0.034819
-0.043914
-0.0479186
-0.0468778
-0.050724
-0.0493891
-0.0528733
-0.0460633
-0.0389593
-0.021448
0.00635747
0.0345022
0.0529412
0.0616742
0.0556335
0.0397737
0.0140724
-0.0365159
-0.116991
-0.232398
-0.347715
-0.442986
-0.528167
-0.583303
-0.643394
-0.683394
-0.708371
-0.733326
-0.733213
-0.748009
-0.742805
-0.757534
-0.747217
-0.736855
-0.706471
-0.666041
-0.625543
-0.565023
-0.509457
-0.433869
-0.373213
-0.302534
-0.256878
-0.216244
-0.175679
-0.140204
-0.109819
-0.089457
-0.0740724
-0.0585973
-0.043009
-0.0372172
-0.0160407
-0.00436649
0.0078507
0.0106109
0.0238235
0.0373982
0.0512444
0.0752715
0.0844797
0.10371
0.117986
0.137195
0.146425
0.155588
0.164661
0.183688
0.202511
0.211131
0.229457
0.242489
0.260136
0.272466
0.289548
0.311335
0.317919
0.334299
0.345566
0.356674
0.35767
0.363552
0.369321
0.37
0.370566
0.371063
0.366448
0.356765
0.351968
0.342036
0.336991
0.331855
0.331629
0.326357
0.310995
0.310611
0.305158
0.304661
0.294072
0.288416
0.282715
0.271923
0.261063
0.250136
0.244186
0.238145
0.232036
0.22086
0.214615
0.203303
0.196923
0.200543
0.189095
0.187647
0.176222
0.169751
0.163303
0.151855
0.135475
0.11914
0.107941
0.0968552
0.0809276
0.0651131
0.0493439
0.0385973
0.0328054
0.0319457
0.0258597
0.0244344
0.0175113
0.0150905
0.00728506
0.00414026
0.000791847
-0.00780544
-0.0115158
-0.0203167
-0.0241855
-0.0280543
-0.0269683
-0.0358371
-0.0397511
-0.0435973
-0.0473756
-0.0509502
-0.0543213
-0.0524434
-0.0552489
-0.0527602
-0.0548416
-0.0515837
-0.0379186
-0.0239819
0.000226229
0.034638
0.0692534
0.0890272
0.0888914
0.0838462
0.0588914
0.0240272
-0.0558145
-0.165543
-0.285204
-0.409819
-0.504412
-0.588982
-0.648484
-0.692941
-0.737285
-0.746584
-0.765815
-0.76
-0.774118
-0.763213
-0.747262
-0.731312
-0.695294
-0.659208
-0.603122
-0.547014
-0.47086
-0.404706
-0.34862
-0.292602
-0.251629
-0.210769
-0.179864
-0.143891
-0.122828
-0.101652
-0.0852263
-0.068371
-0.0509728
-0.0380543
-0.024638
-0.0208823
-0.00683257
0.00746608
0.0219231
0.0364932
0.0560634
0.065724
0.0853394
0.0949548
0.109548
0.124072
0.143484
0.162647
0.176652
0.200385
0.213846
0.226923
0.239683
0.257195
0.274457
0.286538
0.303416
0.315136
0.331674
0.338145
0.349548
0.350837
0.352059
0.36319
0.364231
0.365204
0.361086
0.361855
0.352511
0.358077
0.353552
0.348914
0.349186
0.339344
0.334434
0.324434
0.324367
0.319231
0.314027
0.308756
0.298394
0.287964
0.277466
0.271923
0.25629
0.250566
0.239751
0.238846
0.232941
0.226968
0.22095
0.214864
0.208756
0.192624
0.186448
0.170294
0.159163
0.148054
0.126968
0.110905
0.0898416
0.0738688
0.0529638
0.0471946
0.036629
0.0312217
0.0309502
0.0256787
0.0204299
0.0150679
0.0145701
0.00875566
0.00248869
0.000746615
-0.00651582
-0.00416289
-0.0121719
-0.0154072
-0.0238235
-0.0324208
-0.0360633
-0.0397737
-0.0434389
-0.0471493
-0.0557466
-0.0542308
-0.0576018
-0.0607692
-0.0587104
-0.0513122
-0.0535746
-0.0404298
-0.0169231
0.0119005
0.0410181
0.0703168
0.0748416
0.0695249
0.0593892
0.0343213
-0.0156335
-0.105498
-0.225249
-0.339932
-0.44957
-0.529163
-0.603756
-0.663281
-0.707738
-0.737149
-0.741516
-0.760815
-0.755091
-0.769321
-0.763529
-0.75267
-0.726765
-0.680815
-0.649796
-0.593756
-0.542647
-0.466538
-0.405452
-0.354434
-0.303507
-0.267647
-0.231855
-0.201041
-0.170181
-0.159231
-0.138122
-0.121742
-0.104977
-0.0926923
-0.0748643
-0.0615385
-0.0478507
-0.0337783
-0.019457
-0.00497736
0.00968328
0.0243439
0.0340724
0.0487783
0.0585294
0.0782579
0.0978959
0.112466
0.131833
0.146041
0.169955
0.183597
0.201855
0.214796
0.232421
0.254729
0.271833
0.29371
0.29543
0.316968
0.323371
0.339661
0.345837
0.351901
0.362805
0.35862
0.359321
0.354955
0.355498
0.350882
0.356154
0.351312
0.351358
0.346244
0.336063
0.335792
0.325453
0.325068
0.314615
0.314072
0.308462
0.29776
0.286968
0.271086
0.260158
0.24914
0.2431
0.231991
0.225769
0.219502
0.218145
0.211765
0.205317
0.198869
0.182398
0.170882
0.159389
0.147896
0.131448
0.11
0.0886426
0.0722851
0.0560181
0.0398417
0.0288236
0.0280091
0.017353
0.0117647
0.0061539
0.010543
0.00484169
-0.00104067
-0.012285
-0.0140271
-0.0162443
-0.0189366
-0.0219457
-0.0302715
-0.0388462
-0.0426244
-0.0465385
-0.0504299
-0.0544118
-0.0533258
-0.0572851
-0.0661765
-0.07
-0.0686425
-0.0720362
-0.0702263
-0.0680769
-0.0606109
-0.0477376
-0.0245475
0.00891402
0.0376244
0.0615385
0.0706109
0.0698416
0.0642081
0.0336199
-0.0168552
-0.10224
-0.217534
-0.327783
-0.437964
-0.5181
-0.60819
-0.663213
-0.70819
-0.743122
-0.747986
-0.767805
-0.762625
-0.782398
-0.782127
-0.77181
-0.756448
-0.716041
-0.685566
-0.625045
-0.57448
-0.498937
-0.438439
-0.372986
-0.317647
-0.27733
-0.237059
-0.201719
-0.166357
-0.140882
-0.120272
-0.0993439
-0.0779864
-0.056086
-0.0386878
-0.0258597
-0.0177149
-0.0042534
0.014457
0.028371
0.037466
0.0515611
0.0707466
0.0849095
0.0990724
0.11319
0.12724
0.141222
0.160023
0.173665
0.197059
0.215181
0.232986
0.245452
0.262579
0.274389
0.285973
0.312308
0.318462
0.334457
0.340339
0.356086
0.356697
0.362217
0.367602
0.367896
0.3681
0.35819
0.363145
0.352964
0.352647
0.347217
0.351674
0.346041
0.330317
0.324547
0.313688
0.31276
0.301787
0.295792
0.284729
0.273552
0.262308
0.250995
0.244661
0.233258
0.22681
0.220271
0.218665
0.216968
0.205204
0.203416
0.191584
0.184774
0.172941
0.166063
0.149186
0.13733
0.12052
0.0987104
0.0769683
0.0602715
0.0486652
0.0371719
0.0308371
0.0196833
0.0186652
0.0127602
0.0118552
0.0109729
0.00497738
-0.00122172
-0.00780543
-0.00986424
-0.0123756
-0.015362
-0.0186425
-0.0273303
-0.0312217
-0.0353168
-0.0445701
-0.0488462
-0.04819
-0.0524887
-0.0618552
-0.0611765
-0.0604072
-0.0645475
-0.0684841
-0.0722172
-0.0656108
-0.0537104
-0.0313801
-0.0137104
0.0243213
0.0476471
0.0711991
0.0749548
0.0688914
0.0630091
0.0372398
-0.0184163
-0.108982
-0.224412
-0.324728
-0.424977
-0.495181
-0.570339
-0.62543
-0.675453
-0.71043
-0.715362
-0.735249
-0.735068
-0.744842
-0.73457
-0.729276
-0.713937
-0.683575
-0.648122
-0.597647
-0.547104
-0.486538
-0.425973
-0.360452
-0.300045
-0.254706
-0.209412
-0.174027
-0.14362
-0.118122
-0.0925339
-0.0667195
-0.0505656
-0.033914
-0.0217647
-0.00914026
