ekg
0
0.00333333
-0.021
-0.0271429
-0.0111111
-0.00045453
0.00269231
0.02
0.0229412
0.0244737
0.00571428
0.005
0.0266
0.0451852
0.0389655
0.0530645
0.0698485
0.0577143
0.0548649
0.0734615
0.0931707
0.0839535
0.0691111
0.0706383
0.0706122
0.0707843
0.0498113
0.0588182
0.0774561
0.0912712
0.0532787
0.0409524
0.0276923
0.0199254
0.0113768
0.0220423
0.0263699
0.00013335
-0.0209091
-0.0312025
-0.0538272
-0.0763253
-0.0840588
-0.0728736
-0.0955056
-0.123297
-0.140699
-0.121421
-0.0952062
-0.108131
-0.129356
-0.110874
-0.0725238
-0.0886449
-0.0949083
-0.0857207
-0.0783186
-0.100652
-0.0973077
-0.0658824
-0.0676033
-0.100528
-0.115
-0.0909055
-0.0828682
-0.106832
-0.0830075
-0.0653333
-0.0489781
-0.0384173
-0.00329787
0.0265035
0.0468966
0.0621429
0.0773154
0.0874834
0.0628105
0.0477419
0.0679618
0.142547
0.18205
0.18138
0.161121
0.175539
0.214497
0.257953
0.251214
0.213914
0.216808
0.228687
0.235331
0.23153
0.212405
0.173102
0.123386
0.0788743
0.0347409
0.0254102
0.00175126
-0.0571357
-0.0909951
-0.0796059
-0.0483415
-0.0468599
-0.0754785
-0.0991706
-0.0873239
-0.080814
-0.0992166
-0.117237
-0.120498
-0.0642987
0.0169909
0.163167
0.329412
0.460747
0.552104
0.618394
0.654842
0.566425
0.523032
0.55448
0.715973
0.812737
0.689683
0.371538
0.0883936
-0.00966075
-0.0278282
-0.141041
-0.294095
-0.412036
-0.410113
-0.373303
-0.321448
-0.289638
-0.247873
-0.221245
-0.224525
-0.202715
-0.196041
-0.174638
-0.193439
-0.22224
-0.245928
-0.23957
-0.223213
-0.231923
-0.235792
-0.234774
-0.248824
-0.267873
-0.257082
-0.231516
-0.250747
-0.274842
-0.26905
-0.228552
-0.233122
-0.237557
-0.226968
-0.211403
-0.240769
-0.269955
-0.264254
-0.253597
-0.242783
-0.232082
-0.201652
-0.18129
-0.180747
-0.185226
-0.155
-0.11491
-0.139706
-0.159367
-0.139073
-0.0788463
-0.0487785
-0.0538237
-0.0388916
-0.0138463
-0.00359744
0.00656092
0.0314025
0.0360858
0.0308596
0.0455655
0.0951809
0.084932
0.0150904
-0.00945714
0.036018
0.0665383
-0.00264719
-0.0414481
-0.0250002
-0.00841647
-0.0117422
-0.0150454
-0.00834858
-0.0366517
-0.0351133
-0.0238237
-0.0225567
-0.036335
-0.0552943
-0.0495251
-0.0238463
-0.0133486
-0.0485522
-0.0894572
-0.0960635
-0.0732581
-0.0560635
-0.079344
-0.0878282
-0.126312
-0.144796
-0.123982
-0.119095
-0.129683
-0.164095
-0.161358
-0.166358
-0.149955
-0.127738
-0.0945929
-0.0954073
-0.105701
-0.0964028
-0.0674888
-0.0686427
-0.0992535
-0.11448
-0.0953395
-0.0777377
-0.0814481
-0.0707467
-0.0652942
-0.0852942
-0.0957241
-0.0816743
-0.0777149
-0.09362
-0.0894571
-0.0852263
-0.0807919
-0.0961539
-0.101629
-0.0620137
-0.0422852
-0.0124661
-0.0277829
-0.0633032
-0.0838688
-0.0744118
-0.0547964
-0.0452489
-0.0406788
-0.0360408
-0.0565837
-0.0422624
0.00212675
-0.0283484
-0.0790045
-0.0797512
-0.0304751
0.00386882
-0.00196826
-0.0229185
-0.043733
-0.0444344
-0.0502715
-0.0464027
-0.0476018
-0.0788462
-0.0501358
-0.011448
0.0124208
0.0112443
0.0199095
0.0585068
0.0822172
0.0810407
0.054638
0.0330769
0.0614931
0.105204
0.139118
0.148122
0.152149
0.131108
0.165181
0.244321
0.288642
0.273009
0.257376
0.256946
0.241787
0.221516
0.190905
0.180339
0.145
0.0897964
0.0394118
0.0238914
-0.0166742
-0.0772851
-0.0827828
-0.0731448
-0.068371
-0.0386198
-0.00382349
-0.0390723
-0.0795249
-0.0849095
-0.0702262
-0.0605204
-0.0457692
0.0490271
0.168665
0.333054
0.492421
0.626833
0.70138
0.72086
0.730226
0.734344
0.868416
1.0526
1.15174
0.945769
0.549638
0.19362
0.0475791
-0.00341633
-0.119344
-0.285226
-0.36629
-0.367579
-0.328914
-0.285249
-0.24672
-0.238303
-0.224729
-0.206063
-0.202624
-0.174457
-0.14129
-0.158077
-0.220045
-0.227172
-0.20948
-0.206968
-0.17457
-0.162014
-0.169344
-0.191629
-0.173982
-0.17629
-0.198281
-0.200317
-0.192172
-0.178778
-0.195181
-0.196584
-0.217941
-0.213914
-0.224661
-0.24043
-0.216425
-0.207624
-0.213756
-0.219728
-0.200792
-0.207149
-0.208371
-0.184231
-0.149932
-0.130814
-0.152217
-0.164434
-0.167466
-0.136176
-0.120475
-0.105136
-0.0901358
-0.0797738
-0.0943213
-0.0691855
-0.0397738
-0.0356788
-0.0355656
-0.0236878
-9.04948e-05
0.014095
0.0381221
0.0323982
0.0172398
-0.00751136
0.0027149
0.0427828
0.027647
0.0225792
0.00766964
0.00273751
-0.00230774
-0.0323982
-0.0424435
-0.0275792
-0.0228055
-0.058258
-0.0638688
-0.0647512
-0.0958598
-0.107195
-0.0835973
-0.060181
-0.0919683
-0.128665
-0.155453
-0.182421
-0.194231
-0.175701
-0.132285
-0.164208
-0.201177
-0.203168
-0.190113
-0.191923
-0.19319
-0.178937
-0.178959
-0.163168
-0.171697
-0.174955
-0.153258
-0.131629
-0.135023
-0.132851
-0.109977
-0.0867194
-0.0793439
-0.0988688
-0.100113
-0.0970815
-0.0942986
-0.0771267
-0.0458824
-0.0149096
-0.00398199
0.0170135
0.0380316
0.0242081
-0.034525
-0.0431675
0.0182126
0.0695022
0.0759276
0.067466
0.0839366
0.105136
0.156335
0.197579
0.203891
0.17052
0.147217
0.138869
0.135498
0.11733
0.0841176
0.110747
0.0973529
0.0241176
-0.0589367
-0.0820136
-0.0850905
-0.153348
-0.196561
-0.189842
-0.138145
-0.116335
-0.119593
-0.112851
-0.126018
-0.113982
-0.147036
-0.180136
-0.18319
-0.151063
-0.0588235
0.0983937
0.275611
0.417715
0.55
0.627466
0.670068
0.617692
0.635317
0.728009
0.885792
0.963733
0.776561
0.40948
0.027534
-0.129253
-0.115973
-0.142534
-0.224072
-0.280701
-0.267398
-0.229027
-0.205498
-0.187104
-0.143688
-0.0952489
-0.0869457
-0.093733
-0.105724
-0.10267
-0.104548
-0.0864027
-0.063371
-0.0402941
-0.0471719
-0.0493213
-0.0515837
-0.053733
-0.0707919
-0.0980317
-0.0704298
-0.0278733
-0.0354977
-0.0781448
-0.0906787
-0.0579864
-0.0555203
-0.0381674
-0.0408597
-0.058552
-0.0862443
-0.083914
-0.0814027
-0.103914
-0.121312
-0.108869
-0.0815611
-0.0593439
-0.0521946
-0.045181
-0.0180769
-0.00570135
-0.0182353
0.00420813
0.0263575
0.0382805
0.0400679
0.0569005
0.0938914
0.0708597
0.0777149
0.0994117
0.136357
0.138416
0.12543
0.117285
0.129389
0.151878
0.149412
0.156991
0.154751
0.152986
0.146561
0.155656
0.145045
0.109344
0.108575
0.112783
0.097104
0.0712896
0.0802715
0.0941176
0.0981221
0.0722398
0.0461086
0.0345927
0.0325791
0.0500452
0.0415158
0.0421267
0.0269005
0.021267
0.0408597
0.0309955
0.00196832
-0.0265837
-0.0148869
-0.00861993
0.00221717
-0.0065611
-0.0142986
-0.0304525
-0.040181
-0.0139819
-0.0170815
-0.034276
-0.0408372
-0.0225113
-0.0047285
-0.0269683
-0.013914
-0.0104299
0.0283032
0.0162444
0.00244343
-0.00825791
-0.00968324
-0.0208145
-0.0319683
-0.0285294
-0.0404072
-0.0471719
-0.0438009
-0.030181
-0.0412896
-0.0621041
-0.0377828
-0.0235294
-0.00925338
-0.0299774
-0.0306787
-0.0313801
-0.0418099
-0.0569231
-0.0669457
-0.0370136
-0.0221719
-0.022285
-0.0173982
-0.00753388
-0.00773752
-0.0227375
-0.00755653
-0.0124887
-0.0175565
-0.0225791
-0.00242075
-0.0123077
-0.00208142
0.0131901
0.0131901
0.00803173
-0.0171493
-0.0121945
-0.0223755
0.00223985
0.0267874
0.0663801
0.101177
0.125928
0.105769
0.0657014
0.0656335
0.0754752
0.120453
0.170543
0.205543
0.200566
0.185747
0.226154
0.286335
0.336493
0.306833
0.307444
0.308122
0.288778
0.229525
0.210362
0.256335
0.25724
0.213235
0.129276
0.0804073
0.021629
0.00298652
0.0344118
0.0207014
0.00705892
-0.0214479
0.00993223
0.041154
0.0424662
0.0389367
0.00538468
-0.00830309
-0.00212662
0.0890951
0.205294
0.361516
0.512828
0.709231
0.85552
0.831697
0.712964
0.539299
0.425543
0.386629
0.452783
0.519005
0.435158
0.24129
-0.0125112
-0.166267
-0.190113
-0.198891
-0.262692
-0.321561
-0.250452
-0.179276
-0.152986
-0.121765
-0.0555203
-0.0293439
-0.0379864
-0.0167647
0.0241629
0.0299548
-0.0192534
-0.0383484
-0.0274208
-0.0113348
-0.0203167
-0.00957014
-0.0390045
-0.0784841
-0.0978507
-0.0772624
-0.0517194
-0.0614253
-0.0713122
-0.0711538
-0.070905
-0.110452
-0.154955
-0.149389
-0.143823
-0.123099
-0.132376
-0.131561
-0.140407
-0.148891
-0.162104
-0.155226
-0.133077
-0.140769
-0.158462
-0.161267
-0.144118
-0.146968
-0.154661
-0.10733
-0.0950905
-0.0827376
-0.105339
-0.0930317
-0.061086
-0.0294797
-0.00834845
-0.027896
-0.00814484
-0.0187104
-0.00925344
0.0054072
0.0157239
0.0115384
0.0126245
0.0485294
0.0491855
0.0352941
0.0277149
0.0617421
0.0816968
0.0719004
0.0570815
0.0524887
0.053009
0.0332579
0.0330317
0.0325113
0.0520362
0.0464706
0.040543
0.0241855
0.00255655
-0.0143439
-0.0362896
-0.0380996
-0.0499548
-0.07181
-0.0587783
-0.0456335
-0.052353
-0.0689819
-0.0555883
-0.0473303
-0.0391177
-0.0558824
-0.0473077
-0.0282127
-0.0483711
-0.0577828
-0.036267
-0.0041629
0.0078507
-0.00565609
-0.0048416
0.0103846
0.0154525
0.0158824
0.0516064
0.0569457
0.0414706
0.0199322
0.0326018
0.0450227
0.0473077
0.0443439
0.0411086
0.043077
0.0353168
0.0276471
0.0351358
0.0528055
0.0503847
0.067896
0.120453
0.143032
0.145566
0.112828
0.1
0.0722398
0.0795475
0.136787
0.183914
0.21095
0.177919
0.16991
0.206991
0.279231
0.336561
0.308891
0.291154
0.248416
0.230611
0.202738
0.194842
0.192036
0.209434
0.191878
0.124276
0.0567194
-0.000927597
-0.0337104
-0.0763801
-0.113869
-0.116312
-0.093914
-0.0614028
-0.0687557
-0.0911765
-0.0787104
-0.0560181
-0.0829865
-0.114887
-0.0869684
-0.0140498
0.0890271
0.222262
0.415588
0.608869
0.707308
0.685769
0.604231
0.462805
0.366493
0.355181
0.448846
0.542602
0.441448
0.140226
-0.171041
-0.31224
-0.313371
-0.33448
-0.380701
-0.401968
-0.358281
-0.309615
-0.261199
-0.222873
-0.199412
-0.160882
-0.147444
-0.134254
-0.131177
-0.138145
-0.135204
-0.137263
-0.149299
-0.15138
-0.143597
-0.14095
-0.158371
-0.165656
-0.167806
-0.169932
-0.166991
-0.149254
-0.146674
-0.153982
-0.166267
-0.17362
-0.156018
-0.158349
-0.160566
-0.182783
-0.165045
-0.167331
-0.179661
-0.176901
-0.173982
-0.186018
-0.203122
-0.180407
-0.147738
-0.125
-0.13224
-0.129616
-0.102172
-0.0898192
-0.0824889
-0.0852265
-0.0578282
-0.0101812
-0.00255671
0.00981885
0.0469908
0.0642306
0.0765157
0.078665
0.0755202
0.0770813
0.0835519
0.120226
0.112127
0.0892532
0.0663347
0.0683256
0.0604976
0.033122
0.0261763
0.0441853
0.0472397
0.0253618
-0.00144812
0.0118098
4.50611e-05
-0.0218328
-0.0386201
-0.0254527
-0.0426473
-0.0302491
-0.0130771
-0.0310861
-0.0492762
-0.0676246
-0.0509957
-0.0794572
-0.093326
-0.0829188
-0.0682355
-0.0739368
-0.140045
-0.146652
-0.13353
-0.125204
-0.131561
-0.137693
-0.138982
-0.150204
-0.16543
-0.178869
-0.16586
-0.172331
-0.184163
-0.186222
-0.177715
-0.158055
-0.172602
-0.167738
-0.164706
-0.148326
-0.147851
-0.167557
-0.162421
-0.16267
-0.158145
-0.178281
-0.127896
-0.112127
-0.126086
-0.14991
-0.138824
-0.103077
-0.102376
-0.111448
-0.115566
-0.119706
-0.138914
-0.153303
-0.112715
-0.0722401
-0.0668554
-0.116561
-0.135996
-0.135317
-0.144797
-0.119344
-0.0788916
-0.0884165
-0.117964
-0.117489
-0.0921268
-0.0816969
-0.101177
-0.120679
-0.115475
-0.100475
-0.090543
-0.115656
-0.120792
-0.131086
-0.136493
-0.121991
-0.102421
-0.107625
-0.112919
-0.0886652
-0.0547286
-0.0355657
-0.0411992
-0.0369458
-0.0629186
-0.103643
-0.104072
-0.0345928
0.0596832
0.0640045
0.0534163
0.0478507
0.097104
0.131357
0.155837
0.165294
0.15957
0.13362
0.10767
0.116765
0.110769
0.0797285
0.038552
0.0171946
-0.0142081
-0.075362
-0.111448
-0.157873
-0.164434
-0.146199
-0.1531
-0.165181
-0.15724
-0.139299
-0.151154
-0.14776
-0.154457
-0.161312
-0.163348
-0.125339
-0.00744349
0.140475
0.273529
0.366606
0.474706
0.552511
0.575407
0.553394
0.551335
0.599253
0.762082
0.934887
0.90267
0.600452
0.253122
0.0506787
-0.0168326
-0.0692308
-0.211539
-0.379005
-0.466516
-0.444005
-0.346312
-0.298597
-0.245837
-0.21319
-0.205928
-0.173824
-0.151606
-0.189253
-0.262081
-0.304955
-0.332986
-0.346109
-0.294208
-0.212217
-0.195045
-0.24767
-0.250158
-0.24776
-0.240385
-0.217986
-0.220385
-0.192285
-0.173665
-0.174774
-0.246086
-0.277511
-0.248914
-0.235362
-0.221742
-0.228077
-0.234434
-0.255837
-0.242149
-0.243213
-0.269118
-0.270249
-0.231742
-0.173507
-0.165656
-0.173507
-0.172443
-0.141946
-0.136765
-0.141606
-0.141335
-0.165973
-0.131018
-0.0470135
0.016697
-0.0136877
-0.0520361
-0.0237781
0.0200227
-0.011199
-0.0321719
-0.00755647
0.0476472
0.073439
0.0693666
0.0750227
0.115317
0.110566
0.0609277
0.071335
0.14681
0.18724
0.162602
0.127896
0.148394
0.148892
0.149027
0.178801
0.203394
0.147873
0.107036
0.150996
0.189751
0.218552
0.222602
0.241742
0.245815
0.224706
0.18853
0.14733
0.14629
0.160407
0.179457
0.183326
0.17724
0.156833
0.137263
0.148258
0.139367
0.140769
0.117579
0.114706
0.136606
0.138258
0.155113
0.162715
0.160996
0.148914
0.160317
0.194932
0.198484
0.156742
0.129638
0.16672
0.187851
0.158552
0.114299
0.105588
0.107217
0.129073
0.190973
0.227873
0.200023
0.172172
0.189073
0.245543
0.291742
0.292873
0.25905
0.245769
0.237919
0.190181
0.147263
0.164412
0.161606
0.133778
0.0711087
-0.00151578
-0.0789818
-0.136357
-0.143665
-0.141312
-0.148982
-0.15129
-0.143371
-0.11543
-0.122579
-0.144774
-0.166923
-0.198891
-0.225837
-0.197919
-0.139955
-0.0768778
0.0215158
0.185045
0.398575
0.517036
0.575724
0.574548
0.563394
0.56224
0.645905
0.849751
0.939005
0.773552
0.343054
-0.0174887
-0.132828
-0.153145
-0.248665
-0.379208
-0.439593
-0.474774
-0.499706
-0.449525
-0.374344
-0.314095
-0.303982
-0.289072
-0.293937
-0.288122
-0.297014
-0.306041
-0.340317
-0.344661
-0.29414
-0.25371
-0.233054
-0.237285
-0.226765
-0.21638
-0.215747
-0.229864
-0.263801
-0.287783
-0.281855
-0.230837
-0.194796
-0.198824
-0.228032
-0.267285
-0.256493
-0.215701
-0.184751
-0.213869
-0.248032
-0.23724
-0.166403
-0.120724
-0.130136
-0.174638
-0.144253
-0.0889366
-0.083733
-0.083371
-0.0577375
-0.0069683
0.0286426
0.0789367
0.114072
0.114072
0.143824
0.183371
0.227986
0.237466
0.25172
0.230792
0.205023
0.209593
0.234299
0.244118
0.223959
0.248891
0.268982
0.294457
0.315475
0.307036
0.288801
0.225407
0.216923
0.213348
0.204525
0.19052
0.186471
0.202511
0.193575
0.184367
0.179751
0.179909
0.164683
0.168869
0.14224
0.0898869
0.051991
0.0585294
0.069819
0.0708371
0.0369457
0.00789596
-0.00187778
-0.0029864
-0.0197511
-0.0103393
-0.0236651
-0.0447964
-0.0495475
-0.0282127
-0.0407918
-0.0571945
-0.058009
-0.0486651
-0.0243212
-0.019819
-0.0145927
-0.00400452
-0.0142082
-0.0364706
-0.0505883
-0.0103168
0.0049095
-0.0100679
-0.0204751
-0.0112669
-0.0423982
-0.0738235
-0.0700678
-0.0459954
-0.0214027
-0.0265837
-0.0666968
-0.141923
-0.167149
-0.162466
-0.143009
-0.108733
-0.0792986
-0.0595249
-0.0795249
-0.079457
-0.0793891
-0.089276
-0.0991628
-0.114095
-0.124072
-0.109208
-0.0695022
-0.0848642
-0.11
-0.129932
-0.129842
-0.119819
-0.115
-0.095362
-0.125792
-0.116177
-0.126719
-0.137466
-0.138281
-0.113846
-0.0942308
-0.0998417
-0.0807014
-0.0464932
-0.0221041
-0.0428054
-0.098552
-0.134163
-0.114525
-0.0347059
0.0352489
0.0703846
0.0854977
0.105724
0.131131
0.186855
0.212715
0.213416
0.17414
0.104977
0.10095
0.141923
0.177941
0.134118
0.0755656
0.0121493
-0.0461312
-0.114231
-0.15233
-0.145566
-0.133982
-0.11733
-0.105633
-0.103937
-0.0721946
-0.0905204
-0.118914
-0.117353
-0.0957014
-0.119005
-0.0873756
0.039276
0.225995
0.382489
0.503575
0.639548
0.72586
0.782308
0.743756
0.76
0.891041
1.16192
1.33785
1.13885
0.704842
0.320634
0.18129
0.157059
0.0379412
-0.161425
-0.291018
-0.335611
-0.335113
-0.28457
-0.239321
-0.229299
-0.219276
-0.194231
-0.144321
-0.124615
-0.134661
-0.184706
-0.220045
-0.195679
-0.156335
-0.117104
-0.108213
-0.104593
-0.16095
-0.202081
-0.203235
-0.184593
-0.181244
-0.172919
-0.134502
-0.130928
-0.171968
-0.197715
-0.208235
-0.20371
-0.209072
-0.209276
-0.199389
-0.189321
-0.194321
-0.194457
-0.184548
-0.164457
-0.164661
-0.175113
-0.185407
-0.200407
-0.195339
-0.145543
-0.091086
-0.0721946
-0.0688915
-0.0616063
-0.0401584
-0.0291856
-0.0282806
0.00780539
0.0139592
0.0252714
0.036199
0.0562217
0.0606787
0.0509276
0.0431221
0.0371493
0.0573303
0.0528733
0.0586199
0.0646832
0.0659276
0.0423303
0.0239592
0.0755882
0.0520814
0.0032579
-0.0210634
0.00434387
0.00486425
-0.0493891
-0.0838462
-0.0936878
-0.0988914
-0.119253
-0.129774
-0.12052
-0.14629
-0.171991
-0.187579
-0.198167
-0.223869
-0.214412
-0.185068
-0.185905
-0.216787
-0.232557
-0.218394
-0.239118
-0.249118
-0.223258
-0.181697
-0.189683
-0.252059
-0.26414
-0.255973
-0.237986
-0.214887
-0.181154
-0.181312
-0.200814
-0.181267
-0.143643
-0.132783
-0.16267
-0.167647
-0.128235
-0.0997964
-0.107059
-0.124615
-0.117353
-0.0550226
-0.00757918
-0.0052036
-0.0277601
-0.0252262
0.00246617
-0.0147737
-0.00196822
0.0455883
0.0978507
0.110136
0.102602
0.145249
0.207828
0.225543
0.198122
0.195566
0.1981
0.185837
0.163711
0.146584
0.129615
0.0775793
0.0404299
0.00823537
-0.0240044
-0.0511538
-0.0882805
-0.12043
-0.172534
-0.17448
-0.156471
-0.153529
-0.155543
-0.107353
-0.0790497
-0.135792
-0.20267
-0.209661
-0.146584
-0.053371
0.0400001
0.178484
0.392014
0.56552
0.66905
0.707783
0.686652
0.665747
0.649842
0.768937
0.992987
1.09692
0.866063
0.400317
0.0146607
-0.161154
-0.171833
-0.182489
-0.23819
-0.258959
-0.269774
-0.265566
-0.24138
-0.2119
-0.182579
-0.143529
-0.089638
-0.0757239
-0.0917421
-0.0930542
-0.0694796
-0.0559954
-0.0824887
-0.118982
-0.110679
-0.102466
-0.109434
-0.121471
-0.11362
-0.0907919
-0.0980543
-0.0952941
-0.0873982
-0.0795023
-0.0867195
-0.0990272
-0.0962217
-0.133462
-0.140679
-0.142919
-0.125204
-0.127647
-0.110317
-0.112941
-0.115656
-0.128416
-0.141109
-0.118575
-0.0910634
-0.0837104
-0.0963348
-0.0938914
-0.0717195
-0.0799095
-0.0679864
-0.055724
-0.0331448
-0.0156561
0.0215158
0.0533937
0.0702941
0.0923982
0.0844796
0.086448
0.0983484
0.100362
0.0772398
0.0791176
0.106176
0.123439
0.120928
0.118507
0.141403
0.114593
0.088009
0.0765837
0.0553167
0.0293665
0.00357465
0.0128507
0.0170588
0.0362443
0.0200905
0.00350676
0.00178731
-0.0149548
-0.0266742
-0.0234842
-0.0252941
-0.052353
-0.0496154
-0.0373077
-0.0405656
-0.069457
-0.0989593
-0.104072
-0.0898869
-0.0857693
-0.101335
-0.086086
-0.0699321
-0.0782806
-0.0862217
-0.0733258
-0.0538914
-0.0828281
-0.10543
-0.112624
-0.0999321
-0.0820815
-0.0533937
0.00117643
-0.0290724
-0.0554977
-0.0792308
-0.0498643
-0.0614027
-0.0730317
-0.0597964
-0.0420136
-0.0343665
-0.0667648
-0.0841177
-0.101358
-0.0933937
-0.0852715
-0.0769457
-0.0583032
-0.0745928
-0.0658823
-0.0773303
-0.0686878
-0.0799095
-0.101109
-0.067466
-0.0388461
-0.0249774
-0.036086
-0.0272398
-0.033371
-0.0392534
-0.0351357
-0.0360633
-0.0370362
-0.0429638
-0.0387782
-0.0496606
-0.0605204
-0.0764479
-0.0473303
0.00176476
0.0258598
0.0100453
-0.0157465
0.00841634
0.0325792
0.0367648
0.0158371
0.0147964
0.0238462
0.0329638
0.0520589
0.121109
0.170272
0.139321
0.103371
0.0624435
0.0766064
0.130815
0.205136
0.264615
0.269186
0.278892
0.283507
0.303167
0.307964
0.32276
0.337421
0.347082
0.356968
0.321991
0.297082
0.272195
0.272557
0.242873
0.1831
0.148258
0.0834164
0.0385973
0.00368784
0.00377834
-0.00610854
0.0192308
0.0795702
0.0798643
0.0553168
0.0257467
0.0110634
-0.0186877
-0.0133031
0.0320136
0.147308
0.277602
0.417873
0.603077
0.768145
0.868326
0.81862
0.743891
0.629095
0.524389
0.509887
0.560249
0.590611
0.426018
0.171516
-0.0831674
-0.192986
-0.187805
-0.237534
-0.302127
-0.271652
-0.20595
-0.175362
-0.129909
-0.094638
-0.069276
-0.0588235
-0.0384841
0.0068326
0.017172
0.0174435
0.0123982
0.0122398
-0.00273755
-0.0075113
-0.0122624
-0.0272398
-0.0273529
-0.0426018
-0.00773755
-0.0028054
-0.0178733
-0.0482353
-0.0488461
-0.0341629
-0.0791629
-0.0890045
-0.0889819
-0.0839367
-0.113801
-0.11862
-0.103348
-0.0828733
-0.0820588
-0.111199
-0.105226
-0.104027
-0.122692
-0.136448
-0.130158
-0.108643
-0.127036
-0.110453
-0.0990046
-0.0974435
-0.110656
-0.0937783
-0.0419684
-0.0304073
-0.034344
-0.0389819
-0.0242761
-0.0249548
-0.00574662
0.00837103
0.0178507
0.0227602
0.0330995
0.048733
0.0492534
0.0497511
0.0457239
0.0629638
0.0613348
0.0502488
0.059276
0.0736199
0.0833258
0.0680543
0.0626018
0.0518326
0.0507918
0.0245023
0.0129412
0.0112217
0.0192534
0.00205884
-0.025543
-0.0283258
-0.0161538
-0.0140045
-0.0418778
-0.0546606
-0.0571493
-0.0895927
-0.0971041
-0.0797059
-0.0573755
-0.0851357
-0.0929638
-0.0806335
-0.0626696
-0.0540724
-0.0597963
-0.0496606
-0.0685747
-0.0670136
-0.0456561
-0.0346154
-0.0291177
-0.0491855
-0.0192986
-0.0191176
-0.0088009
-0.00429863
0.00904979
0.0163349
0.00805432
-0.0002941
-0.013914
-0.00280542
-0.00156107
-0.0101357
-0.00864252
0.00805431
0.0198416
-0.00837102
0.00841631
0.0302263
0.0471493
0.074095
0.116086
0.128054
0.0749095
0.0417421
0.0486199
0.110475
0.16224
0.179095
0.165996
0.143122
0.155272
0.212421
0.249457
0.221516
0.183643
0.165747
0.187919
0.195136
0.172398
0.159661
0.146923
0.104231
0.0316516
0.0191403
0.00160635
-0.0559728
-0.0934615
-0.0859729
-0.0635068
-0.0609502
-0.0532127
-0.0604977
-0.0527828
-0.05
-0.0721946
-0.0843665
-0.0865158
-0.0285068
0.094638
0.262828
0.430995
0.589186
0.667421
0.660792
0.549163
0.417557
0.340995
0.334548
0.438077
0.506584
0.410136
0.143778
-0.0975113
-0.193824
-0.210113
-0.26138
-0.322624
-0.313891
-0.260158
-0.221493
-0.183032
-0.149615
-0.0862444
-0.0778281
-0.0795023
-0.0612443
-0.0330543
-0.0349548
-0.0569231
-0.0489819
-0.051086
-0.0432127
-0.0453846
-0.0526018
-0.0598869
-0.0671719
-0.0644344
-0.0716968
-0.0490498
-0.036448
-0.0588688
-0.0663122
-0.0736199
-0.0758823
-0.118235
-0.120814
-0.123348
-0.125792
-0.11819
-0.0955656
-0.0978959
-0.110113
-0.107443
-0.0898869
-0.0873303
-0.104706
-0.0871719
-0.0646832
-0.0522624
-0.0550226
-0.0528959
-0.0256787
-0.00839368
-0.00610864
0.0112444
0.0385747
0.0506561
0.0676018
0.0895701
0.0965158
0.0885294
0.0905883
0.117489
0.108982
0.0953846
0.0969457
0.103756
0.0858597
0.063077
0.050181
0.0521493
0.0393439
0.0371493
0.0352715
0.0383937
0.00142533
-0.0203846
-0.0269457
-0.028552
-0.055294
-0.0571493
-0.0490271
-0.0511538
-0.0636199
-0.0861538
-0.0687782
-0.0866515
-0.0996606
-0.10776
-0.121063
-0.139842
-0.154208
-0.139231
-0.144819
-0.150769
-0.171923
-0.162783
-0.148348
-0.168597
-0.183756
-0.183914
-0.173597
-0.18181
-0.188258
-0.168823
-0.159706
-0.161086
-0.172149
-0.147489
-0.137217
-0.14181
-0.161878
-0.158235
-0.155928
-0.174412
-0.173167
-0.167217
-0.156629
-0.176154
-0.170407
-0.139412
-0.133303
-0.152104
-0.175701
-0.159366
-0.138145
-0.141855
-0.150385
-0.138846
-0.107353
-0.0959049
-0.119502
-0.123213
-0.1169
-0.135611
-0.144389
-0.133167
-0.111946
-0.120769
-0.11948
-0.103009
-0.0816968
-0.105498
-0.124321
-0.0982127
-0.0723981
-0.0866515
-0.0908823
-0.0950905
-0.0992307
-0.133348
-0.132534
-0.111855
-0.0812896
-0.0807466
-0.0853394
-0.0601131
-0.0599774
-0.054819
-0.0295927
0.00558829
-0.0143664
-0.0393439
-0.0393665
-0.0394569
-0.0245249
0.000520438
0.0455883
0.0607014
0.0808598
0.091086
0.121358
0.166516
0.201652
0.186765
0.1569
0.161991
0.146991
0.137127
0.147308
0.152398
0.112398
0.0323077
-0.002828
-0.0329638
-0.0528959
-0.108077
-0.143462
-0.128823
-0.124163
-0.114593
-0.125181
-0.11586
-0.116606
-0.117172
-0.117624
-0.122964
-0.133462
-0.109072
-0.0447511
0.0593665
0.193484
0.327692
0.457014
0.53638
0.555656
0.474683
0.40362
0.387738
0.486901
0.651063
0.710136
0.539118
0.223032
0.0168552
-0.0292534
-0.0553394
-0.206312
-0.377376
-0.413597
-0.380113
-0.376765
-0.363575
-0.315385
-0.242059
-0.203733
-0.19552
-0.182489
-0.15457
-0.166946
-0.189389
-0.181742
-0.17414
-0.161742
-0.144638
-0.127579
-0.130362
-0.147851
-0.170317
-0.187873
-0.175317
-0.172647
-0.145068
-0.157466
-0.164706
-0.161765
-0.173665
-0.175317
-0.176651
-0.183032
-0.214502
-0.205995
-0.192602
-0.199412
-0.191403
-0.173145
-0.164638
-0.176063
-0.187376
-0.198801
-0.185475
-0.177805
-0.165679
-0.144163
-0.128077
-0.102557
-0.0874887
-0.0574887
-0.0475792
-0.0577149
-0.0583484
-0.0346832
-0.0116742
0.00712669
0.0176471
0.0246154
0.0224435
0.0256562
0.0293213
0.0383937
0.0279412
0.00782809
0.0328281
0.0629413
0.0580091
0.0378281
0.0473982
0.0719458
0.0213575
-0.0143439
-0.0100226
0.00925344
0.0133485
0.017104
0.0107466
-0.0357466
-0.0223077
-0.00416291
-0.0212218
-0.0331901
-0.0451358
-0.0171493
0.00576928
0.0136652
-0.0434841
-0.095543
-0.107398
-0.0942307
-0.086199
-0.0830316
-0.0544117
-0.0754298
-0.110928
-0.120882
-0.135249
-0.119276
-0.0832126
-0.0524434
-0.0770361
-0.106697
-0.120995
-0.0995474
-0.0678733
-0.0620814
-0.052828
-0.0545248
-0.056561
-0.0889139
-0.0869456
-0.0357013
0.0304074
0.0465386
0.0526246
0.0485748
0.014525
-0.00923063
0.0122852
0.0539142
0.0855431
0.127285
0.143801
0.150091
0.161606
0.183394
0.22034
0.242217
0.224073
0.150792
0.132466
0.159163
0.160905
0.142941
0.135136
0.12233
0.0892309
0.0262218
-0.0214479
-0.0691628
-0.122172
-0.125362
-0.10828
-0.0910633
-0.0490271
-0.0323303
-0.0155203
-0.0481222
-0.0802489
-0.112195
-0.144683
-0.128032
-0.0818326
0.0247738
0.141697
0.293484
0.414909
0.536357
0.628326
0.665633
0.683009
0.695045
0.826878
1.01385
1.13597
0.933167
0.550566
0.228122
0.0504751
-0.0122398
-0.0700453
-0.147828
-0.23552
-0.30319
-0.300995
-0.283914
-0.241493
-0.203914
-0.18138
-0.174005
-0.161606
-0.149412
-0.14724
-0.135023
-0.137805
-0.145498
-0.158145
-0.160792
-0.168575
-0.161199
-0.153801
-0.161471
-0.164072
-0.141765
-0.139434
-0.127217
-0.119932
-0.142624
-0.190317
-0.203009
-0.185837
-0.193552
-0.231018
-0.208032
-0.19
-0.177195
-0.179615
-0.177149
-0.179457
-0.196561
-0.188507
-0.190588
-0.17267
-0.174796
-0.166923
-0.143959
-0.121041
-0.118122
-0.0902262
-0.0471719
-0.0491176
-0.0610407
-0.0678733
-0.0395701
-0.0263801
0.0167195
0.0648643
0.0728733
0.0507466
0.0335068
0.0463348
0.0493213
0.0875792
0.11595
0.074457
0.0232127
0.00217193
0.0362896
0.0605204
0.0900452
0.084638
0.0593891
0.0343665
-0.0154978
-0.0453168
-0.0152263
0.0399321
0.0150226
-0.0552036
-0.0558597
0.00816741
0.0471719
-0.0187783
-0.0796606
-0.0304525
0.0587557
0.0274208
-0.0946832
-0.182511
-0.215973
-0.109887
0.065724
0.151516
0.0727376
0.00941177
0.0509729
0.152421
0.164525
0.0782579
0.0242308
0.0469231
0.140181
0.183507
0.162511
0.162783
0.183824
0.168914
0.152172
0.208937
0.224796
0.250136
0.250045
0.239525
0.223552
0.232195
0.280814
0.234525
0.193303
0.181946
0.225747
0.245158
0.239977
0.209638
0.203982
0.223371
0.207873
0.202353
0.196742
0.181109
0.16052
0.174977
0.174502
0.14905
0.15871
0.183507
0.233348
0.228303
0.168281
0.1181
0.10767
0.15233
0.137172
0.0869684
0.016629
-0.0135973
0.00124435
0.0410634
0.0508371
0.0156561
0.00547512
6.78673e-05
0.00463801
-0.0258824
-0.0314253
-0.0121041
-0.00289594
0.0115158
0.0211086
0.025724
-0.00984162
-0.0403394
-0.0407014
-0.00613121
0.0334616
0.0782353
0.108145
0.0982579
0.0985973
0.108959
0.159299
0.189593
0.189887
0.175226
0.170792
0.151561
0.112172
0.0926018
0.0979412
0.0985068
0.0193439
-0.0647285
-0.113891
-0.133122
-0.162376
-0.186833
-0.171584
-0.196176
-0.21043
-0.199728
-0.149321
-0.123801
-0.167896
-0.176787
-0.171041
-0.170566
-0.124774
0.016448
0.207443
0.337919
0.4481
0.518122
0.593597
0.574955
0.531674
0.542964
0.688937
0.870158
0.851855
0.618643
0.220045
-0.118756
-0.222466
-0.22086
-0.23414
-0.322511
-0.36586
-0.354231
-0.327805
-0.316539
-0.290091
-0.233756
-0.192466
-0.171018
-0.154434
-0.132783
-0.121154
-0.11948
-0.0883258
-0.0174661
-0.0265837
-0.150452
-0.224367
-0.173597
-0.0980543
-0.0924208
-0.116561
-0.115792
-0.105023
-0.0990272
-0.113032
-0.112172
-0.116357
-0.125294
-0.149072
-0.15267
-0.15595
-0.163846
-0.156652
-0.139729
-0.128054
-0.156403
-0.17457
-0.167873
-0.171448
-0.170339
-0.164299
-0.143054
-0.131652
-0.135475
-0.135023
-0.100181
-0.0859276
-0.0673982
-0.0447737
-0.0174661
0.0152036
-0.00678732
-0.0234615
-0.0251131
0.0429864
0.070543
0.0381448
0.0419683
0.0323756
0.0240045
0.0110634
0.0132805
0.0157692
0.0233937
0.0108145
0.00807693
0.0252715
0.0222851
0.0141403
0.000904984
-0.00246606
-0.011086
-0.00986425
-0.0236425
-0.0573982
-0.0464253
-0.0308824
-0.0405204
-0.0601584
-0.0649548
-0.029819
-0.0346154
-0.0545701
-0.0695928
-0.0745023
-0.099095
-0.118552
-0.123235
-0.107941
-0.107579
-0.12724
-0.131719
-0.110475
-0.113258
-0.13043
-0.122059
-0.108281
-0.119321
-0.105611
-0.0822398
-0.0687104
-0.0744796
-0.069457
-0.069457
-0.0655883
-0.0736878
-0.0734842
-0.0537557
-0.0390272
-0.0444344
-0.055362
-0.0364932
-0.0125566
0.00138009
0.0152715
0.0542082
0.0884163
0.0526018
0.0117873
-0.0189593
-0.00463801
0.034638
0.103846
0.128303
0.113145
0.102896
0.131991
0.195792
0.214842
0.189276
0.15871
0.163122
0.157534
0.1019
0.0862896
0.0956109
0.120023
0.0644118
0.00368779
-0.0271041
-0.0728507
-0.10862
-0.134525
-0.135294
-0.130995
-0.136674
-0.132443
-0.118145
-0.108824
-0.109706
-0.125566
-0.15638
-0.152036
-0.0927376
0.0315611
0.155905
0.280294
0.444796
0.614367
0.679072
0.618846
0.553733
0.498597
0.503507
0.563394
0.648552
0.608891
0.339163
0.0243891
-0.205498
-0.255362
-0.260249
-0.330226
-0.360136
-0.304977
-0.219819
-0.174683
-0.134525
-0.114344
-0.0992534
-0.0891855
-0.0741403
-0.059095
-0.0540045
-0.0589593
-0.079095
-0.0692308
-0.0792986
-0.0993891
-0.0945475
-0.104706
-0.104661
-0.0945928
-0.0945249
-0.109525
-0.129593
-0.134842
-0.130181
-0.135475
-0.145724
-0.141041
-0.136403
-0.156697
-0.1819
-0.18724
-0.197624
-0.217919
-0.183213
-0.14862
-0.118914
-0.144118
-0.154253
-0.149434
-0.164615
-0.149819
-0.115045
-0.0802715
-0.0805204
-0.0806787
-0.0658824
-0.0411991
-0.0416063
-0.0468778
-0.021991
-0.0020362
0.0131222
0.00834841
0.0535294
0.0734163
0.0732353
0.0779412
0.0973529
0.111787
0.0865611
0.0715611
0.0814706
0.101425
0.0916742
0.0872172
0.0779186
0.0835747
0.064276
0.065181
0.0862896
0.0873982
0.0886199
0.0699548
0.0714932
0.0879412
0.0790272
0.0648869
0.0654751
0.0859276
0.0613122
0.0616968
0.0672172
0.0578054
0.0233258
0.0235973
0.0633937
0.0576244
0.0511538
0.0338235
0.0509502
0.0432579
0.031448
0.0556787
0.0456109
0.0511086
0.0468552
0.0628281
0.074457
0.0624208
0.0413348
0.0504299
0.0646833
0.0596606
0.0499774
0.0691855
0.0866968
0.0729864
0.0639367
0.0846606
0.069819
0.0597738
0.0449774
0.0454977
0.0562217
0.047172
0.0582579
0.0493665
0.050543
0.0417647
0.0330317
0.0293439
0.0357466
0.0470588
0.0483484
0.0445701
0.0407466
0.0370814
0.0283937
0.0196606
0.00106334
0.00246607
0.0138235
0.0300679
0.0314253
0.0178054
0.0241403
0.0404299
0.0317647
0.0131674
0.0143891
0.0405882
0.03181
0.0179864
0.0290724
0.040181
0.0265158
0.0280317
0.0244118
0.0256109
0.0268326
0.0279185
0.0339593
0.0250679
0.0312443
0.0323755
0.0584389
0.0795249
0.0906787
0.0817421
0.0727828
0.073914
0.0451584
0.0713801
0.117511
0.148824
0.125317
0.121878
0.203462
0.240136
0.2369
0.213597
0.220226
0.202014
0.168914
0.170814
0.157738
0.144661
0.106697
0.068733
0.0207466
-0.0321267
-0.0699095
-0.0825792
-0.100407
-0.133235
-0.110905
-0.0885747
-0.0713349
-0.0740272
-0.0816064
-0.0793213
-0.102127
-0.119796
-0.0974435
-0.0252715
0.0918551
0.219185
0.361538
0.523891
0.651176
0.673575
0.605995
0.503416
0.47586
0.518281
0.635814
0.653303
0.450814
0.0934162
-0.169027
-0.201606
-0.174163
-0.246629
-0.359253
-0.382127
-0.319796
-0.277466
-0.250385
-0.203439
-0.14629
-0.128959
-0.126652
-0.109638
-0.108032
-0.116561
-0.125068
-0.113394
-0.116742
-0.110272
-0.104027
-0.107919
-0.131742
-0.130475
-0.114095
-0.107647
-0.116222
-0.144729
-0.148235
-0.136697
-0.154955
-0.152986
-0.15586
-0.148643
-0.176154
-0.173529
-0.165882
-0.163348
-0.165837
-0.173394
-0.151041
-0.16871
-0.176244
-0.173688
-0.171086
-0.138439
-0.15086
-0.158665
-0.151968
-0.120996
-0.120792
-0.106222
-0.0820815
-0.0630544
-0.0437331
-0.0339819
-0.0192082
-0.0100227
-0.00122181
0.017828
0.0180542
0.0249773
0.0231448
0.0463574
0.0644117
0.0728959
0.0569909
0.0461312
0.0501357
0.0542534
0.053371
0.0473303
0.0510181
0.0295927
0.0279637
0.0211085
0.0142081
0.00723976
-0.0097059
-0.0268326
-0.0191855
-0.0217194
-0.0395249
-0.0625566
-0.0456787
-0.0438914
-0.0621493
-0.0703394
-0.0633484
-0.0763348
-0.0793439
-0.0723981
-0.0504977
-0.0736651
-0.0869004
-0.0799321
-0.0677149
-0.0699548
-0.0765837
-0.0775565
-0.0728054
-0.0725791
-0.0772172
-0.0821494
-0.0575792
-0.0582353
-0.0737557
-0.0637331
-0.0487557
-0.0547286
-0.0573304
-0.0511539
-0.0503394
-0.059457
-0.033914
0.00604075
-0.024276
-0.00938913
0.0306788
0.0507466
0.025905
-0.028733
-0.0332806
0.0171267
0.107511
0.147986
0.133484
0.103891
0.099276
0.139706
0.180272
0.20095
0.181561
0.167172
0.152851
0.138552
0.139208
0.119864
0.115407
0.0959049
0.0416063
-0.0276245
-0.0618327
-0.071086
-0.115317
-0.144638
-0.163937
-0.133235
-0.112466
-0.106629
-0.10586
-0.100045
-0.104208
-0.133326
-0.157602
-0.157036
-0.13129
-0.0605657
0.0500904
0.205747
0.376584
0.517556
0.613507
0.644547
0.570701
0.481946
0.478167
0.634344
0.740588
0.696878
0.428326
0.0447284
-0.228801
-0.267376
-0.205883
-0.254344
-0.357738
-0.391154
-0.364729
-0.308349
-0.271968
-0.240679
-0.204502
-0.173349
-0.147172
-0.130973
-0.119842
-0.118982
-0.13819
-0.137444
-0.126765
-0.136131
-0.130475
-0.119932
-0.114593
-0.114186
-0.138643
-0.133145
-0.152783
-0.142466
-0.142217
-0.141991
-0.131787
-0.141516
-0.146335
-0.171177
-0.155973
-0.160837
-0.170701
-0.17552
-0.175362
-0.155294
-0.165294
-0.170272
-0.165385
-0.145407
-0.135407
-0.140498
-0.115634
-0.110792
-0.110996
-0.106358
-0.0618327
-0.0524662
-0.0531223
-0.0385973
-0.00382364
0.0108823
0.0105429
0.0350451
0.0594116
0.0686876
0.0627827
0.071742
0.0906108
0.0696832
0.0539818
0.0633257
0.0776244
0.0618778
0.03638
0.0160859
0.0258823
0.000633419
-0.0145928
-0.00459278
0.010543
0.000882328
-0.00361997
0.0020588
-0.0323077
-0.0670136
-0.0721267
-0.0674208
-0.0675792
-0.0779185
-0.0834389
-0.0791629
-0.0948868
-0.115453
-0.110815
-0.101199
-0.127082
-0.148665
-0.116041
-0.0842082
-0.0981901
-0.112443
-0.111448
-0.109615
-0.121719
-0.152783
-0.133281
-0.128914
-0.134819
-0.135453
-0.119796
-0.092534
-0.0938914
-0.0898416
-0.100792
-0.087534
-0.0960634
-0.0912217
-0.0868101
-0.0821946
-0.0930317
-0.109548
-0.0913123
-0.0830317
-0.0845475
-0.0709728
-0.0572851
-0.053371
-0.0843439
-0.095181
-0.0909729
-0.0416516
-0.0374208
-0.0482806
-0.0540724
-0.0398191
-0.0507014
-0.046629
-0.0273983
-0.0280997
-0.0588463
-0.069706
-0.0505657
-0.0364481
-0.0373078
-0.0381449
-0.0290046
-0.0248417
-0.0307693
-0.0417196
-0.0477377
-0.0237558
-0.0298644
-0.0510861
-0.0521947
-0.033258
-0.0242761
-0.0403621
-0.0215159
-0.0228507
-0.0342761
-0.0356788
-0.0221268
-0.00855204
-0.0100905
0.0183258
0.0467873
0.0803394
0.0737557
0.0570363
0.040362
0.0237557
0.0471267
0.120498
0.169005
0.162557
0.146131
0.169661
0.238235
0.281855
0.270339
0.243801
0.222262
0.22586
0.209367
0.202851
0.201244
0.189638
0.167919
0.101176
0.0544569
0.00773749
-0.048982
-0.0956109
-0.107127
-0.0888914
-0.0708145
-0.0676697
-0.109502
-0.116403
-0.108462
-0.0854751
-0.0573982
-0.0744344
-0.116697
-0.113982
-0.00104073
0.146742
0.289412
0.437376
0.61552
0.698575
0.711493
0.634548
0.552647
0.490724
0.503756
0.626833
0.714751
0.577534
0.200407
-0.161697
-0.313756
-0.30086
-0.347873
-0.444955
-0.437036
-0.354276
-0.301606
-0.289095
-0.241765
-0.19948
-0.182127
-0.169593
-0.162036
-0.149502
-0.147036
-0.164728
-0.162511
-0.170407
-0.168484
-0.186833
-0.170113
-0.173303
-0.191403
-0.19457
-0.177692
-0.165724
-0.193688
-0.206584
-0.19957
-0.202511
-0.200249
-0.217647
-0.214819
-0.221719
-0.218416
-0.215113
-0.20681
-0.208575
-0.220362
-0.207172
-0.193846
-0.180566
-0.212466
-0.224367
-0.216131
-0.212783
-0.204661
-0.16181
-0.124548
-0.123009
-0.12233
-0.107489
-0.082896
-0.0782127
-0.0878733
-0.0670362
-0.0307466
-0.0045023
-0.00366519
0.0121719
0.0285746
0.0263574
0.0205203
0.0352262
0.0399774
0.0449773
0.0455429
0.0562669
0.0667194
0.0568552
0.0667647
0.0515384
0.0562443
0.0358144
0.0351809
0.0443665
0.0434615
0.0325112
0.0363574
0.0500452
0.0385294
0.0116742
-0.0103846
0.00755651
0.00567874
-0.0159955
-0.0177149
-0.00472853
0.0182805
0.00140272
-0.015362
-0.00696833
0.0214027
0.0295476
-0.0123982
-0.00380088
0.000565648
-0.0293891
-0.0337104
-0.0221493
-9.04799e-05
-0.023009
-0.0264027
-0.0302262
-0.0492533
-0.0382126
0.00339369
0.0303167
0.0115611
0.0210181
0.0337331
0.0358145
0.012896
0.00961542
0.0158145
0.0370588
0.0586652
0.0953168
0.136968
0.133846
0.100996
0.0781675
0.0802942
0.0824209
0.109661
0.156833
0.178869
0.170996
0.198122
0.260204
0.292104
0.274276
0.241629
0.248937
0.25129
0.21862
0.205928
0.2081
0.225339
0.182692
0.124955
0.0672625
0.0295928
-0.0329412
-0.0805656
-0.0732353
-0.0709276
-0.0635294
-0.0711085
-0.0738009
-0.0813574
-0.0788009
-0.0611538
-0.0636425
-0.0761538
-0.0936652
-0.0612217
0.0162217
0.143891
0.291719
0.479615
0.677579
0.745634
0.723801
0.606946
0.525091
0.458394
0.461855
0.535475
0.519118
0.377873
0.0966516
-0.134593
-0.205882
-0.222081
-0.29319
-0.394208
-0.360158
-0.256131
-0.197081
-0.173122
-0.16405
-0.145023
-0.130973
-0.0920362
-0.0531222
-0.0441403
-0.055181
-0.0762444
-0.0872851
-0.0882353
-0.069276
-0.0706109
-0.0819457
-0.103235
-0.129502
-0.115792
-0.0920136
-0.103235
-0.119434
-0.120633
-0.126923
-0.138167
-0.129276
-0.105294
-0.111471
-0.132647
-0.138824
-0.130136
-0.146493
-0.172941
-0.164231
-0.135566
-0.1219
-0.138371
-0.139909
-0.14129
-0.122489
-0.108597
-0.0897964
-0.0659955
-0.0773077
-0.063733
-0.0303167
-0.0119004
-0.0133936
-0.00968324
0.0342534
0.0482806
0.0472172
0.0309276
0.0445475
0.0680996
0.0765611
0.0648869
0.0832353
0.0968326
0.0805204
0.074276
0.0881674
0.112443
0.0719683
0.0315611
0.026086
0.0157466
0.0407014
0.0607693
0.0659729
0.041267
0.0267421
0.0471494
0.0422399
0.0221041
-0.00328051
0.0111539
0.0254073
0.0346833
0.0239593
0.0184615
0.0329864
0.0172172
0.00604074
-0.000701353
-0.00300904
-0.0111538
-0.00472849
0.00685522
0.014095
0.00751133
0.0121946
0.00289594
-0.00572398
-0.00377826
0.00361992
0.021629
0.0201131
0.0137783
0.0222851
0.0208371
0.024819
0.023733
0.0417647
0.0482806
0.0535747
0.0484842
0.0332353
0.0175113
0.0011991
0.0149548
0.0191177
0.0285521
0.0132127
0.00794119
0.0077602
0.0125339
0.0173756
0.0123982
0.0175113
0.0127149
0.0127828
0.00776019
0.0178054
0.0579864
0.0381448
0.0483258
0.0434389
0.0284163
0.0134616
0.0286652
0.0489593
0.0341629
0.0393213
0.039457
0.0396607
0.0299321
0.0252263
0.0353846
0.0405204
0.0407014
0.0458145
0.0758145
0.0607014
0.0456109
0.0405656
0.0655204
0.0604299
0.0352263
0.0349774
0.0397059
0.039457
0.0492082
0.0889819
0.118688
0.133462
0.133326
0.123167
0.103054
0.0779186
0.0979865
0.163077
0.213213
0.203258
0.198258
0.223507
0.258869
0.284276
0.279796
0.285475
0.266109
0.266584
0.247149
0.227828
0.198484
0.184005
0.16448
0.104932
0.050543
0.0112896
-0.00298642
-0.0223077
-0.0465837
-0.030724
-0.0349774
-0.0143439
-0.0337783
-0.0381222
-0.0323982
-0.0265611
-0.0656561
-0.0747511
-0.00882352
0.0770136
0.207896
0.353846
0.539751
0.625543
0.576448
0.467466
0.288484
0.139502
0.0655882
0.106629
0.182557
0.153484
-0.000520371
-0.219502
-0.33862
-0.367896
-0.372217
-0.391719
-0.391335
-0.335928
-0.280339
-0.239683
-0.224163
-0.203801
-0.168643
-0.13862
-0.11862
-0.103484
-0.103416
-0.12871
-0.134208
-0.134638
-0.109887
-0.0851132
-0.085362
-0.0956335
-0.125882
-0.116109
-0.106335
-0.121357
-0.131063
-0.12543
-0.139661
-0.143529
-0.13733
-0.136222
-0.145181
-0.174027
-0.167851
-0.15681
-0.155701
-0.179548
-0.183439
-0.162262
-0.136086
-0.149842
-0.163756
-0.138122
-0.128032
-0.128416
-0.124525
-0.106199
-0.0929638
-0.0994344
-0.0754073
-0.0660181
-0.041267
-0.0315385
-0.0120362
0.00771493
0.013552
0.015724
0.033552
0.0612443
0.0538235
0.0665837
0.0693213
0.0818326
0.0743891
0.0821493
0.109683
0.0819909
0.0692308
0.0515385
0.0488462
0.0310407
0.0282579
0.0604299
0.0575566
0.0595928
0.0265385
0.0184842
0.0253167
0.021991
0.0134389
0.00475114
0.0158371
0.00178734
-0.0223077
-0.0315158
-0.0106787
-0.00481899
-0.0138461
-0.0179638
-0.0172172
-0.0313801
-0.0554751
-0.0596833
-0.048914
-0.0428733
-0.061448
-0.0795023
-0.0669004
-0.0435294
-0.0547511
-0.0611991
-0.04819
-0.0509728
-0.0594796
-0.0584615
-0.0423982
-0.0409955
-0.0497738
-0.0392987
-0.0149774
0.00875566
0.0223077
0.055724
0.0790045
0.0672624
0.0407919
0.0295023
0.063371
0.0922398
0.121109
0.135181
0.124389
0.108756
0.128213
0.217624
0.246968
0.22638
0.18586
0.18543
0.195136
0.194819
0.194457
0.183959
0.183529
0.13319
0.0728507
0.037534
-0.0126697
-0.082828
-0.103054
-0.0984163
-0.0987783
-0.10905
-0.0943665
-0.0796833
-0.0900452
-0.100362
-0.0907692
-0.116335
-0.121742
-0.126946
-0.0871719
0.0124661
0.13724
0.272059
0.4169
0.526719
0.541538
0.501448
0.386403
0.281493
0.201674
0.212036
0.262398
0.217715
0.0182353
-0.246199
-0.375588
-0.344932
-0.329163
-0.388462
-0.407805
-0.337127
-0.281357
-0.275611
-0.234842
-0.189005
-0.148281
-0.12767
-0.102195
-0.0817647
-0.0813801
-0.0910407
-0.0806109
-0.0802262
-0.0797511
-0.109412
-0.0992081
-0.0839819
-0.0938009
-0.118643
-0.108597
-0.0935294
-0.103507
-0.103665
-0.0988235
-0.108824
-0.113733
-0.11371
-0.0888009
-0.103914
-0.114118
-0.129412
-0.134729
-0.130023
-0.130339
-0.115769
-0.11629
-0.101719
-0.107059
-0.107489
-0.0979864
-0.103439
-0.093914
-0.0645475
-0.0353167
-0.036086
-0.0268778
-0.0178281
0.0161539
0.0252489
0.034638
0.0591855
0.0688235
0.0734163
0.0677376
0.0817873
0.0856787
0.0997738
0.119005
0.108167
0.107195
0.0911086
0.0851131
0.0942534
0.0837557
0.063371
0.0480091
0.0525566
0.0470588
0.0516968
0.051629
0.051991
0.047534
0.0382127
0.0237783
0.00907241
-0.0106787
-0.0356335
-0.0259276
0.00852942
0.00791856
-0.0226923
-0.0433032
-0.0386652
-0.0189819
-0.0295023
-0.0354751
-0.00694569
-0.024276
-0.0471946
-0.060724
-0.0494118
-0.0575339
-0.059638
-0.0654751
-0.0551357
-0.0340271
-0.0380543
-0.0525339
-0.0573756
-0.0670136
-0.0810407
-0.0695023
-0.037647
-0.060724
-0.0641855
-0.0735973
-0.0689819
-0.0695928
-0.0653394
-0.046448
-0.0528507
-0.0640498
-0.0699774
-0.0708371
-0.0616063
-0.0672851
-0.0577828
-0.04819
-0.0434842
-0.0537104
-0.048914
-0.0390724
-0.0342081
-0.0543891
-0.0595023
-0.0396832
-0.0397738
-0.034638
-0.0395023
-0.0245023
-0.0195475
-0.0245023
-0.00943439
-0.0194344
-0.0344796
-0.0495249
-0.0444344
-0.0242534
-0.0189819
-0.0138009
-0.018733
-0.0188235
-0.0139366
-0.00393664
0.00101811
0.000995483
-0.00904976
-0.00900452
-0.00400452
0.000995478
0.00099548
0.000859733
0.0256335
0.0554525
0.0704072
0.075362
0.100226
0.125068
0.124932
0.0848416
0.0646833
0.0795475
0.114389
0.164208
0.199072
0.22405
0.21414
0.214253
0.259367
0.304367
0.31948
0.28457
0.274638
0.284796
0.289955
0.265045
0.245045
0.255045
0.235068
0.170204
0.0753394
0.0254299
-0.00445701
-0.0294118
-0.0293665
-0.0543439
-0.0592986
-0.0543665
-0.0195249
0.000384621
0.000339373
-0.00977375
-0.0499321
-0.0450226
-0.00999999
0.0799321
0.199796
0.364864
0.489955
0.619977
0.694932
0.669932
0.57
0.425136
0.310249
0.250385
0.295588
0.355679
0.320588
0.170633
-0.0443439
-0.159457
-0.179638
-0.239706
-0.354955
-0.41043
-0.325905
-0.24629
-0.201538
-0.18181
-0.137172
-0.112783
-0.118552
-0.129367
-0.110181
-0.0859728
-0.0870136
-0.0880995
-0.0891855
-0.0851358
-0.091086
-0.112059
-0.107805
-0.0984842
-0.114208
-0.129955
-0.140407
-0.175566
-0.185588
-0.180452
-0.160068
-0.164434
-0.178801
-0.163213
-0.14767
-0.157104
-0.191538
-0.210995
-0.20543
-0.199864
-0.184208
-0.163507
-0.162805
-0.182262
-0.172217
-0.162805
-0.159118
-0.166222
-0.163688
-0.16595
-0.157579
-0.133348
-0.103529
-0.0833937
-0.0833258
-0.083371
-0.0530317
-0.0365611
-0.00391403
-0.000950227
0.0266742
0.0492986
0.0672172
0.080181
0.0680317
0.0608824
0.043733
0.0563122
0.0787104
0.0962444
0.0739367
0.0665385
0.068914
0.061267
0.0538009
0.0513348
0.0587783
0.0661765
0.0586652
0.0410633
0.0430769
0.0547511
0.0461991
0.0525113
0.0387557
0.0300453
0.00617648
0.00733032
0.0385747
0.0600453
0.0515611
0.0380091
0.029457
0.0208371
0.0172172
0.0287104
0.0406561
0.0281901
0.0113801
0.0100905
0.019457
0.0291403
0.0136425
0.00255655
0.00592759
0.013733
0.0211538
0.0436651
0.0714027
0.0389819
0.0358144
0.0516063
0.0767873
0.0818552
0.0965837
0.140792
0.129751
0.114005
0.0835294
0.0932579
0.13319
0.183326
0.208552
0.213801
0.214095
0.21948
0.27
0.290566
0.301222
0.2769
0.267557
0.278235
0.238891
0.229638
0.220385
0.221109
0.17681
0.112489
0.0880317
0.0486199
0.0093665
-0.039819
-0.0439819
-0.0181222
-0.0172172
-0.0362443
-0.0502263
-0.0393439
-0.0236425
-0.0178733
-0.0319457
-0.0459502
-0.0449321
-0.00398187
0.116878
0.262715
0.42371
0.589819
0.670882
0.631878
0.497851
0.308959
0.180204
0.136606
0.183009
0.224412
0.145882
-0.0774434
-0.310724
-0.378824
-0.341833
-0.359774
-0.407715
-0.380633
-0.303462
-0.26629
-0.239163
-0.187081
-0.14491
-0.127602
-0.115272
-0.0780317
-0.0607692
-0.0635068
-0.0913122
-0.0841629
-0.0869004
-0.0946154
-0.102308
-0.1
-0.0776923
-0.0954072
-0.0930769
-0.0907692
-0.0984842
-0.106312
-0.0942081
-0.102149
-0.115091
-0.127896
-0.115566
-0.0982127
-0.105905
-0.128756
-0.121674
-0.109548
-0.117353
-0.125181
-0.103122
-0.0911538
-0.104208
-0.0972851
-0.080362
-0.0485294
-0.0718326
-0.0601584
-0.0335294
-0.00692308
0.00463799
0.00617647
0.022534
0.0389367
0.0605204
0.0672851
0.0841177
0.0858145
0.0873982
0.108801
0.130204
0.131516
0.107579
0.108688
0.114887
0.106222
0.0876471
0.0891403
0.0857014
0.0774661
0.0594118
0.0563801
0.0683937
0.0606335
0.0480996
0.0355883
0.0481901
0.0409502
0.0337783
0.0313575
0.0286199
0.0107014
-0.017466
-0.0108596
-0.0195022
-0.0381447
-0.0315837
-0.0299547
-0.0483484
-0.0520362
-0.0312217
-0.0409049
-0.0712217
-0.0722624
-0.0589819
-0.0459276
-0.0475113
-0.0330996
-0.0577149
-0.0763575
-0.0693438
-0.0473303
-0.040475
-0.0583257
-0.0606787
-0.0628733
-0.0402941
-0.0376244
-0.0492986
-0.0607918
-0.053371
-0.0622398
-0.0815384
-0.0708144
-0.0504072
-0.0404977
-0.050656
-0.0655203
-0.0652488
-0.0748868
-0.0842534
-0.0934389
-0.082466
-0.0864932
-0.100317
-0.099095
-0.0929638
-0.0919683
-0.120928
-0.119887
-0.118891
-0.127896
-0.146855
-0.140679
-0.139547
-0.143416
-0.132285
-0.121267
-0.115317
-0.129366
-0.128439
-0.127443
-0.136471
-0.150407
-0.154344
-0.128281
-0.122353
-0.136403
-0.140407
-0.124615
-0.113982
-0.113326
-0.112534
-0.10181
-0.0960859
-0.0953167
-0.0794796
-0.073914
-0.0585294
-0.0480543
-0.017534
0.0129864
0.018371
0.0037556
-0.0207693
-0.0352489
-0.0448869
0.000407219
0.0706561
0.100814
0.0860633
0.0764253
0.141833
0.172081
0.202285
0.197511
0.18276
0.167919
0.158077
0.163235
0.143348
0.148348
0.113326
0.0533711
0.0133484
-0.0317873
-0.0669683
-0.112014
-0.127081
-0.11724
-0.112398
-0.0975113
-0.0828054
-0.0733711
-0.0688914
-0.074276
-0.0946833
-0.11
-0.125317
-0.0757014
0.0438688
0.168529
0.313281
0.457941
0.592579
0.642127
0.601765
0.501516
0.431335
0.375928
0.395453
0.475113
0.469796
0.269457
-0.0309276
-0.196357
-0.191946
-0.167511
-0.273032
-0.393688
-0.379525
-0.330475
-0.306629
-0.277964
-0.229299
-0.170453
-0.131516
-0.122557
-0.118823
-0.115339
-0.126991
-0.128665
-0.150385
-0.142217
-0.154231
-0.151493
-0.138801
-0.141041
-0.148167
-0.155385
-0.157579
-0.169638
-0.181697
-0.193937
-0.206154
-0.208213
-0.21
-0.196584
-0.193032
-0.184253
-0.190385
-0.221561
-0.232896
-0.244321
-0.230769
-0.242353
-0.238891
-0.240452
-0.241946
-0.208348
-0.184638
-0.171086
-0.192987
-0.195475
-0.193733
-0.192579
-0.182059
-0.151855
-0.106674
-0.106063
-0.0949322
-0.0885747
-0.0621267
-0.0510634
-0.0600679
-0.0533711
-0.0154299
0.0135294
0.0229864
0.0427828
0.0429864
0.0383936
0.0286425
0.0388688
0.0490271
0.0492308
0.0341629
0.0337783
0.0333258
0.0278054
0.0271719
0.0312896
0.0304978
0.0246606
0.0285521
0.0372851
0.0307919
0.0091629
0.00235292
0.0104525
0.00359727
-0.0132127
0.00511311
0.0334389
0.0267873
-0.0147738
-0.0314027
-0.0481675
-0.0499322
-0.0566969
-0.0533258
-0.0544797
-0.0851131
-0.0950226
-0.0892987
-0.0529865
-0.0563575
-0.079819
-0.0788236
-0.0532805
-0.0579638
-0.0824887
-0.0667647
-0.056267
-0.0666289
-0.0633484
-0.0359728
-0.0237783
-0.0364932
-0.0247285
-0.00373302
0.0222851
0.0534615
0.0697285
0.0759955
0.0523982
0.0390498
0.0208824
0.0527375
0.104525
0.121335
0.113009
0.109661
0.141267
0.172964
0.209615
0.21629
0.20319
0.17509
0.161968
0.153869
0.12086
0.107692
0.124366
0.121176
0.0830542
0.0149774
-0.0231448
-0.0462217
-0.0943213
-0.132398
-0.125452
-0.0936425
-0.0868326
-0.100113
-0.0783258
-0.0666968
-0.0599095
-0.0930317
-0.121222
-0.134276
-0.0921946
0.00493211
0.131878
0.308869
0.44086
0.577783
0.659751
0.6669
0.584344
0.476833
0.454389
0.462081
0.549932
0.547783
0.36552
0.073371
-0.163507
-0.230249
-0.237036
-0.29871
-0.360385
-0.337081
-0.268846
-0.225475
-0.207059
-0.153688
-0.100453
-0.102172
-0.0987783
-0.0704751
-0.0372172
-0.053914
-0.0805656
-0.082172
-0.0888462
-0.0854299
-0.0920815
-0.0988688
-0.0957014
-0.0974435
-0.104186
-0.120973
-0.107624
-0.104163
-0.120724
-0.112534
-0.104389
-0.121244
-0.138122
-0.120091
-0.107059
-0.0988914
-0.115882
-0.112941
-0.109955
-0.131719
-0.153597
-0.135792
-0.107851
-0.114661
-0.131471
-0.108484
-0.0654299
-0.077353
-0.0795023
-0.0467421
-0.00391403
-0.00104073
0.00671946
0.054638
0.0628054
0.0761991
0.0795701
0.107783
0.12595
0.128959
0.126968
0.129819
0.14767
0.145543
0.163462
0.166448
0.154638
0.143077
0.141561
0.140204
0.103914
0.102783
0.101742
0.0909502
0.0704072
0.094819
0.119253
0.0788461
0.053552
0.0431222
0.0524208
0.0565611
0.0655656
0.0692308
0.0577149
0.0564253
0.0454298
0.0545022
0.0533258
0.0769457
0.0451357
0.0226018
0.0342081
0.0351584
0.0261765
0.0278281
0.0457692
0.035
0.0405882
0.0616968
0.0679864
0.0647285
0.0522624
0.0504299
0.0537104
0.0368778
0.0349095
0.0535068
0.0773077
0.0651131
0.0464253
0.0464706
0.0660633
0.0605203
0.0595475
0.0580995
0.0615837
0.0404977
0.0395475
0.0486425
0.0629638
0.0525339
0.0270814
0.0416063
0.0514479
0.0465158
0.0365158
0.0213574
0.0412669
0.0311538
0.0410181
0.0508823
0.0558371
0.0459276
0.0410181
0.0359502
0.0258371
0.0309276
0.0310181
0.0460407
0.0411312
0.0262896
0.0313122
0.046267
0.0513575
0.0214932
0.0266516
0.0316968
0.0267873
0.00692308
0.0269231
0.0718326
0.0417647
0.01181
0.00669685
0.0264932
0.0264253
0.0314932
0.0713575
0.0960634
0.110905
0.115882
0.130792
0.110701
0.0808597
0.0610634
0.101335
0.156697
0.177195
0.19276
0.183235
0.203778
0.239434
0.290204
0.301041
0.282059
0.238213
0.219163
0.245
0.25095
0.247014
0.202919
0.15871
0.0945249
0.0353167
0.0160633
0.00192306
-0.0120815
-0.0363122
-0.0405656
-0.0447964
-0.0440045
-0.0331901
-0.00235297
0.00364251
-0.0353394
-0.0643213
-0.0683032
-0.0221719
0.0490272
0.160249
0.331357
0.492489
0.61371
0.589887
0.495995
0.31224
0.158597
0.0399095
0.0612896
0.16276
0.149253
-0.0143665
-0.233145
-0.361946
-0.35586
-0.315045
-0.349389
-0.39371
-0.352873
-0.312036
-0.266199
-0.230339
-0.204457
-0.168801
-0.123281
-0.0827602
-0.10724
-0.09181
-0.0815837
-0.0764253
-0.0761991
-0.0708597
-0.0606108
-0.100452
-0.115294
-0.115023
-0.104615
-0.119185
-0.118733
-0.108235
-0.112353
-0.136176
-0.159955
-0.158575
-0.126968
-0.130339
-0.158801
-0.152285
-0.150724
-0.154118
-0.157466
-0.140905
-0.139231
-0.147398
-0.140566
-0.133982
-0.12267
-0.12681
-0.131742
-0.122443
-0.123484
-0.109367
-0.10509
-0.0752262
-0.0697964
-0.074095
-0.0585747
-0.0233258
0.0124208
0.019095
0.0367873
0.0600226
0.0732579
0.0713575
0.0745475
0.0778733
0.0661991
0.0694344
0.0775792
0.105611
0.0934842
0.0763348
0.0742986
0.0623982
0.045362
0.0231448
0.0608371
0.078552
0.0563801
0.0341629
0.0369457
0.0646154
0.0620814
0.0591177
0.0509276
0.0526697
0.0492987
0.0608145
0.0423303
0.028914
0.0354525
0.0368778
0.0435068
0.0153846
0.0022172
0.00371043
-0.00493211
-0.0184841
-0.0318778
-0.00988685
-0.012285
-0.0338009
-0.0346606
-0.0151357
-0.000746593
-0.0217873
-0.023733
-0.0215158
-0.0297737
-0.0279864
-0.0258597
-0.00395925
0.0171041
0.0170815
0.0413801
0.0806787
0.110045
0.119163
0.102986
0.0869683
0.0661312
0.0603394
0.0746606
0.119118
0.148891
0.148937
0.15405
0.153959
0.198982
0.224163
0.224412
0.189706
0.185045
0.22043
0.230588
0.200747
0.160928
0.141154
0.156471
0.136878
0.0622851
0.00753395
0.00269232
-0.0421493
-0.0969457
-0.106629
-0.0963348
-0.086086
-0.0958371
-0.0906108
-0.10543
-0.100226
-0.12
-0.139729
-0.134367
-0.108914
-0.0434842
0.0619457
0.232376
0.382805
0.478213
0.488575
0.424027
0.26448
0.134977
0.0954977
0.136041
0.201787
0.132692
-0.0463801
-0.255475
-0.369412
-0.353213
-0.341991
-0.390656
-0.439276
-0.397941
-0.321787
-0.280588
-0.239412
-0.213213
-0.187014
-0.175837
-0.154683
-0.11371
-0.0929412
-0.117285
-0.141357
-0.140339
-0.124389
-0.128416
-0.147534
-0.146765
-0.116109
-0.12543
-0.129819
-0.119276
-0.108643
-0.132964
-0.152353
-0.146787
-0.121222
-0.155837
-0.18052
-0.165136
-0.129729
-0.129412
-0.154299
-0.144253
-0.159208
-0.184095
-0.20914
-0.194344
-0.15948
-0.15457
-0.154661
-0.139932
-0.110362
-0.125928
-0.116538
-0.0920136
-0.0574208
-0.0377376
-0.0181222
0.00128956
0.00556558
0.03
0.049638
0.069276
0.0736651
0.0727828
0.10681
0.115882
0.110068
0.0744117
0.0589819
0.0837104
0.103462
0.09319
0.0683031
0.0588461
0.0495701
0.0452262
0.0459954
0.0571266
0.0433483
0.0393891
0.0401357
0.00567865
-0.0136652
-0.00309962
0.0271945
0.0222397
-0.0026924
-0.0128281
-0.00839375
-0.00920823
-0.0305431
-0.0274888
-0.0252716
-0.0235973
-0.0372851
-0.0306335
-0.0433484
-0.0754525
-0.0919231
-0.0830317
-0.0739819
-0.0796832
-0.0842533
-0.0673077
-0.0542307
-0.055724
-0.0473982
-0.0245476
-0.021991
-0.0299322
-0.0581675
-0.056448
-0.0250001
-0.0145249
-0.0352263
-0.0464932
-0.0427149
-0.0740271
-0.0857013
-0.0775565
-0.0542081
-0.0655882
-0.0568551
-0.0377828
-0.0534841
-0.0691402
-0.0698642
-0.0454072
-0.0206787
-0.0208597
-0.0461538
-0.0515384
-0.0619004
-0.0921945
-0.0723981
-0.0226244
-0.00289588
-0.0130995
-0.00830311
0.00651591
-0.0186651
-0.0186877
-0.0237782
-0.0289818
-0.0241854
0.0156562
0.0354073
-0.00984156
-0.0300678
-0.010294
0.024525
0.0242987
0.00902724
0.0135974
0.0430544
0.0523078
0.0314707
0.0357919
0.0451811
0.0595702
0.0889141
0.118303
0.117624
0.0869684
0.071448
0.070905
0.105453
0.150136
0.204819
0.209412
0.194072
0.203914
0.243824
0.288801
0.288846
0.274118
0.264412
0.274706
0.254932
0.220113
0.220498
0.225996
0.186471
0.116855
0.0771493
0.0574208
0.0277602
-0.0167421
-0.0262443
-0.0158371
0.00952491
0.0349095
0.0251132
0.0252489
0.0105204
0.010905
0.00122175
0.00151587
0.0418326
0.087172
0.212443
0.357624
0.532919
0.658281
0.723643
0.653937
0.494344
0.339615
0.204706
0.149842
0.180023
0.230204
0.150339
-0.0345475
-0.189412
-0.274366
-0.299276
-0.354118
-0.418869
-0.348733
-0.243688
-0.168733
-0.178914
-0.144095
-0.094457
-0.0849547
-0.0803846
-0.0506108
-0.0208597
-0.0311312
-0.0366063
-0.0223077
-0.00807689
-0.0436425
-0.0691176
-0.0549095
-0.0308597
-0.0517647
-0.0725339
-0.0731448
-0.073733
-0.0793439
-0.0849547
-0.0855882
-0.111357
-0.126968
-0.117014
-0.101674
-0.111154
-0.120407
-0.109457
-0.133597
-0.14276
-0.136991
-0.131335
-0.115611
-0.12957
-0.153348
-0.142376
-0.106471
-0.115294
-0.129027
-0.108032
-0.0875565
-0.0875339
-0.0680543
-0.034276
-0.0361312
-0.0479412
-0.0493665
-0.0251583
-0.00524886
-0.00477375
0.000769243
-0.00414026
0.0358371
0.0365611
0.0286199
0.0516516
0.0799548
0.0930996
0.0763122
0.0846607
0.0779864
0.066267
0.0543665
0.0622172
0.0599095
0.042534
0.0397738
0.021629
0.0185521
0.0155657
0.0123756
0.0238236
0.0202037
0.00156115
-0.0324208
-0.0215384
-0.0156108
-0.00954746
-0.0134615
-0.00735289
-0.0112443
-0.0299547
-0.0237782
-0.0127375
-0.0317194
-0.0456334
-0.044457
-0.0280542
-0.0259954
-0.0432353
-0.0497285
-0.0405429
-0.0310407
-0.0419683
-0.0186877
-0.00610851
-0.0290723
-0.0273529
-0.0155203
-0.0084841
-0.00685512
0.00389148
0.033801
0.0183032
0.00769238
0.00674215
0.0302942
0.0390951
0.0283485
0.057896
0.0872852
0.13681
0.146539
0.121199
0.0808145
0.0555204
0.0503394
0.105068
0.179796
0.184593
0.149525
0.149389
0.20414
0.223982
0.213982
0.208914
0.198778
0.193756
0.173824
0.168846
0.163891
0.163982
0.148959
0.0738688
0.00893669
-0.0408371
-0.0856335
-0.115543
-0.120452
-0.11543
-0.105362
-0.0852941
-0.0952262
-0.124932
-0.144706
-0.134683
-0.139593
-0.179276
-0.163982
-0.103891
-0.00357464
0.101855
0.252285
0.417715
0.538348
0.534005
0.459593
0.335181
0.21086
0.116584
0.102195
0.172783
0.183507
0.0195476
-0.239412
-0.408507
-0.412534
-0.371448
-0.400294
-0.419231
-0.373145
-0.317127
-0.276222
-0.235271
-0.209344
-0.183507
-0.117783
-0.0671945
-0.0816968
-0.0961538
-0.0906108
-0.0802036
-0.104751
-0.119344
-0.0741176
-0.0889819
-0.10871
-0.128439
-0.108235
-0.0880543
-0.0977828
-0.137466
-0.127308
-0.0971946
-0.102014
-0.116946
-0.097104
-0.102308
-0.122353
-0.13233
-0.122398
-0.147511
-0.152557
-0.12767
-0.112986
-0.113167
-0.128281
-0.113529
-0.108869
-0.104095
-0.0942986
-0.0845701
-0.0549999
-0.0504525
-0.0510633
-0.0316968
0.0126018
0.0270362
0.0315611
0.0409729
0.0653846
0.0697964
0.0744118
0.0990724
0.113439
0.122511
0.126312
0.135068
0.129185
0.128778
0.113439
0.0928507
0.0923529
0.0872624
0.0772851
0.0722851
0.0674887
0.0428959
0.0234389
0.0289819
0.0195475
0.0102037
0.010905
0.0114933
-0.0132579
-0.0332805
-0.038552
-0.0241402
-0.014819
-0.0255656
-0.0461991
-0.0419231
-0.0378959
-0.0743665
-0.0766063
-0.0597059
-0.0684389
-0.0875565
-0.0968326
-0.0707013
-0.103778
-0.110814
-0.112376
-0.0937104
-0.10457
-0.109118
-0.102647
-0.100792
-0.0941402
-0.083009
-0.0569909
-0.0456108
-0.0788687
-0.10733
-0.10681
-0.0876923
-0.0845475
-0.0864253
-0.0932352
-0.0953619
-0.0976922
-0.0948416
-0.086742
-0.113552
-0.105136
-0.0915384
-0.0877601
-0.0636651
-0.0643438
-0.0801809
-0.0861538
-0.0620361
-0.0627827
-0.0585972
-0.03957
-0.0553845
-0.076199
-0.0720135
-0.0529411
-0.0539592
-0.0698642
-0.0857918
-0.0718778
-0.0579185
-0.0637104
-0.0595248
-0.0256108
-0.0166063
-0.0376244
-0.0535972
-0.054638
-0.0556108
-0.0667873
-0.0480769
-0.0193439
-0.0305882
-0.0367647
-0.0330317
-0.0143665
-0.0308371
-0.0322625
-0.018733
0.0246833
0.0582353
0.07681
0.0703394
0.0838235
0.0774435
0.0661086
0.0797737
0.108439
0.137195
0.140973
0.139706
0.178552
0.202511
0.236606
0.240679
0.214774
0.183891
0.1731
0.192285
0.171312
0.135339
0.129412
0.123462
0.0723982
0.0163575
-0.0197285
-0.0408371
-0.0520136
-0.0783032
-0.0894796
-0.0806561
-0.0819683
-0.0884163
-0.0848416
-0.0612443
-0.0726244
-0.0637783
-0.0849774
-0.056267
0.0173756
0.116063
0.254638
0.423167
0.571787
0.65043
0.64405
0.567602
0.451335
0.319887
0.318439
0.416946
0.475543
0.304186
0.0728054
-0.0886425
-0.170158
-0.181561
-0.252828
-0.349005
-0.36009
-0.306403
-0.248009
-0.199842
-0.156674
-0.158507
-0.135317
-0.0971041
-0.0738235
-0.0704977
-0.072285
-0.0543439
-0.0666742
-0.083914
-0.101086
-0.108326
-0.110566
-0.0929638
-0.0804751
-0.0979864
-0.120339
-0.132715
-0.115
-0.107081
-0.123982
-0.145973
-0.142919
-0.104547
-0.110928
-0.117127
-0.123258
-0.124186
-0.149887
-0.150633
-0.106448
-0.107172
-0.10776
-0.138416
-0.134072
-0.139706
-0.120226
-0.100814
-0.0814932
-0.0723303
-0.0886878
-0.0855882
-0.0582127
-0.0263575
-0.0348643
-0.0181674
0.0141176
0.0122851
0.0112896
0.0204751
0.0494118
0.0632127
0.0675113
0.0727602
0.0838688
0.0904977
0.0922398
0.109072
0.111063
0.103122
0.0849548
0.0966516
0.103235
0.0945928
0.075724
0.0665837
0.0823982
0.0831448
0.0686878
0.0641629
0.084638
0.0750905
0.0602715
0.0452715
0.0652489
0.0801358
0.0447738
0.0442986
0.0739593
0.0787557
0.0535973
0.0435068
0.0536425
0.0137557
0.0137783
0.0136425
0.0336425
0.0290498
0.0198643
0.0313801
0.0337557
0.0268552
0.0202489
0.0335747
0.0265837
0.0391629
0.0361312
0.0480769
0.0504299
0.0329638
0.034638
0.0552489
0.0701357
0.0496154
0.0290045
0.0330091
0.0213348
0.0345928
0.0680317
0.116765
0.135724
0.139819
0.133824
0.122919
0.107149
0.096448
0.125837
0.195272
0.229819
0.219299
0.218824
0.238439
0.262941
0.297466
0.307104
0.301946
0.29181
0.296561
0.281199
0.255882
0.200747
0.20052
0.195249
0.145
0.0899547
0.0349774
0.00506787
-0.0247964
-0.0597285
-0.0548643
-0.0349547
-0.0197059
-0.0394118
-0.0441176
-0.0588688
-0.0635973
-0.0884615
-0.083371
-0.0430769
0.0223756
0.127851
0.243235
0.408597
0.54405
0.609638
0.565271
0.451131
0.302104
0.153009
0.133891
0.184864
0.230905
0.117036
-0.101697
-0.275339
-0.358959
-0.352557
-0.366199
-0.399864
-0.373507
-0.297059
-0.230656
-0.199299
-0.172986
-0.151697
-0.100407
-0.0691629
-0.0728733
-0.0615385
-0.0502715
-0.0540271
-0.0977828
-0.0914706
-0.0853167
-0.0993213
-0.0882353
-0.0569909
-0.0409502
-0.0600452
-0.0889366
-0.102783
-0.111742
-0.135701
-0.139593
-0.108688
-0.0928733
-0.0921945
-0.106403
-0.0954751
-0.109615
-0.128733
-0.137873
-0.122014
-0.11129
-0.115611
-0.134864
-0.129095
-0.123484
-0.112986
-0.0926244
-0.0724887
-0.0673529
-0.0669683
-0.0563801
-0.0459276
-0.0308597
0.0239593
0.0286426
0.0434616
0.0384389
0.0385068
0.0535068
0.0733937
0.078258
0.0881675
0.0981222
0.0829865
0.0729412
0.068258
0.073801
0.0493892
0.0152489
0.0365159
0.033077
0.0299095
0.00194575
-0.0159728
-0.00889137
0.00812221
0.0200227
-0.00821263
-0.00171942
-0.0102714
-0.00877823
-0.0123981
-0.031199
-0.0503619
-0.0649321
-0.0500678
-0.0310633
-0.0427601
-0.0749547
-0.0873076
-0.089819
-0.112127
-0.114004
-0.0904977
-0.0618325
-0.088552
-0.105339
-0.101222
-0.0952941
-0.0827375
-0.0691176
-0.0599321
-0.0702715
-0.0954525
-0.0810633
-0.0626244
-0.0550905
-0.0628054
-0.045362
-0.0478733
-0.0710407
-0.0853167
-0.0804977
-0.0810859
-0.0716063
-0.0522171
-0.0580316
-0.0886877
-0.0990045
-0.0790045
-0.0638009
-0.0685067
-0.0881674
-0.0876018
-0.0818099
-0.0910181
-0.0901809
-0.089276
-0.0684163
-0.0927828
-0.072104
-0.0513348
-0.0506334
-0.0699321
-0.059095
-0.0280995
-0.0421493
-0.0463122
-0.0455656
-0.054819
-0.0592081
-0.053733
-0.0332353
-0.00262441
-0.00703615
-0.0416063
-0.0361991
-0.0307692
-0.0254072
-0.0352036
-0.0150678
0.00506791
-0.0199774
-0.0151584
0.0145702
0.0492987
0.0790272
0.108756
0.108462
0.0731448
0.0427828
0.052353
0.117059
0.176923
0.197036
0.182059
0.182127
0.212217
0.24733
0.277602
0.2781
0.258733
0.234321
0.244864
0.255407
0.245905
0.231539
0.21224
0.152964
0.0835521
0.0441177
0.0195475
-0.0150452
-0.0296606
-0.0394118
-0.0191403
-0.0087783
-0.00334844
0.0020588
0.0125791
-0.00190049
-0.026448
-0.0410407
-0.0157014
0.0445927
0.139864
0.295226
0.455769
0.586244
0.636584
0.651833
0.602172
0.492489
0.402783
0.343167
0.43371
0.489118
0.354321
0.0595475
-0.185181
-0.25491
-0.244774
-0.284774
-0.364932
-0.385249
-0.325407
-0.275294
-0.240091
-0.225181
-0.190566
-0.161177
-0.136855
-0.112602
-0.108439
-0.11948
-0.115724
-0.107014
-0.118326
-0.119593
-0.12586
-0.1419
-0.137738
-0.128439
-0.129231
-0.150158
-0.156063
-0.156742
-0.162195
-0.157602
-0.152805
-0.157873
-0.172692
-0.172489
-0.162353
-0.16224
-0.182217
-0.192217
-0.19733
-0.19233
-0.202262
-0.197398
-0.172828
-0.148823
-0.160452
-0.157851
-0.140905
-0.129593
-0.153326
-0.161584
-0.139208
-0.111403
-0.103394
-0.0704751
-0.0628733
-0.0397737
-0.0354751
-0.0250678
-0.0039366
0.0224887
0.0341403
0.0460634
0.0727602
0.0539141
0.0348417
0.0359955
0.0623078
0.0684163
0.0593213
0.0551358
0.0359955
0.00694576
-0.0171266
0.0037557
0.0245928
0.0105204
0.0115612
-0.0224207
-0.0314931
-0.0608144
-0.0654298
-0.0403167
-0.0153167
-0.015475
-0.0408823
-0.0313122
-0.0317194
-0.0370135
-0.0422398
-0.0673755
-0.0874208
-0.0974434
-0.0826018
-0.0779185
-0.0831674
-0.0933257
-0.103213
-0.107579
-0.126312
-0.11948
-0.117172
-0.104547
-0.12181
-0.134321
-0.127398
-0.120882
-0.124751
-0.118371
-0.0868325
-0.0859954
-0.0915157
-0.0832126
-0.0452714
-0.0123529
0.00531681
0.00751138
-0.0204977
-0.0681448
-0.0856108
-0.0329638
0.0447059
0.0876018
0.0756335
0.0736878
0.0969231
0.140249
0.193597
0.221946
0.220453
0.179027
0.16767
0.136199
0.104615
0.0681901
0.0668778
0.095543
0.0941403
0.0327828
-0.0186425
-0.0301131
-0.0565158
-0.112828
-0.149185
-0.135633
-0.122059
-0.138439
-0.109864
-0.0764253
-0.0679638
-0.0994796
-0.116018
-0.0826018
-0.0241629
0.10448
0.26319
0.461878
0.600634
0.704502
0.718416
0.617262
0.481109
0.375023
0.34905
0.388122
0.432443
0.32681
0.091267
-0.119231
-0.249683
-0.285
-0.335317
-0.430498
-0.410543
-0.28043
-0.165362
-0.155407
-0.170362
-0.140249
-0.0951357
-0.0450679
-0.02
-0.01
-0.00520361
-0.0154751
-0.0306109
-0.0407014
-0.0559276
-0.0611086
-0.0563801
-0.0217195
-0.0172851
-0.0278054
-0.0431222
-0.0334163
-0.013733
-0.0240724
-0.0393213
-0.0446154
-0.0500453
-0.0654525
-0.0809955
-0.0766516
-0.0623303
-0.0528054
-0.0832806
-0.078914
-0.0795928
-0.100272
-0.0858824
-0.0515837
-0.0272398
-0.0478733
-0.0583937
-0.0540271
-0.0397511
-0.0404751
-0.0163348
0.0176923
0.0367195
0.0559276
0.0601584
0.0743439
0.083552
0.0978507
0.112149
0.136448
0.160792
0.139955
0.148756
0.157262
0.166063
0.150294
0.149729
0.16914
0.15371
0.138529
0.123484
0.128643
0.103959
0.0794796
0.0650452
0.0858145
0.0966063
0.0673303
0.0530317
0.0588235
0.0547738
0.0405882
0.0560407
0.0612443
0.0513348
0.0364253
0.0412217
0.0459502
0.0408371
0.0406109
0.0498869
0.0588009
0.0423982
0.0302489
0.0373756
0.034276
0.0316742
0.00970588
0.0185973
0.0131448
0.00300905
-0.00214932
0.0033258
0.000135742
-0.00242082
0.00959275
0.0159502
0.0175113
0.000158358
0.00359726
0.0118326
0.00925338
0.0106335
0.00101808
0.0258145
0.00520361
-0.0159502
-0.0272625
-0.0381448
-0.0334615
-0.053733
-0.0441629
-0.039457
-0.0393665
-0.0440724
-0.0488914
-0.0337104
-0.0434163
-0.0530769
-0.0427375
-0.0274208
-0.0372398
-0.0521719
-0.0471267
-0.0268778
-0.0414706
-0.0611991
-0.041086
-0.0359728
-0.0557013
-0.0654751
-0.0552941
-0.0301357
-0.0400905
-0.0350905
-0.0299774
-0.0347285
-0.0644344
-0.0591176
-0.0289366
-0.0287556
-0.0386425
-0.0587783
-0.0588914
-0.0638235
-0.0686199
-0.0835973
-0.0786199
-0.0734615
-0.0683258
-0.0333032
-0.0133937
-0.00846152
-0.0186651
-0.0238461
-0.0189819
-0.013914
0.00647061
0.0417647
0.0618779
0.0570588
0.0724208
0.107624
0.15776
0.148054
0.133665
0.134231
0.129615
0.0950453
0.0654751
0.0809503
0.0914706
0.0871267
0.0424887
-0.00753391
-0.062466
-0.0970135
-0.111448
-0.141222
-0.161154
-0.165973
-0.135656
-0.115271
-0.109796
-0.0944344
-0.119321
-0.109366
-0.129344
-0.149163
-0.108982
-0.0136651
0.0969231
0.202579
0.377873
0.507828
0.542805
0.467986
0.388462
0.328869
0.34405
0.474095
0.619299
0.584751
0.305023
0.065
0.0246607
0.0642534
-0.00592758
-0.206041
-0.336312
-0.396833
-0.45233
-0.432692
-0.343054
-0.24871
-0.209389
-0.185136
-0.130995
-0.0968552
-0.107805
-0.108982
-0.090543
-0.0919683
-0.1331
-0.12914
-0.080181
-0.071267
-0.0920588
-0.112783
-0.128597
-0.134344
-0.119796
-0.0999095
-0.0899774
-0.0997285
-0.129095
-0.108529
-0.0881674
-0.0777828
-0.0922624
-0.0918552
-0.0965385
-0.0962217
-0.075724
-0.0800905
-0.119276
-0.143462
-0.138032
-0.133439
-0.134502
-0.131041
-0.117986
-0.0852489
-0.0778054
-0.0852941
-0.0926923
-0.075181
-0.0782127
-0.116765
-0.100181
-0.0776471
-0.0284389
0.00178733
0.0522398
0.0676697
0.0635973
0.0352941
-0.0226244
0.0144796
0.0715158
0.0834842
0.0703167
0.0870136
0.113801
0.0907014
0.0324208
0.0291177
0.0710407
0.0828507
0.0694344
0.0459276
0.0225792
-0.00072398
0.0407919
0.102172
0.0684163
0.00441178
-0.00986425
0.0356561
0.0560181
0.0363801
0.00187783
-0.0275339
-0.0318326
-0.00108595
0.0447285
0.0654525
0.0563349
0.0271267
0.022715
-0.00651582
-0.0552715
-0.0585746
0.00864255
0.0766064
0.0849774
0.0433484
-0.0184842
-0.0207014
0.041629
0.0688688
0.0265611
-0.0301131
0.0181448
0.0802489
0.146041
0.171448
0.126968
0.112127
0.126335
0.179955
0.178258
0.141199
0.139231
0.192738
0.221674
0.215837
0.220271
0.210091
0.219932
0.274683
0.33957
0.319751
0.259864
0.239638
0.234344
0.239321
0.189525
0.164977
0.17552
0.170973
0.121154
0.0361991
0.0113801
-0.05319
-0.117715
-0.117353
-0.0918778
-0.0764027
-0.101086
-0.0958145
-0.0853168
-0.0747059
-0.0892082
-0.128665
-0.1631
-0.157647
-0.0772624
0.0780543
0.228416
0.36371
0.453982
0.514344
0.560023
0.545769
0.52129
0.536833
0.642557
0.763416
0.739118
0.534819
0.200498
-0.00364252
-0.0475339
-0.0511538
-0.164796
-0.328597
-0.407511
-0.391539
-0.340339
-0.304027
-0.277692
-0.231267
-0.214819
-0.188371
-0.157149
-0.166176
-0.215158
-0.193959
-0.177602
-0.186244
-0.204955
-0.203846
-0.167873
-0.181742
-0.200339
-0.199072
-0.173077
-0.142081
-0.135882
-0.154593
-0.188303
-0.177104
-0.181154
-0.185385
-0.184434
-0.188258
-0.211923
-0.210566
-0.184276
-0.182896
-0.191629
-0.180747
-0.189864
-0.178575
-0.137059
-0.10086
-0.130204
-0.124842
-0.084276
-0.0481222
-0.0166968
-0.0107013
-0.0303846
-0.0551131
-0.00454749
0.041448
0.0576245
0.0683937
0.0788914
0.0793213
0.0899548
0.115656
0.116267
0.102081
0.103235
0.0946154
0.0609955
0.0324435
0.0640498
0.0758372
0.0481223
0.00585981
0.0236426
0.0612444
0.0837331
0.0761313
0.0384164
-0.0344343
-0.072285
-0.065113
-0.00803161
0.0388915
0.0306562
-0.0127149
-0.0316741
-0.0365158
-0.0419004
-0.0227601
0.0208146
0.0137784
-0.0383936
-0.0706108
-0.0478054
-0.0402262
-0.0534615
-0.0728959
-0.0877601
-0.0712216
-0.0771945
-0.0609501
-0.0485746
-0.0507013
-0.082104
-0.0827149
-0.0329864
-0.0381221
-0.05319
-0.078009
-0.0725565
-0.0471945
-0.0127601
-4.51803e-05
-0.0234841
-0.0321493
-0.0107692
0.0201132
0.0152716
-0.0199094
-0.0350452
-0.00495467
0.000362054
-0.0341402
-0.0233936
0.00235298
0.0282127
0.0242761
0.0101584
0.0106788
-0.013733
-0.0279185
-0.0371945
-0.0216289
-0.0159728
-0.0101131
-0.00945693
-0.0139365
-0.0182126
-0.0323076
-0.0314253
-0.0306334
-0.049932
-0.0642986
-0.0386425
-0.00318998
-0.0128732
-0.0173981
-0.0319457
-0.0466063
-0.0612669
-0.085905
-0.0907014
-0.0557014
-0.0605656
-0.0855656
-0.0707013
0.00425339
0.0793665
0.0792986
0.0290724
-0.0410407
-0.0760181
-0.0258597
0.0642986
0.119231
0.113982
0.0839593
0.0691629
0.11448
0.159955
0.190452
0.200882
0.186312
0.17181
0.12724
0.10767
0.0882353
0.0838009
0.074276
0.0297059
0.000339299
-0.0540046
-0.0884842
-0.118258
-0.138009
-0.132511
-0.116833
-0.086086
-0.105453
-0.130136
-0.125045
-0.10991
-0.124548
-0.174005
-0.168552
-0.103303
0.026923
0.147172
0.277489
0.417941
0.528484
0.563937
0.584118
0.589299
0.624593
0.765
0.995294
1.09559
0.865905
0.47129
0.131493
0.0165837
-0.00339374
-0.103348
-0.233258
-0.3231
-0.377806
-0.377828
-0.328213
-0.268937
-0.274706
-0.275272
-0.230611
-0.180747
-0.17595
-0.191516
-0.197398
-0.203281
-0.209027
-0.204977
-0.206154
-0.222353
-0.238575
-0.249977
-0.236244
-0.237263
-0.253145
-0.224072
-0.195023
-0.190928
-0.226923
-0.217941
-0.203846
-0.224321
-0.234502
-0.204593
-0.194616
-0.239729
-0.254978
-0.22034
-0.195588
-0.195815
-0.216312
-0.212059
-0.172579
-0.147715
-0.182919
-0.183326
-0.184095
-0.185362
-0.167376
-0.135272
-0.103846
-0.127738
-0.111787
-0.0760634
-0.0602263
-0.064163
-0.0581448
-0.0229186
-0.0131901
-0.0128055
-0.015724
-0.0117647
0.0182579
0.0335068
0.0338461
0.0293439
0.0199547
-0.00432128
0.0015837
0.0174661
0.0283258
0.0390045
0.0545023
0.0396154
0.0095249
-0.000701353
-0.0159728
-0.0361312
-0.0511991
-0.0463122
-0.0468552
-0.0277149
-0.0187556
-0.0398868
-0.0609728
-0.0868778
-0.102557
-0.108462
-0.0996154
-0.105814
-0.1019
-0.0979638
-0.089276
-0.0906108
-0.106697
-0.11724
-0.137217
-0.146606
-0.120271
-0.103462
-0.0915611
-0.119638
-0.117715
-0.130679
-0.112964
-0.124072
-0.134661
-0.126357
-0.0900678
-0.0504977
-0.0265158
-0.037647
-0.0843439
-0.106652
-0.0943891
-0.0373981
0.0194345
0.0613575
0.0684842
0.0404978
0.0174435
-0.0205203
-0.0332579
0.0340046
0.121086
0.148077
0.110023
0.117104
0.149253
0.181448
0.188597
0.190724
0.167805
0.135
0.127285
0.12948
0.116878
0.104434
0.0970362
0.0845249
0.0470815
-0.0352488
-0.0976244
-0.114864
-0.131968
-0.119005
-0.0961991
-0.0884163
-0.11543
-0.12233
-0.0841176
-0.0460407
-0.0729638
-0.124683
-0.12129
-0.0831222
-0.0199548
0.073371
0.221833
0.390317
0.533824
0.637421
0.66595
0.689638
0.678507
0.702443
0.786403
0.960362
1.01955
0.803869
0.393258
0.0275113
-0.118235
-0.113733
-0.139118
-0.204548
-0.245113
-0.225611
-0.221244
-0.186855
-0.172353
-0.147715
-0.123009
-0.0832579
-0.0585746
-0.0490271
-0.0445022
-0.0800905
-0.145792
-0.166538
-0.12733
-0.0932805
-0.0842308
-0.0850678
-0.0909502
-0.116855
-0.137873
-0.109072
-0.0804072
-0.0666516
-0.0778054
-0.0989366
-0.0949547
-0.0859276
-0.0769004
-0.0680769
-0.0743891
-0.0758145
-0.0972398
-0.0934842
-0.0796833
-0.0657692
-0.0620362
-0.0534163
-0.0649095
-0.0962896
-0.112828
-0.0997059
-0.0514706
-0.0128507
0.00106335
0.005
0.0287104
0.0319457
0.0347511
0.0375566
0.0707014
0.0992534
0.112851
0.131154
0.144072
0.166991
0.164977
0.167964
0.19138
0.205385
0.20957
0.173394
0.162353
0.15181
0.146697
0.136787
0.137014
0.127285
0.107466
0.112602
0.0976697
0.0926244
0.0876471
0.0777828
0.0730091
0.0630091
0.0525339
0.0117647
0.0109502
0.0047285
-0.00733032
-0.0200679
-0.0332579
-0.0370136
-0.066267
-0.0604299
-0.0592308
-0.0680769
-0.0727149
-0.0632579
-0.069095
-0.108914
-0.141719
-0.127195
-0.0959276
-0.0787557
-0.080905
-0.0924208
-0.0882806
-0.079095
-0.0800453
-0.0656109
-0.0704072
-0.0801584
-0.0861765
-0.0540724
-0.0484615
-0.0734842
-0.083552
-0.0738009
-0.0492986
-0.075
-0.0705882
-0.0710634
-0.0812896
-0.101538
-0.106765
-0.101742
-0.101493
-0.101244
-0.105995
-0.0956787
-0.0904977
-0.0955882
-0.0805656
-0.0452489
-0.0248416
-0.0394344
-0.0490724
-0.0637557
-0.063733
-0.0388462
-0.0138235
-0.023552
-0.0481448
-0.0477602
-0.0674208
-0.0670136
-0.0666063
-0.0363348
-0.0161765
-0.0109502
-0.0205204
-0.0352036
-0.03
-0.0447964
-0.0346154
-0.00957015
0.000407226
-0.00959277
0.0103393
0.0700905
0.0497285
-0.000429873
-0.0254073
-0.00542988
0.0345022
0.0945701
0.169683
0.184751
0.169842
0.140181
0.175769
0.251357
0.312014
0.292851
0.243891
0.234909
0.211063
0.172511
0.164027
0.21052
0.1919
0.118303
0.0595928
0.0258823
0.00228507
-0.0262896
-0.0348869
-0.0285068
-0.00692307
0.00957014
-0.0141176
-0.0427602
-0.0714027
-0.0551357
-0.0289593
-0.0226244
-0.0262443
0.0501131
0.251199
0.427081
0.5381
0.639163
0.745204
0.766086
0.727059
0.712964
0.838665
1.04446
1.1505
0.991539
0.64224
0.277692
0.0632127
0.00889141
-0.0352262
-0.144434
-0.263824
-0.283326
-0.227851
-0.22733
-0.221742
-0.171244
-0.105973
-0.100792
-0.135566
-0.140339
-0.125181
-0.109977
-0.119842
-0.114819
-0.119977
-0.140068
-0.160136
-0.140294
-0.120656
-0.151244
-0.161855
-0.137534
-0.128213
-0.138846
-0.144367
-0.149819
-0.195249
-0.220498
-0.205656
-0.195543
-0.185204
-0.179706
-0.139186
-0.128552
-0.127624
-0.151606
-0.165747
-0.170045
-0.179299
-0.18862
-0.177964
-0.137285
-0.101538
-0.120588
-0.164638
-0.158937
-0.128824
-0.114389
-0.0957919
-0.0628054
-0.0399548
-0.0572851
-0.0746154
-0.0516968
-0.0135068
-0.0109729
-0.0144344
0.00701355
0.0195927
0.0142534
0.0106561
0.0278507
0.0301131
0.0126018
-0.00972851
0.00803167
0.0159502
-0.00604073
-0.0232805
-0.0158597
-0.038552
-0.0764254
-0.0746154
-0.0628281
-0.0708145
-0.0838462
-0.0671493
-0.0707466
-0.104638
-0.108733
-0.112692
-0.126584
-0.165498
-0.159367
-0.123145
-0.137059
-0.146176
-0.130475
-0.119751
-0.163914
-0.213032
-0.207149
-0.150747
-0.113371
-0.150317
-0.166855
-0.157828
-0.143258
-0.148575
-0.124072
-0.0797059
-0.0949547
-0.129276
-0.123122
-0.0777376
-0.0489819
-0.0468552
-0.0506787
-0.0798643
-0.0643213
-0.0393213
-0.0148869
-0.00554296
-0.0210634
-0.0267194
-0.0174434
0.0170136
0.0265611
0.0460634
0.050362
0.0396607
0.0190498
0.0435294
0.0929638
0.107353
0.0967421
0.0910408
0.100317
0.124751
0.169253
0.178575
0.192783
0.192172
0.176606
0.161086
0.150611
0.140158
0.114548
0.128914
0.0884616
0.0230543
-0.0223303
-0.042647
-0.0678054
-0.107986
-0.103303
-0.0787783
-0.0692534
-0.0797058
-0.0852262
-0.0807466
-0.0861991
-0.0714253
-0.0964932
-0.0916063
-0.0467647
0.0680543
0.222919
0.392783
0.537647
0.592624
0.642805
0.632964
0.598054
0.598213
0.723552
0.893914
0.889276
0.659751
0.240271
-0.0842308
-0.183778
-0.183303
-0.24776
-0.31724
-0.301833
-0.261493
-0.221041
-0.185634
-0.160362
-0.145158
-0.130045
-0.100068
-0.105158
-0.110204
-0.120362
-0.135498
-0.130566
-0.100679
-0.080905
-0.141176
-0.166606
-0.157285
-0.1481
-0.153959
-0.149683
-0.135475
-0.126267
-0.116968
-0.117715
-0.123688
-0.12991
-0.171063
-0.187036
-0.162896
-0.143914
-0.170045
-0.186154
-0.192308
-0.193484
-0.17957
-0.140498
-0.141584
-0.143009
-0.13457
-0.126086
-0.132443
-0.138688
-0.11491
-0.101425
-0.093077
-0.089819
-0.0915611
-0.0682353
-0.0400453
-0.0220362
-0.0141177
0.0289592
0.0420362
0.0502715
0.043552
0.0368778
0.0302488
0.0287782
0.0425113
0.0363574
0.0355656
0.0200226
0.00466058
0.00950222
0.019638
0.034819
0.0199999
0.0202262
0.000407182
-0.0145476
-0.0246607
-0.0348191
-0.0549774
-0.0800001
-0.0802716
-0.0760634
-0.0874435
-0.0845702
-0.0726019
-0.0465159
-0.040905
-0.0602263
-0.0742987
-0.0727376
-0.0857014
-0.0933937
-0.106335
-0.109344
-0.122217
-0.159253
-0.149955
-0.129321
-0.112738
-0.0902942
-0.0769231
-0.0932353
-0.0996381
-0.0964707
-0.0836426
-0.0808372
-0.0776019
-0.0738236
-0.0702489
-0.062715
-0.0620363
-0.0579413
-0.0492535
-0.0655204
-0.0820363
-0.0838915
-0.0556562
-0.077172
-0.0935747
-0.0847286
-0.0657014
-0.0715612
-0.0824661
-0.0682806
-0.0690951
-0.0548417
-0.0756561
-0.0765385
-0.0723303
-0.082896
-0.0783032
-0.0488914
-0.00954754
-0.020181
-0.00585974
-0.00158371
-0.00228508
-0.0128733
-0.0184842
0.00101811
0.00552036
0.00988689
-0.000882342
0.0132806
0.0224887
0.0167195
0.0208597
0.0197511
0.0385973
0.0323303
0.0309729
0.0346154
0.0484389
0.0822398
0.111018
0.139819
0.128575
0.102262
0.0908145
0.12448
0.168235
0.212059
0.235882
0.229706
0.243756
0.277851
0.307036
0.306335
0.315882
0.300475
0.295045
0.274774
0.244638
0.234548
0.239389
0.229321
0.139299
0.0792987
0.0492534
0.0292534
0.00938915
0.00954752
0.0247964
0.0150679
0.0104299
0.0255882
0.0505656
0.0506109
0.0256109
0.0104525
0.025181
0.0749095
0.159683
0.304389
0.479231
0.63414
0.74414
0.754095
0.709072
0.55914
0.449095
0.393937
0.443733
0.473529
0.418213
0.237805
-0.0126697
-0.193077
-0.248439
-0.268733
-0.328846
-0.343937
-0.274208
-0.189615
-0.150023
-0.145475
-0.115928
-0.0664706
-0.0271267
-0.0278959
-0.0386425
-0.0142986
-0.024819
-0.0351584
-0.0457014
-0.0415611
-0.0476244
-0.0634615
-0.0493665
-0.0705204
-0.08681
-0.0982127
-0.0745928
-0.0659276
-0.0719683
-0.0930317
-0.0891177
-0.0903168
-0.106448
-0.127511
-0.143529
-0.164276
-0.174548
-0.169434
-0.149253
-0.144027
-0.14362
-0.153122
-0.137647
-0.152172
-0.151584
-0.125996
-0.100498
-0.125
-0.149344
-0.128552
-0.0878281
-0.0572172
-0.061991
-0.0422851
-0.0235068
-0.0104978
-0.0128281
-0.0101131
-0.00678735
-0.0026697
0.0173529
0.0278054
0.0530543
0.0529638
0.0479864
0.0438235
0.0507692
0.0536652
0.0317421
0.0547511
0.0580995
0.0467195
0.0401357
0.0482579
0.0661765
0.0290271
-0.00337104
-0.0162217
0.000633487
-0.00257918
-0.0158597
-0.0195701
-0.0235747
-0.0477376
-0.0720136
-0.0663575
-0.070724
-0.0899774
-0.109231
-0.0834842
-0.0576923
-0.08181
-0.0808824
-0.0651357
-0.0644344
-0.0636199
-0.0675113
-0.0611086
-0.0841177
-0.0812443
-0.0676018
-0.043371
-0.0590272
-0.0847511
-0.0511991
-0.0333032
-0.0257014
-0.0327828
-0.00466066
0.00807691
-0.0100905
-0.0143439
-0.00441176
-0.00486426
-0.0256335
-0.0215837
-0.00260183
0.0165611
0.015905
0.0353846
0.034819
0.054276
0.0789819
0.103824
0.103643
0.0833484
0.0582127
0.0280317
0.0577828
0.112398
0.157036
0.136787
0.131493
0.171267
0.211086
0.255928
0.245633
0.225475
0.175566
0.180588
0.200385
0.205136
0.190023
0.179955
0.159796
0.10457
0.029276
-0.0160634
-0.0414027
-0.0365837
-0.0716968
-0.0917195
-0.0967421
-0.101719
-0.106765
-0.101833
-0.0768552
-0.0867647
-0.106719
-0.126765
-0.116742
-0.086448
-0.00095024
0.134434
0.334887
0.505407
0.585995
0.591606
0.492262
0.347964
0.178665
0.0744344
0.0952262
0.161131
0.172127
0.0379864
-0.161222
-0.345294
-0.389253
-0.358371
-0.397466
-0.426539
-0.380634
-0.304729
-0.273869
-0.262964
-0.227262
-0.156787
-0.101357
-0.0808145
-0.0752715
-0.0698417
-0.064457
-0.0590272
-0.0536652
-0.0584389
-0.0533711
-0.0633258
-0.0733711
-0.0784163
-0.0732806
-0.0680317
-0.0779638
-0.0629638
-0.0678507
-0.0776923
-0.0925113
-0.0723756
-0.0571719
-0.0770362
-0.0919683
-0.111946
-0.12681
-0.156697
-0.146765
-0.111742
-0.101584
-0.121403
-0.136403
-0.106425
-0.0863575
-0.0962444
-0.096267
-0.0663575
-0.0165385
-0.0369005
-0.0372398
-0.00748868
0.0374434
0.0474887
0.0626244
0.0876018
0.0824208
0.0922398
0.0971493
0.112059
0.101787
0.101222
0.105453
0.124842
0.124525
0.0944118
0.0892534
0.0890272
0.0590724
0.0393891
0.0599095
0.0554977
0.0112443
0.0221946
0.0533258
0.0696606
0.0411086
0.0176244
0.0190271
0.0202715
0.0163801
0.0171493
0.0227149
0.00814477
-0.00133487
-0.0208824
-0.0304751
-0.0251584
-0.0251358
-0.0206335
-0.00690049
-0.00882357
-0.0264254
-0.034276
-0.0319683
-0.0542082
-0.070543
-0.0510407
-0.045905
-0.0402036
-0.0388688
-0.0417195
-0.0437104
-0.0452263
-0.0372172
-0.0302263
-0.0235973
-0.0213575
-0.0385068
-0.0107919
0.00110856
-0.0230996
-0.0483484
-0.0390724
-0.0248417
-0.0309276
-0.0421267
-0.0531222
-0.0388462
-0.0345249
-0.0300905
-0.0154751
-0.0206109
-0.0305882
-0.0355204
-0.025362
-0.0201131
-0.0348643
-0.0445475
-0.0391855
0.0011991
0.00162897
0.0021267
-0.0174208
-0.0321267
-0.0319231
-0.0166742
-0.00138008
-0.0109502
-0.0205204
-0.0250905
-0.019638
-0.029095
-0.0385973
-0.02319
-0.00282805
-0.00755656
-0.0224661
-0.0124434
-0.00233031
-0.0170588
-0.01681
0.0132579
0.04319
0.0331222
0.00312216
0.0279864
0.0528507
0.0727828
0.0927828
0.0925113
0.0922172
0.0719909
0.0469004
0.0469231
0.0819683
0.137014
0.161878
0.16681
0.166833
0.186878
0.2269
0.241923
0.237036
0.227217
0.227443
0.217557
0.227647
0.20776
0.187738
0.18767
0.162715
0.10776
0.0126018
-0.0225113
-0.0475113
-0.0675339
-0.0977149
-0.0830317
-0.0682579
-0.0934163
-0.0934842
-0.0935068
-0.0884842
-0.103552
-0.123643
-0.133778
-0.118914
-0.0590272
0.0508371
0.225769
0.395792
0.535814
0.570792
0.515792
0.425837
0.255724
0.155633
0.150656
0.225701
0.255679
0.155588
-0.0294344
-0.234525
-0.274774
-0.220136
-0.245543
-0.360973
-0.43138
-0.39181
-0.347014
-0.302308
-0.258077
-0.199095
-0.160068
-0.130837
-0.136674
-0.137692
-0.123914
-0.105181
-0.121312
-0.127308
-0.11319
-0.094095
-0.085
-0.100882
-0.116787
-0.112602
-0.123235
-0.128529
-0.138597
-0.143394
-0.168077
-0.167624
-0.13724
-0.112014
-0.11681
-0.136516
-0.151131
-0.155837
-0.165543
-0.185226
-0.184864
-0.159502
-0.159299
-0.164344
-0.164955
-0.141425
-0.158733
-0.171471
-0.174299
-0.1619
-0.143959
-0.13052
-0.101878
-0.0985746
-0.0805656
-0.0820815
-0.0672398
-0.0310407
0.0108824
0.0177149
0.0343892
0.0512217
0.0382353
0.0501358
0.0768779
0.113688
0.110498
0.0970815
0.108371
0.104525
0.105905
0.0923756
0.0988235
0.0902263
0.0867421
0.0881448
0.0844797
0.0858371
0.0771946
0.0735973
0.0698416
0.0708145
0.0713349
0.0767195
0.0970588
0.102285
0.10733
0.0874208
0.0726471
0.0478281
0.0380543
0.0332579
0.0384389
0.0336878
0.0238235
0.0138009
0.0138462
0.0191629
0.01
0.00656112
0.00893669
0.00699098
0.000181004
-0.00208142
0.0150905
-0.00350675
-0.00753392
-0.00669682
0.0143439
0.0305204
0.0111765
0.0208371
0.049457
0.0779412
0.0916064
0.100023
0.0929186
0.0754751
0.0481222
0.0758371
0.153824
0.182014
0.180362
0.148914
0.157715
0.186629
0.22052
0.244457
0.218597
0.19276
0.18181
0.18086
0.170091
0.159434
0.17371
0.157941
0.102285
0.0166516
-0.0290723
-0.0498642
-0.0756561
-0.106606
-0.112534
-0.0932579
-0.0888914
-0.0946153
-0.100498
-0.0914027
-0.102262
-0.113145
-0.119163
-0.130226
-0.106018
-0.0368552
0.10724
0.29129
0.460498
0.564706
0.593937
0.528145
0.407308
0.326493
0.310747
0.375226
0.409796
0.32948
0.0541403
-0.226199
-0.36638
-0.346403
-0.31129
-0.365905
-0.430498
-0.405385
-0.335407
-0.295181
-0.269819
-0.214457
-0.149095
-0.098552
-0.108009
-0.112602
-0.112285
-0.111946
-0.136584
-0.121222
-0.0957919
-0.120385
-0.140113
-0.150068
-0.139932
-0.134638
-0.129389
-0.134231
-0.149072
-0.143824
-0.133643
-0.128462
-0.143281
-0.15819
-0.168235
-0.163303
-0.153303
-0.183348
-0.178484
-0.153733
-0.154005
-0.154253
-0.159434
-0.144683
-0.155
-0.16543
-0.161018
-0.116742
-0.0825113
-0.0832353
-0.0889593
-0.0645249
-0.0351358
-0.0359955
-0.0220362
0.0117647
0.0356561
0.0246606
0.0386651
0.0674887
0.0661764
0.0699774
0.0887556
0.117534
0.101471
0.100814
0.125385
0.120023
0.0947058
0.0645927
0.0699095
0.0755882
0.0515158
0.0324208
0.0533031
0.0691176
0.0498642
0.035543
0.0361538
0.0318552
0.0124887
-0.00203622
0.01319
0.0182126
0.0130316
0.0222624
0.0157692
-0.00151587
0.000475079
0.0117421
0.0229185
0.00938912
-0.00848419
-0.0157014
-0.00757921
0.00049771
-0.03681
-0.0288914
-0.0199095
-0.00920815
-0.0168778
-0.0285521
-0.039638
-0.0303394
-0.00126701
0.0170362
0.0196153
0.00194567
-0.0105656
-0.0130317
-0.00597287
0.00968324
0.00893664
0.0125339
-0.0137557
-0.0598417
-0.0511765
-0.00276021
0.035724
0.004457
0.00841629
0.00253393
-0.0130996
-0.0434616
-0.0485747
-0.0186425
-0.0137104
-0.0138009
-0.0288688
-0.0339366
-0.0489819
-0.0489819
-0.0190271
0.0209502
-0.00409502
-0.0441177
-0.0340498
-0.0140045
-0.00902715
-0.00914027
0.0108371
0.0158371
-0.00427601
0.000633493
0.0054525
0.000226252
-0.0200452
-0.00524887
0.00941177
0.0240045
0.018552
0.0130091
0.00246608
0.00678734
0.016086
0.0402941
0.0695249
0.0887783
0.0930995
0.0975339
0.0769231
0.0361991
0.0455204
0.119977
0.17448
0.188959
0.178643
0.183507
0.213371
0.268281
0.308303
0.278394
0.268597
0.243914
0.239367
0.229819
0.210294
0.195837
0.15638
0.1219
0.0573303
0.0127828
-0.0166742
-0.0361765
-0.0557919
-0.0503167
-0.0346833
-0.0291403
-0.0236199
-0.0281448
-0.0276697
-0.0472398
-0.0769231
-0.0766063
-0.0512443
0.0542987
0.18491
0.355453
0.536018
0.701606
0.717172
0.64767
0.513167
0.358575
0.273891
0.279231
0.354729
0.330158
0.165566
-0.0689819
-0.243484
-0.292986
-0.317738
-0.372783
-0.387896
-0.337964
-0.257941
-0.217941
-0.187828
-0.162828
-0.138032
-0.103394
-0.0736651
-0.0688914
-0.0740724
-0.0844344
-0.0852036
-0.0961086
-0.086923
-0.0723982
-0.0829185
-0.0933937
-0.0939593
-0.0895701
-0.0951584
-0.115747
-0.121086
-0.116086
-0.120724
-0.145339
-0.134955
-0.119457
-0.133869
-0.158167
-0.162353
-0.156584
-0.171018
-0.160543
-0.149909
-0.144163
-0.158281
-0.15233
-0.121403
-0.140656
-0.135294
-0.135588
-0.121742
-0.12862
-0.130837
-0.1131
-0.0799321
-0.0610407
-0.0616063
-0.0369683
-0.0174661
-0.00819003
-0.0237104
-0.0232127
0.00841631
0.0206788
0.0330091
0.0551358
0.072353
0.0748869
0.0676244
0.0903168
0.0828055
0.070181
0.062353
0.069457
0.0767195
0.0641403
0.0462444
0.0432127
0.0450905
0.0320589
0.0290272
0.0408371
0.0375566
0.0191629
0.0106335
0.01181
-0.00228503
-0.0164706
-0.0107466
-0.0101131
-0.0294344
-0.0286651
-0.0378733
-0.0271267
-0.0312443
-0.0403394
-0.0295475
-0.0139593
-0.0182579
-0.0623982
-0.0661086
-0.0542986
-0.0716968
-0.0682126
-0.0440271
-0.00984161
-0.0159276
-0.00764704
0.0097964
0.0167421
-0.0062217
-0.0238009
-0.00653842
-0.00515835
-0.00490949
-0.0154977
0.0235973
0.0724661
0.0910408
0.10457
0.0982806
0.10233
0.0565159
0.0658145
0.105204
0.144615
0.139231
0.129005
0.123846
0.138756
0.18371
0.22371
0.253665
0.218643
0.198756
0.193914
0.208982
0.20405
0.169231
0.164548
0.139796
0.0700905
-0.00957011
-0.0292534
-0.0340271
-0.0737783
-0.0933258
-0.0878959
-0.0726018
-0.0872851
-0.0818778
-0.0515385
-0.0661765
-0.0856787
-0.115113
-0.109593
-0.0991177
-0.0785068
0.0121267
0.16276
0.348326
0.488937
0.579615
0.605294
0.526109
0.362149
0.238303
0.184389
0.220498
0.281833
0.263258
0.0695928
-0.15914
-0.292783
-0.30138
-0.274955
-0.333394
-0.391652
-0.359842
-0.293122
-0.23138
-0.214638
-0.162964
-0.116425
-0.0949095
-0.0882805
-0.0467421
-0.025362
-0.0289819
-0.0524661
-0.0610408
-0.0447511
-0.0384163
-0.0520362
-0.0557919
-0.0546154
-0.0384163
-0.0472851
-0.046267
-0.0452489
-0.0492082
-0.0531901
-0.0522398
-0.0363801
-0.0704072
-0.0744118
-0.0685068
-0.0526244
-0.0766063
-0.085543
-0.0746832
-0.0588688
-0.0630996
-0.0775339
-0.0669457
-0.0512896
-0.0604751
-0.0546833
-0.0239593
0.00171946
-0.0127828
-0.0223982
-0.0121041
0.0182353
0.0336425
0.044095
0.0643212
0.0894796
0.0997737
0.0950905
0.105498
0.110837
0.121086
0.125837
0.13052
0.150407
0.140588
0.135837
0.126018
0.106267
0.0866968
0.0773982
0.0782805
0.0845248
0.071018
0.0525565
0.0641402
0.0660633
0.0481447
0.0150678
0.0118325
-0.00158376
-0.00531682
-0.00443447
-0.00866523
-0.0028055
-0.0319684
-0.0413349
-0.0358824
-0.045543
-0.0605431
-0.061267
-0.0577376
-0.0800453
-0.0929186
-0.101154
-0.0889819
-0.0911765
-0.117738
-0.113801
-0.0995023
-0.0946381
-0.113824
-0.111471
-0.117873
-0.129005
-0.130837
-0.1131
-0.0902037
-0.116991
-0.123756
-0.115996
-0.0992761
-0.0885974
-0.0887331
-0.0841404
-0.094525
-0.120181
-0.136154
-0.127036
-0.112557
-0.12276
-0.122919
-0.102896
-0.0926924
-0.112444
-0.107082
-0.0916064
-0.0960861
-0.125543
-0.120045
-0.0945928
-0.0941404
-0.108552
-0.0980318
-0.0926019
-0.0971946
-0.0965838
-0.0859956
-0.0804978
-0.0850227
-0.0995249
-0.083982
-0.0735295
-0.0880544
-0.0976245
-0.0872173
-0.0719458
-0.0867195
-0.101584
-0.101584
-0.0965385
-0.0764028
-0.0513575
-0.0565159
-0.0517874
-0.0569005
-0.0619457
-0.0421267
-0.0174208
0.027285
0.0269457
0.0265385
0.0309955
0.0155203
0.00518098
0.044819
0.099457
0.119231
0.13405
0.128778
0.138575
0.163439
0.228371
0.253348
0.248303
0.223326
0.203303
0.208394
0.188484
0.163484
0.148462
0.148371
0.0982579
0.00819004
-0.0217647
-0.0368778
-0.0969909
-0.137059
-0.137262
-0.107715
-0.0931448
-0.0935068
-0.0889593
-0.0844796
-0.109932
-0.145204
-0.120611
-0.0762217
-0.0369004
0.0222172
0.186358
0.380588
0.549977
0.654389
0.703801
0.618122
0.487398
0.36672
0.345882
0.415091
0.474412
0.403778
0.152986
-0.0979412
-0.238891
-0.249864
-0.280769
-0.371719
-0.407602
-0.353643
-0.269751
-0.235905
-0.237081
-0.193213
-0.144412
-0.125633
-0.126991
-0.118575
-0.110407
-0.12724
-0.138846
-0.135339
-0.1269
-0.123575
-0.11543
-0.137489
-0.124502
-0.116471
-0.12862
-0.146131
-0.14871
-0.136086
-0.163462
-0.165973
-0.153462
-0.150701
-0.182806
-0.18991
-0.171991
-0.168846
-0.180407
-0.196878
-0.178077
-0.169005
-0.19491
-0.19586
-0.16181
-0.137647
-0.143688
-0.124842
-0.126041
-0.132127
-0.118077
-0.0888915
-0.0547286
-0.0757014
-0.102059
-0.0690951
-0.0167196
0.00502254
-0.00368787
-0.00271504
0.0334841
0.0453845
0.0280316
0.0412216
0.0596832
0.0532578
0.0518099
0.065837
0.0608144
0.0517194
0.0481221
0.0448415
0.0569004
0.0640949
0.065837
0.0369004
0.0275791
0.0282578
0.0138008
0.0190044
0.0239592
0.0186425
-0.0221268
-0.00805442
0.000972763
-0.0102716
-0.00181006
0.0165384
0.00509046
-0.0261991
-0.0124435
0.00131218
-0.0198417
-0.0560408
-0.0574208
-0.0237331
-0.00486429
0.0292307
0.00859724
-0.0112896
-0.0402037
-0.0633032
-0.0709503
-0.0533032
-0.0260634
-0.0344797
-0.0234163
-0.0273756
-0.0359729
-0.0393666
-0.0231901
0.00678727
0.000633433
-0.0111991
-0.0331222
-0.010181
-0.00764708
-0.00538465
-0.00298645
0.00979635
0.0277149
0.0253846
0.0381674
0.0461312
0.0642307
0.0872172
0.125136
0.133122
0.0960407
0.0589366
0.0717194
0.114593
0.162489
0.18543
0.178281
0.181267
0.214344
0.26233
0.280362
0.258416
0.256584
0.269661
0.272851
0.221109
0.184321
0.182421
0.185588
0.138937
0.0672398
0.0304977
-0.0162896
-0.0680091
-0.0896154
-0.0912896
-0.0828733
-0.0942534
-0.0656109
-0.0570815
-0.0483937
-0.0696606
-0.0809728
-0.0872172
-0.0882353
-0.0540498
0.0249548
0.168891
0.318054
0.482511
0.627082
0.696629
0.646244
0.496018
0.315814
0.185543
0.165385
0.195339
0.220271
0.130249
-0.084638
-0.279548
-0.364593
-0.369638
-0.419615
-0.454457
-0.379276
-0.24914
-0.15914
-0.179231
-0.174457
-0.114751
-0.0599095
-0.0500226
-0.0401357
-0.0353846
-0.0405204
-0.0406561
-0.015905
0.00904976
-0.00590498
-0.0259276
-0.0361991
-0.0313348
-0.0463801
-0.061629
-0.056991
-0.0473077
-0.0424887
-0.0526697
-0.0526697
-0.0526697
-0.0727828
-0.0830091
-0.0783258
-0.0935973
-0.0888688
-0.0741177
-0.079457
-0.0946833
-0.104932
-0.0902941
-0.0655883
-0.0508145
-0.0509729
-0.0412444
-0.0316063
-0.0321493
-0.0327376
-0.00830318
0.016267
0.0160181
0.0208371
0.0754977
0.0949321
0.104299
0.0937104
0.118235
0.142873
0.137534
0.137036
0.13129
0.16052
0.149909
0.149548
0.149434
0.149548
0.134706
0.124842
0.135158
0.110928
0.107149
0.0985068
0.095
0.0718099
0.073733
0.090362
0.0866968
0.0680769
0.049457
0.0656108
0.0664932
0.0623303
0.068009
0.0533936
0.043552
0.0234841
0.0129638
0.0316968
0.049819
0.0324434
0.0198642
0.0223756
0.0204299
-0.000723988
-0.0113122
0.00837104
-0.00190046
-0.016629
-0.0250226
-0.021629
-0.0167647
-0.0215611
-0.0117873
0.00262441
0.00660632
-0.000113145
-0.00244346
0.000203595
-0.00705884
-0.0198416
-0.0188235
0.00113119
-0.00436653
-0.0249774
-0.0459276
-0.0470362
-0.0376697
-0.0377149
-0.0274887
0.00264706
0.00285069
-0.0216742
-0.0260407
-0.0302489
-0.0393213
-0.0483937
-0.0375113
-0.0216063
-0.0555656
-0.0545022
-0.0484842
-0.0225113
-0.0364932
-0.0404751
-0.0145701
-0.0236878
-0.0326923
-0.0266289
-0.00561083
-0.00961536
-0.0286199
-0.0227149
-0.0269004
-0.031086
-0.0502489
-0.0345701
-0.013914
-0.0031674
-0.0174434
-0.0169004
-0.00149319
-0.0211086
-0.0206109
-0.00515837
0.0151358
0.0254299
0.045724
0.0809502
0.0809955
0.0561538
0.0214027
0.0216968
0.0769683
0.127489
0.158032
0.158507
0.153959
0.154548
0.190317
0.236063
0.25681
0.227534
0.208507
0.199434
0.195317
0.17129
0.15724
0.168077
0.163824
0.114661
0.0354299
-0.0138461
-0.0430317
-0.0972172
-0.116516
-0.100882
-0.0701357
-0.0793665
-0.0736878
-0.0680543
-0.0773077
-0.101403
-0.110543
-0.0946606
-0.0638235
-0.0129638
0.0978507
0.253597
0.419548
0.540679
0.596697
0.557647
0.428643
0.249729
0.125656
0.101471
0.17233
0.198258
0.0541629
-0.175045
-0.354367
-0.35871
-0.313167
-0.382828
-0.467579
-0.442308
-0.327014
-0.291719
-0.28638
-0.261131
-0.211199
-0.171584
-0.1569
-0.137195
-0.112579
-0.11319
-0.14405
-0.144864
-0.115634
-0.116244
-0.126697
-0.127195
-0.107828
-0.133462
-0.153959
-0.149502
-0.145023
-0.150204
-0.154955
-0.134661
-0.139253
-0.14862
-0.167715
-0.161901
-0.151267
-0.160611
-0.18
-0.184502
-0.169072
-0.173507
-0.17276
-0.151991
-0.151312
-0.160905
-0.160882
-0.141674
-0.133394
-0.140724
-0.143439
-0.121177
-0.103688
-0.0856335
-0.0872851
-0.0640498
-0.0311086
-0.0231901
-0.0143666
0.000904948
0.0424434
0.0443212
0.0509728
0.0426244
0.054638
0.0569683
0.0742534
0.10138
0.098371
0.0952488
0.0819909
0.083733
0.0856108
0.0874887
0.0641855
0.0657918
0.0773981
0.0590271
0.0655429
0.0769456
0.0883936
0.0799095
0.0712217
0.0771266
0.047828
0.0434842
0.0438688
0.0590724
0.0493891
0.0398416
0.0402488
0.0307239
0.0212895
-0.0131901
-0.00778285
-0.00739822
-0.0119457
-0.0264253
-0.0357014
-0.0294797
-0.0526018
-0.07
-0.0568779
-0.0484842
-0.0502715
-0.0677602
-0.0511539
-0.0353168
-0.0245702
-0.0485973
-0.0576018
-0.042353
-0.0181674
-0.0149095
-0.00174211
0.0465385
0.0743213
0.0665385
0.0487557
0.0415611
0.0295928
0.0376245
0.0907466
0.159027
0.162511
0.151018
0.149615
0.178394
0.232217
0.230905
0.219593
0.193507
0.187398
0.196177
0.2
0.193937
0.157692
0.156335
0.14
0.0737104
-0.00757913
-0.053914
-0.0800678
-0.126131
-0.162217
-0.158416
-0.124615
-0.105724
-0.106946
-0.0933257
-0.0747058
-0.0859049
-0.132172
-0.158416
-0.134525
-0.0804977
-0.00147052
0.157466
0.37638
0.530294
0.624186
0.6131
0.562285
0.451652
0.365996
0.390181
0.469502
0.49414
0.303824
0.00350688
-0.241787
-0.31681
-0.2919
-0.327059
-0.407308
-0.422489
-0.362556
-0.297579
-0.267489
-0.247398
-0.21733
-0.18233
-0.167421
-0.147421
-0.137466
-0.137647
-0.147805
-0.157964
-0.158371
-0.148801
-0.149072
-0.169253
-0.17457
-0.164955
-0.170249
-0.190633
-0.186041
-0.166425
-0.17681
-0.177308
-0.177964
-0.188597
-0.204185
-0.204819
-0.205611
-0.211471
-0.212285
-0.198167
-0.19414
-0.195113
-0.186063
-0.182308
-0.178778
-0.185136
-0.186312
-0.162624
-0.144253
-0.100928
-0.107489
-0.0888461
-0.0702941
-0.051923
-0.048733
-0.0257013
-0.0127149
0.00545256
0.0438688
0.0821946
0.105385
0.0884616
0.0715611
0.0746381
0.0778507
0.0914933
0.0854525
0.0944797
0.0935068
0.0777602
0.0673982
0.0674887
0.067715
0.0480544
0.0533485
0.0685521
0.0588688
0.0542761
0.0696833
0.0748869
0.0751584
0.0704299
0.0653168
0.0698191
0.0490725
0.0230544
0.0163349
0.0188688
0.0207693
0.00696841
0.0176924
0.0281901
0.0193213
-0.00864248
-0.000746559
-0.00737552
-0.0189819
-0.0507466
-0.0625113
-0.0433936
-0.017647
-0.00518097
-0.00176466
-0.00294112
-0.0338913
-0.0499547
-0.0217872
0.0156562
0.0130318
-0.0193664
-0.0168778
-0.00542979
0.00457021
-0.016561
-0.00314471
0.0153847
0.023801
0.0167648
-0.0104072
-0.00723976
-0.00868775
-0.015
-0.0162896
-0.0173982
0.00174211
-0.0190724
-0.00981898
-0.00552034
-0.0111538
-0.00185519
0.0324208
0.0417647
0.0161991
0.00556562
0.0247285
0.0288688
0.0131448
0.00246605
0.00162893
-0.00418555
0.0101357
0.0243439
0.0485294
0.0427149
0.0219004
0.0210407
0.0201131
0.0391403
0.028009
0.0368552
0.0407692
0.0297511
0.0286425
0.0674434
0.0961991
0.0799321
0.0435068
0.0669683
0.115543
0.139276
0.128167
0.0918552
0.0855656
0.114389
0.168235
0.227149
0.241131
0.215226
0.209344
0.258643
0.283213
0.292919
0.282602
0.277149
0.256833
0.216606
0.216471
0.206244
0.196109
0.146131
0.0911086
0.0459955
0.0159276
-0.0189819
-0.0340045
-0.0190272
-0.033914
-0.048733
-0.053552
-0.0433258
-0.0579638
-0.0725566
-0.0522172
-0.0469231
-0.0365385
-0.00117647
0.10905
0.239186
0.384434
0.574796
0.700045
0.750294
0.625656
0.446086
0.246425
0.0967873
0.0671493
0.127511
0.182715
0.0678054
-0.131923
-0.291561
-0.346244
-0.34095
-0.400588
-0.425339
-0.365249
-0.290023
-0.249638
-0.219367
-0.169412
-0.129548
-0.109751
-0.105113
-0.0804072
-0.0805204
-0.0904299
-0.0704072
-0.0556787
-0.0712896
-0.0918778
-0.0923982
-0.0779638
-0.0885747
-0.109367
-0.105181
-0.101086
-0.101833
-0.117466
-0.113167
-0.118733
-0.134072
-0.144367
-0.129796
-0.105045
-0.104819
-0.124412
-0.138914
-0.123281
-0.122511
-0.131742
-0.115995
-0.110249
-0.109412
-0.118507
-0.12276
-0.106946
-0.0960181
-0.0649095
-0.0588914
-0.0579864
-0.0673303
-0.0473303
-0.0181448
-0.00452489
0.00373302
0.0317195
0.054819
0.0536425
0.0385747
0.0492081
0.0898416
0.105
0.100045
0.115792
0.107805
0.121041
0.114593
0.132828
0.136086
0.119706
0.118281
0.111538
0.129661
0.107692
0.0953846
0.0925792
0.109615
0.101538
0.0683937
0.0650453
0.0764932
0.0677602
0.0338688
0.0397964
0.0456787
0.0316968
0.00766969
0.00346154
0.00923078
-0.0149321
-0.0241176
-0.0134615
-0.00771492
-0.0218778
-0.0360181
-0.0299321
-0.013371
-0.0311312
-0.0481448
-0.0294118
-0.0101357
-0.0155656
-0.0315385
-0.0334389
-0.0261991
-0.0296154
-0.0381901
-0.0315611
-0.0146833
-0.0333484
-0.0280091
-0.00846156
-0.00420815
-0.0249095
-0.0359729
-0.0222851
-0.0283937
-0.0292081
-0.00995474
0.0242986
0.0437557
0.0684163
0.113077
0.0775566
0.0520815
0.0266516
0.0511539
0.110701
0.160362
0.160068
0.144706
0.149389
0.159163
0.198937
0.223665
0.223416
0.198258
0.178145
0.187986
0.167851
0.15276
0.152557
0.157308
0.10724
0.0223529
-0.0124887
-0.0475113
-0.0874434
-0.117285
-0.122172
-0.102172
-0.0870588
-0.0818326
-0.101538
-0.0863349
-0.101199
-0.125928
-0.145543
-0.135
-0.099457
-0.0388688
0.0966742
0.277262
0.443077
0.553914
0.599774
0.540792
0.406991
0.213213
0.0841855
0.0752036
0.146357
0.167647
0.0439593
-0.179638
-0.388235
-0.441855
-0.395566
-0.404208
-0.432783
-0.396493
-0.315226
-0.293937
-0.277579
-0.221425
-0.150407
-0.114321
-0.0981674
-0.0920588
-0.0961312
-0.105226
-0.109299
-0.103575
-0.0980543
-0.102466
-0.116765
-0.121109
-0.0956334
-0.0951583
-0.0996154
-0.109231
-0.0889592
-0.0885294
-0.103077
-0.0977375
-0.112511
-0.107217
-0.126833
-0.146516
-0.121244
-0.11586
-0.13043
-0.135068
-0.109819
-0.11957
-0.124276
-0.119072
-0.103937
-0.103846
-0.098914
-0.0792307
-0.0645927
-0.0546832
-0.0597285
-0.0397964
-0.00990947
0.00488691
0.0143892
0.0387783
0.0683485
0.0729865
0.0674661
0.0868779
0.131561
0.146177
0.135656
0.140045
0.149683
0.139706
0.11491
0.110158
0.100475
0.096086
0.0870815
0.0784842
0.0802263
0.0670136
0.0586652
0.0552263
0.0568552
0.0433032
0.0545702
0.0559729
0.0324435
0.0186878
0.00954755
0.0302942
-0.0042081
-0.00927599
-9.04649e-05
0.0133258
0.000927627
-0.0220135
-0.0399774
-0.0327149
-0.0247737
-0.0414706
-0.0581222
-0.0650905
-0.0622851
-0.0738914
-0.0739366
-0.0620814
-0.079095
-0.0656561
-0.0565837
-0.0567194
-0.0669909
-0.06819
-0.0255656
-0.0236425
-0.0118778
-0.0249547
-0.0330769
-0.0368778
-0.0468099
-0.0327375
-0.0238461
-0.0247737
-0.0407918
-0.0318552
-0.0326471
-0.0480317
-0.0483258
-0.0285068
-0.0133936
-0.0331448
-0.0327375
-0.0321945
-0.0264705
-0.0257918
-0.0201809
0.0153394
0.0257919
0.0163122
-0.00312215
-0.00755654
0.00807694
0.00377828
-0.00554299
0.00515835
0.0208371
-0.00346152
-0.00280543
0.00773755
0.0182579
0.00873302
0.00423075
-0.000316754
-0.0100453
-0.0197285
-0.0145701
-0.00954752
-0.00461538
-0.00957014
-0.0145927
0.000294134
0.00513577
0.0198869
0.0695928
0.104208
0.118778
0.0782806
0.0727602
0.057172
0.0566742
0.0913348
0.150995
0.175701
0.15552
0.175475
0.230453
0.270498
0.255634
0.23595
0.241403
0.236946
0.207489
0.182986
0.193462
0.183801
0.154027
0.0941403
0.0193213
-0.0304751
-0.0803619
-0.0902941
-0.0853167
-0.0852036
-0.0900226
-0.0699095
-0.0449321
-0.0748868
-0.084819
-0.0848189
-0.0847963
-0.0947285
-0.0745701
0.0104073
0.145385
0.310453
0.51052
0.645588
0.655611
0.585611
0.450634
0.355724
0.320792
0.370701
0.430656
0.335634
0.0506561
-0.234276
-0.304231
-0.239367
-0.269457
-0.399525
-0.429751
-0.360136
-0.295633
-0.271063
-0.246629
-0.212059
-0.182466
-0.157873
-0.133348
-0.12405
-0.139932
-0.135973
-0.126991
-0.147918
-0.173756
-0.184751
-0.186018
-0.19733
-0.208529
-0.169661
-0.170928
-0.187104
-0.223167
-0.219231
-0.215204
-0.200928
-0.181131
-0.191199
-0.206222
-0.221131
-0.240792
-0.230407
-0.225249
-0.235204
-0.24009
-0.224955
-0.215
-0.204842
-0.194434
-0.19905
-0.198891
-0.208959
-0.189412
-0.17552
-0.137217
-0.124615
-0.112624
-0.115973
-0.11414
-0.101742
-0.0886652
-0.055181
-0.0465837
-0.0228959
0.005905
0.0353168
0.0504751
0.0614254
0.0626471
0.0590724
0.076086
0.0785068
0.0807014
0.0823982
0.0840724
0.0658824
0.0675566
0.0740045
0.0603167
0.0316968
0.0380317
0.0591403
0.055181
0.0611991
0.0821946
0.0979638
0.0785521
0.0638462
0.0738688
0.08362
0.0883711
0.0481901
0.0280317
0.0429412
0.0580543
0.0532806
0.0482806
0.0381448
0.0180317
-0.0020362
-0.00210407
0.00291853
-0.00167421
-0.0107014
0.00604071
-0.00126699
-0.00789592
-0.0144796
-0.00647056
-0.00909498
-0.0171493
0.00461544
-0.0084841
-0.00633478
-0.0246832
-0.0343664
-0.0204072
-0.00180991
-0.00300902
-0.00445698
0.0234616
0.0411538
0.0591856
0.0824435
0.110679
0.0889819
0.0673982
0.0559502
0.0646154
0.103507
0.157376
0.201086
0.194864
0.158824
0.147692
0.18138
0.225113
0.233891
0.227647
0.226403
0.235362
0.214321
0.188213
0.192014
0.170905
0.11991
0.038914
0.0180091
-0.00285067
-0.0486652
-0.10957
-0.105588
-0.0614479
-0.0472851
-0.0532579
-0.0442986
-0.0302262
-0.0760859
-0.121968
-0.10767
-0.0684163
-0.0242534
0.0548643
0.189118
0.308439
0.467896
0.607489
0.68724
0.642104
0.511923
0.37672
0.291584
0.281652
0.311765
0.322014
0.202489
-0.00183254
-0.181154
-0.255498
-0.299842
-0.394208
-0.423529
-0.347851
-0.257104
-0.231267
-0.205452
-0.134819
-0.0992307
-0.0885068
-0.0978507
-0.0923529
-0.0718326
-0.0811764
-0.0655203
-0.0698869
-0.0491855
-0.0685068
-0.0779638
-0.0673755
-0.0566516
-0.0658823
-0.0752262
-0.079819
-0.0995023
-0.12405
-0.123507
-0.103032
-0.0825566
-0.0869683
-0.0964706
-0.10629
-0.106041
-0.105769
-0.0954525
-0.100158
-0.109796
-0.12448
-0.124276
-0.10414
-0.0990272
-0.098914
-0.0938462
-0.0738009
-0.0689367
-0.054095
-0.0444344
-0.0298643
-0.0200226
-1.49012e-08
0.0248869
0.0344344
0.0539593
0.0485294
0.0631222
0.0928733
0.102715
0.112376
0.111787
0.111109
0.0855204
0.100181
0.120136
0.110317
0.0806335
0.0808597
0.096086
0.0766742
0.0677828
0.0641629
0.0555656
0.0520588
0.0537557
0.0553846
0.0419004
0.0284163
0.00986426
0.0261312
0.0270362
0.0077828
-0.0164932
-0.0108145
-0.00540726
-0.0302263
-0.0301358
-0.0105882
-0.00180997
-0.0137783
-0.0211539
-0.0088688
-0.0415385
-0.0385068
-0.0195928
-0.0199774
-0.0299774
-0.0297285
-0.0191403
-0.0323756
-0.0490272
-0.0694797
-0.0497285
-0.0255656
-0.0219005
-0.0283484
-0.024819
-0.0264254
-0.0433258
-0.0558598
-0.0394118
-0.023914
-0.023914
-0.0242308
-0.0199774
-0.0209503
-0.0365837
-0.0568552
-0.0519231
-0.03181
-0.0214027
-0.0458371
-0.0451584
-0.0395702
-0.0390045
-0.048258
-0.0524661
-0.0416064
-0.0358145
-0.0149321
-0.00411765
-0.0283484
-0.0474887
-0.0466064
-0.0156788
0.000271454
0.00115383
-0.013077
-0.0174435
-0.00674215
-0.0110182
-0.0451811
-0.0443892
0.00633478
-0.00805436
-0.00748876
-0.0219005
-0.026267
-0.025724
-0.0253168
-0.01
-0.00475116
0.00545245
0.000633433
0.000837058
0.0260407
0.0511991
0.0563122
0.0764479
0.0865384
0.0415611
0.0216289
0.0517647
0.127014
0.162262
0.17267
0.188009
0.178326
0.188869
0.209525
0.245317
0.256063
0.24681
0.232511
0.223326
0.219253
0.185113
0.170928
0.161719
0.117557
0.0483484
-0.000769228
-0.00993212
-0.029276
-0.0635973
-0.0678507
-0.0670815
-0.0613575
-0.0656109
-0.074819
-0.0740498
-0.0583032
-0.0726471
-0.106991
-0.106267
-0.0505204
0.0151131
0.150747
0.316516
0.492285
0.598077
0.628914
0.574751
0.43543
0.281154
0.171946
0.167647
0.248235
0.293891
0.194638
-0.0147059
-0.199231
-0.288891
-0.28862
-0.313416
-0.373371
-0.378394
-0.318326
-0.243235
-0.223258
-0.203326
-0.173461
-0.138846
-0.114412
-0.114932
-0.0953167
-0.0957918
-0.0865837
-0.107624
-0.123643
-0.11948
-0.120158
-0.13586
-0.126606
-0.117353
-0.138145
-0.158914
-0.159638
-0.150045
-0.150136
-0.154909
-0.154547
-0.164299
-0.159005
-0.178597
-0.1931
-0.182647
-0.177262
-0.1719
-0.186561
-0.171109
-0.175679
-0.170294
-0.164864
-0.149344
-0.139321
-0.144887
-0.146312
-0.13362
-0.116335
-0.114185
-0.101697
-0.073733
-0.065181
-0.0713575
-0.0678054
-0.0393891
-0.0256787
-0.015905
0.00522625
0.0370815
0.0387104
0.0450679
0.0469005
0.0592534
0.046629
0.0587557
0.0806335
0.0623304
0.0489593
0.0304752
0.0419684
0.043439
0.0297512
0.0209955
0.0172399
0.0235068
0.00463803
0.0106561
0.0166064
0.0073756
-0.0221267
-0.0168552
0.0133032
0.00332583
-0.0117194
-0.0167647
-0.0218551
-0.0419683
-0.0720136
-0.0520814
-0.0471945
-0.0471493
-0.0721493
-0.0823303
-0.0825792
-0.0825566
-0.0822172
-0.0913349
-0.079819
-0.0925114
-0.104593
-0.0866064
-0.0789593
-0.0819005
-0.0755204
-0.0547738
-0.0392534
-0.053371
-0.0622851
-0.0567195
-0.0372398
-0.0336426
-0.00554302
0.0273755
0.0600904
0.0623982
0.0396832
0.0272624
0.0301809
0.0231674
0.0511764
0.119208
0.157376
0.145769
0.119208
0.137715
0.191244
0.224932
0.223575
0.202127
0.175724
0.154344
0.162986
0.166697
0.175475
0.15914
0.142692
0.081267
0.0149095
-0.0363575
-0.0576244
-0.0588688
-0.0901358
-0.11638
-0.107738
-0.0841855
-0.0706109
-0.081991
-0.0833258
-0.0996607
-0.10086
-0.127081
-0.138213
-0.109186
-0.0150227
0.114118
0.288077
0.476968
0.565928
0.595
0.534027
0.433145
0.312443
0.246787
0.306018
0.360294
0.319774
0.089276
-0.191154
-0.34138
-0.336403
-0.296471
-0.371606
-0.411674
-0.381674
-0.316742
-0.24681
-0.216765
-0.191765
-0.146855
-0.107036
-0.0922624
-0.0674434
-0.0678054
-0.0782127
-0.0885746
-0.0938688
-0.0843665
-0.08
-0.0854978
-0.0961086
-0.0969231
-0.082715
-0.0732353
-0.0937557
-0.0993665
-0.0899774
-0.0806787
-0.101606
-0.10776
-0.0988235
-0.119864
-0.125882
-0.122036
-0.108213
-0.114344
-0.120543
-0.106787
-0.0831448
-0.0844796
-0.11595
-0.102511
-0.0840498
-0.0957466
-0.102534
-0.0742307
-0.0306561
-0.0320588
-0.0337104
-0.0205882
0.00739822
0.015362
0.0332579
0.071267
0.0892987
0.117353
0.11543
0.108552
0.106561
0.109457
0.122421
0.145837
0.149729
0.123756
0.112919
0.117217
0.111833
0.0867873
0.0770588
0.0823982
0.0776018
0.0727149
0.0527149
0.0478054
0.0428959
0.0479638
0.0529412
0.0478507
0.0425339
0.0218552
0.015724
0.00880087
0.00106332
-0.00269233
-0.00203622
-0.00142536
-0.000407241
-0.00864255
-0.0163348
-0.0336425
-0.0511312
-0.0539593
-0.0719683
-0.104502
-0.120837
-0.105905
-0.0700226
-0.0531448
-0.0501131
-0.0514932
-0.0330543
-0.0352489
-0.0431222
-0.0415384
-0.020362
-0.0241403
-0.0377602
-0.0265837
-0.0314932
-0.0577375
-0.0745927
-0.0664253
-0.0480543
-0.0650679
-0.0722398
-0.074276
-0.0659955
-0.0723756
-0.0835746
-0.0795701
-0.0802715
-0.0608371
-0.0714027
-0.0468778
-0.0473756
-0.0629186
-0.0734842
-0.0489819
-0.0144118
-0.0399095
-0.0254525
-0.0109728
-0.0114932
-0.0419457
-0.0523756
-0.0479412
-0.0535747
-0.0392308
-0.009819
0.00952488
0.00882352
0.00821267
0.00246606
0.00665159
0.000701368
-0.0102941
0.0037104
0.0126018
0.026448
0.030362
0.0443213
0.0480996
0.0567421
0.0954977
0.109231
0.0929864
0.0517647
0.0606787
0.0995701
0.138462
0.172353
0.196357
0.215498
0.219683
0.249027
0.278507
0.27819
0.247896
0.262557
0.292376
0.272262
0.202308
0.167398
0.177511
0.137511
0.0824434
0.0324887
0.0125339
-0.0224887
-0.0375792
-0.0276244
-0.0325792
-0.0275113
-0.0376244
-0.0328054
-0.0179186
-0.0129638
-0.0130769
-0.0232353
-0.00830317
0.0415611
0.196335
0.376131
0.570973
0.67586
0.695656
0.630475
0.480385
0.350249
0.265023
0.289683
0.364299
0.378891
0.263371
0.0277149
-0.157896
-0.238439
-0.283846
-0.349186
-0.389525
-0.319864
-0.240136
-0.19043
-0.190905
-0.166471
-0.117081
-0.0977828
-0.0935294
-0.0841629
-0.0697738
-0.0854525
-0.086267
-0.0923303
-0.0834163
-0.0895249
-0.0906109
-0.09681
-0.103235
-0.114683
-0.136222
-0.15776
-0.149231
-0.135407
-0.131606
-0.127738
-0.128824
-0.134909
-0.15586
-0.161516
-0.141742
-0.136855
-0.151742
-0.151493
-0.151244
-0.146041
-0.13595
-0.125882
-0.110837
-0.115679
-0.120407
-0.115136
-0.124661
-0.114095
-0.10371
-0.0686878
-0.0441629
-0.0504072
-0.0324434
-0.0100905
-0.00273756
-0.0150226
-0.00662896
0.0375566
0.0321719
0.0268778
0.0161991
0.0402489
0.0546154
0.0600905
0.0615611
0.0783484
0.0852036
0.0674434
0.0802262
0.0881448
0.0809729
0.0686878
0.0661765
0.0732806
0.0402489
0.0322624
0.0141177
0.0306335
0.0319683
0.033371
0.039638
0.0207014
0.0166742
0.00748869
0.0130995
0.00871041
-0.0155882
-0.0249321
-0.00420814
0.00649322
-0.0127828
-0.0220136
-0.00122173
0.00459275
-0.0195928
-0.0237557
-0.00769232
-0.0159502
-0.0283032
-0.0348416
-0.00588237
-0.00176471
-0.0129412
-0.00493213
0.0123529
0.0243891
0.0215611
0.0290045
0.041448
0.043371
0.0192308
0.0191855
0.0236199
0.0227149
0.0214706
0.015
0.0137783
0.0128507
0.0420814
0.0612443
0.0904751
0.104955
0.099457
0.0839593
0.0734615
0.0630317
0.077466
0.14181
0.166222
0.155769
0.145226
0.169638
0.229095
0.22862
0.2381
0.242421
0.226674
0.181086
0.175656
0.185271
0.174977
0.159751
0.11948
0.0791176
0.0188009
-0.0313801
-0.0665837
-0.0818552
-0.0821041
-0.102353
-0.0874887
-0.077534
-0.0774887
-0.0874208
-0.0824887
-0.0626245
-0.10767
-0.127715
-0.0928507
-0.00796381
0.0972172
0.257579
0.447851
0.59319
0.60871
0.534276
0.399796
0.230317
0.146086
0.166855
0.267579
0.313303
0.20414
-0.0299095
-0.209027
-0.238122
-0.217127
-0.276131
-0.375249
-0.399434
-0.348462
-0.292557
-0.241742
-0.18595
-0.140045
-0.119344
-0.103824
-0.0984389
-0.0929186
-0.097353
-0.106855
-0.116357
-0.14595
-0.130475
-0.12
-0.134502
-0.144027
-0.138801
-0.148643
-0.153371
-0.153032
-0.147828
-0.147738
-0.152579
-0.162376
-0.152308
-0.152262
-0.147104
-0.166968
-0.151968
-0.157081
-0.172036
-0.171923
-0.141968
-0.112059
-0.142081
-0.147127
-0.132376
-0.11776
-0.1181
-0.118371
-0.103688
-0.0689366
-0.039276
-0.0299095
-0.020724
-0.00667419
0.00746609
0.0216064
0.0356561
0.0446154
0.0386199
0.0528055
0.0568552
0.0658824
0.065
0.079276
0.0987557
0.0785747
0.0585747
0.0736426
0.0838914
0.0694344
0.0505204
0.0517647
0.0680317
0.0642986
0.0404299
0.0213122
0.0170588
0.0029638
-0.0110634
-0.0050905
-0.00438914
-0.0189819
-0.0288235
-0.0191176
-0.0200452
-0.0265837
-0.0286425
-0.0515611
-0.0649095
-0.078371
-0.0716968
-0.0498869
-0.0430769
-0.0615158
-0.0759728
-0.0509276
-0.0502715
-0.0827149
-0.0981674
-0.0823303
-0.0754977
-0.0876471
-0.0840045
-0.0803167
-0.0672172
-0.0748642
-0.0779412
-0.0711312
-0.0790724
-0.0769005
-0.0852715
-0.0647964
-0.0702489
-0.0757919
-0.0711765
-0.0668778
-0.0430543
-0.0743439
-0.0704525
-0.0665384
-0.0674434
-0.0878507
-0.0778733
-0.0478507
-0.0378507
-0.0528507
-0.0629185
-0.0481222
-0.0434163
-0.043552
-0.0634841
-0.0732127
-0.0729864
-0.0730317
-0.0432353
-0.0386199
-0.0441629
-0.0497059
-0.0401584
-0.0256335
-0.0213348
-0.0271267
-0.0230091
-0.0239366
-0.0351131
-0.0412896
-0.0274887
-0.0135068
-0.0245023
-0.0407014
-0.0221267
-0.00866517
-0.0101131
0.0032353
0.0414932
0.0747059
0.0729638
0.0562896
0.0395023
0.0226923
0.0459502
0.109299
0.147624
0.170905
0.149344
0.147919
0.196652
0.235543
0.254502
0.228326
0.252195
0.241222
0.21052
0.164887
0.134231
0.12371
0.108235
0.082828
0.0325113
-0.00764707
-0.0677828
-0.103054
-0.0983711
-0.0935294
-0.0785747
-0.0687557
-0.0439367
-0.069095
-0.094276
-0.109548
-0.0897738
-0.0649321
-0.0701131
-0.0202263
0.0847059
0.204615
0.319548
0.489525
0.599434
0.634276
0.604095
0.563937
0.569005
0.644299
0.824615
0.914729
0.81491
0.480249
0.145452
0.0206109
-0.00925341
-0.0891403
-0.249072
-0.333982
-0.338937
-0.343914
-0.333937
-0.289095
-0.244344
-0.224706
-0.215068
-0.195339
-0.170317
-0.180317
-0.195566
-0.186109
-0.181742
-0.182149
-0.172692
-0.123371
-0.114253
-0.170294
-0.211312
-0.202172
-0.18276
-0.178258
-0.158801
-0.134412
-0.125
-0.170452
-0.245792
-0.276018
-0.256086
-0.210882
-0.185475
-0.139842
-0.114072
-0.118303
-0.137624
-0.126968
-0.0763122
-0.0606335
-0.0499095
-0.029095
0.02681
0.0327376
0.018552
-0.00585973
-0.0156335
0.0140272
0.0628054
0.11586
0.123371
0.135633
0.147873
0.170339
0.17276
0.15448
0.175226
0.190181
0.205792
0.213439
0.228439
0.24957
0.231041
0.217624
0.199502
0.181674
0.179095
0.206991
0.215249
0.188643
0.141674
0.129389
0.151923
0.144208
0.116357
0.0835973
0.080724
0.0575566
0.0392081
0.0507466
0.0620588
0.0431222
0.0138688
0.0195475
0.000475116
-0.00821267
-0.0167647
-0.0105204
-0.0145701
-0.028733
-0.0377376
-0.0617421
-0.0605204
-0.0538914
-0.0616742
-0.0688914
-0.0704525
-0.0615385
-0.0624208
-0.0534389
-0.0746606
-0.11095
-0.126855
-0.086991
-0.0667873
-0.0920136
-0.0887557
-0.0921041
-0.0712444
-0.0606109
-0.0653394
-0.070724
-0.0615159
-0.0472851
-0.0480769
-0.0240272
-2.26423e-05
0.0142534
0.0137783
-0.0167647
-0.0623303
-0.0627602
-0.0131674
0.056267
0.080724
0.0553168
0.0550905
0.09
0.140136
0.175339
0.150272
0.125181
0.095181
0.0854073
0.0807014
0.0861312
0.0967421
0.0723982
0.0479412
0.00319005
-0.0416063
-0.101176
-0.145498
-0.164706
-0.188688
-0.192511
-0.176403
-0.160249
-0.143959
-0.142443
-0.155882
-0.169253
-0.187466
-0.200452
-0.178348
-0.111244
-0.0142081
0.102919
0.285226
0.467783
0.605453
0.663122
0.685747
0.678507
0.726584
0.884729
1.08776
1.25093
1.0943
0.672692
0.221018
0.0144118
-0.0320362
-0.0734615
-0.13491
-0.146403
-0.158054
-0.239661
-0.341131
-0.342602
-0.269344
-0.22638
-0.228235
-0.199751
-0.176312
-0.208326
-0.205656
-0.187986
-0.185543
-0.218167
-0.20043
-0.13733
-0.0595476
-0.0270589
-0.0695476
-0.127081
-0.179683
-0.157466
-0.105362
-0.0583032
-0.0661086
-0.068801
-0.0665611
-0.0493439
-0.057172
-0.0652489
-0.0385521
-0.0319684
-0.0403394
-0.0388688
-0.0327149
-0.0119457
-0.0213349
-0.0102942
0.00619909
0.00262442
0.00350681
0.0242308
0.075
0.0956335
0.0958598
0.0807692
0.0858598
0.0760407
0.0760181
0.120747
0.175656
0.160634
0.125475
0.15043
0.175498
0.17052
0.155543
0.175747
0.181471
0.157534
0.118937
0.10052
0.102398
0.0997512
0.107285
0.0745475
0.0664932
0.0383032
0.0300905
0.0221041
0.00938916
0.0117421
-0.00592759
-0.0137104
-0.0319683
-0.0610407
-0.0709502
-0.0715158
-0.0777375
-0.0897964
-0.0824887
-0.115498
-0.138597
-0.141787
-0.140452
-0.149955
-0.170317
-0.170588
-0.189412
-0.205679
-0.215113
-0.243801
-0.251855
-0.253529
-0.218824
-0.203416
-0.172919
-0.182489
-0.222262
-0.226878
-0.210882
-0.209027
-0.226403
-0.204525
-0.174819
-0.172353
-0.185724
-0.209073
-0.217511
-0.226109
-0.209774
-0.223778
-0.228303
-0.2231
-0.192851
-0.177489
-0.23224
-0.287104
-0.286878
-0.216335
-0.180882
-0.185317
-0.159729
-0.164389
-0.23448
-0.30457
-0.254389
-0.219004
-0.218642
-0.228461
-0.223235
-0.192919
-0.16267
-0.157489
-0.202398
-0.237421
-0.247398
-0.24233
-0.227262
-0.182376
-0.142534
-0.122624
-0.127828
-0.0983031
-0.0239366
0.0354073
0.0297965
-0.0859275
-0.151742
-0.122556
-0.0334162
0.000724077
-0.0150225
0.0345476
0.13414
0.198462
0.152466
0.141652
0.201154
0.255769
0.240566
0.250747
0.295996
0.270996
0.216154
0.181471
0.18172
0.191923
0.147534
0.0985521
-0.000475019
-0.0397058
-0.0689818
-0.123054
-0.127059
-0.0911086
-0.0453393
-0.0445927
-0.0489366
-0.103416
-0.157805
-0.161968
-0.181154
-0.180792
-0.12052
0.0148643
0.140204
0.240566
0.365928
0.526177
0.66129
0.746471
0.781652
0.816674
0.921561
1.09122
1.26575
1.22527
0.889887
0.344366
0.00375566
-0.0669684
-0.0928507
-0.218869
-0.345068
-0.366109
-0.332014
-0.29776
-0.26362
-0.254683
-0.235769
-0.227036
-0.238552
-0.235317
-0.182104
-0.143733
-0.170249
-0.226629
-0.253168
-0.285068
-0.287376
-0.229774
-0.202172
-0.249412
-0.266652
-0.22405
-0.161674
-0.144547
-0.142511
-0.195543
-0.213258
-0.240611
-0.232738
-0.179525
-0.12129
-0.108348
-0.110656
-0.0826018
-0.0492986
-0.0557919
-0.127149
-0.203462
-0.169729
-0.105769
-0.0416968
-0.0279864
-0.0445022
-0.0560407
-0.0423529
-0.0133711
-0.0142534
-0.00533935
0.0230317
0.0708371
0.103009
0.10957
0.115498
0.126244
0.151652
0.161674
0.161222
0.155158
0.143575
0.116629
0.125611
0.181765
0.235475
0.200679
0.121493
0.0976018
0.103869
0.0751584
0.0467873
0.0686652
0.0602941
0.0513801
0.0620815
0.0576697
-0.0118778
-0.0971041
-0.112692
-0.108462
-0.119095
-0.164638
-0.18552
-0.1719
-0.16871
-0.175566
-0.187172
-0.168167
-0.199004
-0.265498
-0.262534
-0.184864
-0.177059
-0.223959
-0.24543
-0.261222
-0.261086
-0.240158
-0.218823
-0.22224
-0.250407
-0.233552
-0.201606
-0.144208
-0.115995
-0.126878
-0.13776
-0.119932
-0.11457
-0.101154
-0.0983484
-0.0806561
-0.0483257
-0.0565158
-0.0797511
-0.0929863
-0.0862895
-0.0896832
-0.0981221
-0.0512216
-0.00418544
0.0226924
0.0393213
0.0259956
-0.0022171
-0.050475
-0.0436424
0.0231676
0.0997512
0.131154
0.112806
0.0696607
0.0714028
0.133235
0.195498
0.193213
0.155973
0.168846
0.166674
0.119593
0.0624661
0.0103847
-0.00117643
-0.00719454
-0.0230769
-0.054095
-0.0751357
-0.120973
-0.161697
-0.167398
-0.148348
-0.16914
-0.189638
-0.154796
-0.139842
-0.145045
-0.190385
-0.240633
-0.225475
-0.140226
-0.000135683
0.119932
0.290362
0.501086
0.701652
0.737036
0.697444
0.718235
0.854321
1.08034
1.23115
1.29695
1.14281
0.763778
0.265181
-0.108009
-0.25129
-0.254932
-0.233756
-0.252715
-0.316833
-0.325973
-0.294932
-0.228937
-0.178054
-0.152194
-0.111312
-0.00561079
0.0246833
-0.0351131
-0.104909
-0.154638
-0.134412
-0.0292307
0.10095
0.156109
0.101357
-0.0382805
-0.127828
-0.0375566
0.0771946
0.121968
0.0920815
0.0873529
0.127602
0.102805
-0.0021041
-0.0521493
0.0176923
0.0976018
0.12767
0.157715
0.172715
0.177692
0.167941
0.143281
0.103439
0.0536425
0.0539819
0.144366
0.209842
0.210339
0.165814
0.156176
0.146335
0.181357
0.23138
0.286652
0.307014
0.252262
0.232353
0.257376
0.317376
0.362534
0.377738
0.362828
0.287624
0.267376
0.287308
0.327579
0.333054
0.318529
0.299005
0.264661
0.215679
0.1819
0.193281
0.174819
0.136697
0.103824
0.0909276
0.0928281
0.0345475
-0.0237557
-0.0370815
-0.00556563
0.0308823
0.0222172
-0.00669686
-0.0809276
-0.100158
-0.0992761
-0.0987783
-0.108982
-0.119661
-0.100814
-0.0826697
-0.0903394
-0.153484
-0.176448
-0.134072
-0.101222
-0.13319
-0.164932
-0.120747
-0.0697964
-0.0567874
-0.10733
-0.152036
-0.126041
-0.0737783
-0.0654299
-0.0918552
-0.0943213
-0.123937
-0.155973
-0.169774
-0.169344
-0.153937
-0.118416
-0.113009
-0.138077
-0.158258
-0.158281
-0.142986
-0.127511
-0.136968
-0.166199
-0.159955
-0.153394
-0.147036
-0.171086
-0.205475
-0.21491
-0.198846
-0.187263
-0.210294
-0.243484
-0.242217
-0.231335
-0.180113
-0.178371
-0.171471
-0.194774
-0.233145
-0.241312
-0.229638
-0.198507
-0.152602
-0.146335
-0.184729
-0.2081
-0.181493
-0.144842
-0.148032
-0.141109
-0.114321
-0.137873
-0.151833
-0.156041
-0.159955
-0.158507
-0.132195
-0.0713349
-0.0306788
-0.0199775
-0.0290725
-0.072896
-0.0916517
-0.0705883
0.0151357
0.0807692
0.116471
0.102421
0.0836425
0.0849094
0.106267
0.127511
0.158642
0.164638
0.155701
0.141968
0.103303
0.0696832
0.0559049
0.0768325
0.0424886
-0.0268553
-0.0861313
-0.140611
-0.180249
-0.189955
-0.199615
-0.204548
-0.204842
-0.185204
-0.20043
-0.195407
-0.185407
-0.15543
-0.160724
-0.166267
-0.102082
0.0319004
0.170769
0.28957
0.438575
0.572692
0.626719
0.600407
0.60905
0.643032
0.722172
0.841154
0.844977
0.653823
0.232873
-0.127783
-0.293643
-0.314955
-0.371312
-0.462534
-0.448711
-0.37491
-0.281063
-0.247511
-0.234208
-0.21095
-0.212602
-0.219231
-0.215996
-0.177896
-0.164887
-0.171855
-0.178914
-0.171177
-0.163733
-0.176539
-0.17948
-0.222376
-0.24
-0.222579
-0.200385
-0.173529
-0.18181
-0.170113
-0.203439
-0.226855
-0.250407
-0.258891
-0.24724
-0.250317
-0.243235
-0.23095
-0.223643
-0.231425
-0.224072
-0.211629
-0.213778
-0.225362
-0.22181
-0.198665
-0.165928
-0.163122
-0.195181
-0.232217
-0.229231
-0.196131
-0.157964
-0.104796
-0.0817873
-0.0991403
-0.0719457
-0.0202941
0.0107918
-0.013914
-0.0290272
-0.0440271
-0.00857466
0.0472625
0.06319
0.0596606
0.0666742
0.0688462
0.0506788
0.0530091
0.0169231
-0.0326923
-0.0269004
0.0235973
0.0488236
0.00884618
-0.0214027
-0.0521493
-0.0532579
-0.0395475
-0.0158823
-0.00746603
-0.0445927
-0.0420135
-0.0445022
-0.0471267
-0.0605204
-0.0647737
-0.0491176
-0.0526244
-0.0553393
-0.0780995
-0.0861312
-0.114412
-0.13267
-0.101109
-0.0447511
-0.00314476
0.00909506
0.0122172
-0.0140271
-0.0196832
-0.00484159
0.0104751
0.000746638
