ekg
0
-0.00166667
0.00399998
-0.00214288
-0.00333335
0.000909075
0.00115384
0.00666666
0.00294119
0.00973687
0.00761902
0.0117391
0.0122
0.0190741
0.0275862
0.0322581
0.0380303
0.0447143
0.0567568
0.0588462
0.0604878
0.0616279
0.0621111
0.0620213
0.0513265
0.0502941
0.0388679
0.0321818
0.0153508
0.00847454
0.00131145
-0.0106349
-0.0226154
-0.0347015
-0.0418841
-0.0490845
-0.0562329
-0.0583334
-0.0653896
-0.0625317
-0.0594445
-0.056506
-0.0585883
-0.0507472
-0.0476967
-0.0447253
-0.036828
-0.0342105
-0.0265464
-0.0289394
-0.0214357
-0.018835
-0.016
-0.0129907
-0.00967892
-0.00653154
-0.00880532
-0.00630435
-0.00871795
-0.000924379
0.00185949
-0.00544718
-0.00788001
-0.0104331
-0.00310079
-0.00580155
-0.00360902
-0.00651853
0.00040146
-0.00273381
-0.00602837
-0.00940559
-0.008
-0.0120748
-0.0166779
-0.0207616
-0.0188562
-0.0161613
-0.0176433
-0.0225157
-0.0183851
-0.00656443
0.011
0.0177545
0.0231361
0.031462
0.0374566
0.0313429
0.0233898
0.0291061
0.0240608
0.0235519
0.0227568
0.0267914
0.030582
0.019267
0.0178238
0.0112564
0.0145178
0.0127387
0.00587065
-0.00105911
-0.00804878
-0.0200725
-0.0322249
-0.0394076
-0.0515962
-0.068814
-0.0760599
-0.0783562
-0.0706788
-0.0609276
-0.0561086
-0.0512444
-0.0513575
-0.0564706
-0.0665159
-0.0765159
-0.081448
-0.0813349
-0.0861312
-0.0858824
-0.0805656
-0.080181
-0.0797059
-0.0791403
-0.0735294
-0.0728507
-0.0721267
-0.0763575
-0.070543
-0.0697285
-0.068914
-0.0681222
-0.0623077
-0.0565611
-0.0558597
-0.0552036
-0.0545701
-0.0490045
-0.0435068
-0.0430769
-0.042715
-0.0374208
-0.0222172
-0.00710409
0.0129638
0.0379864
0.0429864
0.0179412
-0.0171267
-0.0621946
-0.0922625
-0.122353
-0.162421
-0.197443
-0.227443
-0.287421
-0.407398
-0.597353
-0.762308
-0.87724
-0.957172
-1.00208
-1.00195
-0.97181
-0.946697
-0.896606
-0.836493
-0.756425
-0.666312
-0.571177
-0.481086
-0.396018
-0.310996
-0.23095
-0.165905
-0.105837
-0.0607919
-0.030724
-0.000656125
0.0143891
0.039457
0.0495249
0.0595928
0.064638
0.0796606
0.0946606
0.099638
0.104638
0.114638
0.124615
0.12457
0.13457
0.144593
0.154638
0.164729
0.164842
0.169955
0.175045
0.185204
0.185385
0.195611
0.195882
0.206154
0.206425
0.211629
0.221833
0.231991
0.237172
0.232376
0.237579
0.242805
0.248009
0.248167
0.248303
0.263416
0.263462
0.268416
0.268371
0.278348
0.278371
0.268416
0.268484
0.263575
0.268665
0.263733
0.258756
0.253733
0.243688
0.233643
0.223552
0.213462
0.198394
0.183326
0.168258
0.158167
0.1431
0.133032
0.127941
0.112783
0.107602
0.102353
0.102036
0.0916289
0.0911991
0.0958597
0.0906561
0.0855882
0.0806108
0.0857466
0.0910633
0.0915611
0.0921946
0.0979864
0.109208
0.111199
0.11414
0.117873
0.122036
0.131312
0.135475
0.139344
0.142986
0.14638
0.139457
0.137104
0.139321
0.140905
0.141584
0.135973
0.134253
0.131674
0.123416
0.109683
0.105679
0.106584
0.102444
0.0934163
0.0945249
0.0859277
0.0776924
0.0748643
0.0723756
0.0752263
0.0734163
0.0669005
0.0606562
0.0596381
0.0587783
0.0530317
0.0524209
0.04181
0.041267
0.035724
0.0352263
0.0347512
0.0392987
0.0438915
0.033439
0.0230091
0.0226019
0.0272172
0.0217874
0.0113801
0.00101814
-0.00936647
-0.0147058
-0.0250678
-0.0304072
-0.0407466
-0.0510859
-0.0614253
-0.071742
-0.0670588
-0.0623755
-0.0576923
-0.0580316
-0.0533257
-0.0535972
-0.0588687
-0.0641628
-0.0744343
-0.0746606
-0.0748868
-0.0800904
-0.0802941
-0.0753619
-0.0704072
-0.0754072
-0.080362
-0.0802262
-0.075
-0.0747964
-0.0745023
-0.0741629
-0.073733
-0.0733032
-0.0728733
-0.0723982
-0.0719231
-0.066448
-0.0659955
-0.0655656
-0.065181
-0.0648869
-0.059638
-0.059457
-0.0593213
-0.0542534
-0.0442081
-0.0342534
-0.0193213
-0.00441176
0.0154751
0.0253167
0.0101584
-0.0199548
-0.0500905
-0.0702489
-0.0904299
-0.125588
-0.165679
-0.195769
-0.22586
-0.30595
-0.460973
-0.650995
-0.801018
-0.891018
-0.940996
-0.950928
-0.93086
-0.910769
-0.885701
-0.855588
-0.795498
-0.73043
-0.650362
-0.570294
-0.475181
-0.395091
-0.32
-0.24991
-0.189819
-0.129751
-0.0796833
-0.0445701
-0.0194344
0.0107014
0.0258371
0.0359955
0.0411539
0.0563349
0.0665385
0.0767647
0.0920136
0.0972625
0.107511
0.117738
0.122941
0.123122
0.138326
0.148507
0.158688
0.158869
0.15905
0.169231
0.174412
0.189638
0.189842
0.195045
0.200272
0.21052
0.215769
0.216018
0.231267
0.231493
0.236719
0.236878
0.241968
0.252014
0.251946
0.256833
0.256674
0.266584
0.266538
0.276516
0.276561
0.281629
0.286674
0.286674
0.286652
0.281584
0.286516
0.281425
0.281312
0.266222
0.261131
0.256063
0.245973
0.23586
0.215724
0.210588
0.190453
0.175317
0.160204
0.155068
0.149909
0.134774
0.124638
0.114502
0.109367
0.104208
0.0990272
0.103801
0.0985068
0.103122
0.0976471
0.102217
0.1019
0.106787
0.106878
0.107172
0.11267
0.113371
0.114253
0.110226
0.111267
0.112579
0.114525
0.117149
0.110204
0.113462
0.116878
0.125249
0.123258
0.12543
0.126584
0.121833
0.116403
0.110407
0.108937
0.102195
0.105113
0.0927828
0.085181
0.0825113
0.0798417
0.077353
0.0650453
0.0630091
0.0612217
0.0596833
0.0533937
0.0473077
0.0464706
0.0408145
0.0352941
0.0298417
0.0344797
0.0241177
0.0187557
0.0133937
0.00805432
0.00773758
0.00244347
-0.0028054
-0.00809952
-0.00337103
0.00135749
0.001086
-0.00420814
-0.00947963
-0.00968324
-0.0148869
-0.0151131
-0.0153846
-0.0106335
-0.0158823
-0.021086
-0.0313122
-0.0365384
-0.0367421
-0.0419231
-0.0521041
-0.0623303
-0.0674887
-0.0726697
-0.0678507
-0.0580543
-0.0582579
-0.0433937
-0.043552
-0.0436652
-0.0538009
-0.0588688
-0.058914
-0.073914
-0.0738462
-0.068733
-0.0635294
-0.0633258
-0.0630769
-0.0628054
-0.0574208
-0.0570136
-0.0615611
-0.0561086
-0.0556561
-0.055181
-0.0547059
-0.0492534
-0.0438688
-0.0435068
-0.0431901
-0.0479638
-0.0427828
-0.0376244
-0.0425113
-0.0424887
-0.0425113
-0.0375339
-0.0326018
-0.0277149
-0.0178507
-0.00294118
0.0219457
0.0418326
0.0316968
0.0115837
-0.0234842
-0.058552
-0.0885973
-0.11862
-0.143575
-0.173529
-0.208507
-0.253462
-0.343394
-0.503281
-0.673167
-0.803032
-0.887941
-0.952806
-0.972624
-0.972398
-0.942172
-0.906923
-0.856652
-0.79638
-0.721109
-0.625814
-0.54552
-0.450204
-0.369864
-0.279548
-0.204253
-0.138982
-0.098733
-0.0584615
-0.02319
0.00208145
0.0223756
0.0376697
0.0529638
0.0582127
0.0684389
0.0736426
0.0838462
0.0940272
0.109231
0.119389
0.124525
0.134615
0.139683
0.144774
0.149887
0.164977
0.170045
0.180136
0.185294
0.190498
0.200724
0.195928
0.206109
0.211267
0.221403
0.226493
0.231584
0.236674
0.241765
0.246833
0.246923
0.252036
0.257104
0.267104
0.267059
0.271991
0.2769
0.28181
0.286742
0.281674
0.286697
0.281719
0.286719
0.281674
0.276606
0.276516
0.261335
0.256154
0.241018
0.240882
0.230747
0.220588
0.20043
0.190271
0.180113
0.164932
0.159751
0.149548
0.139253
0.133824
0.128348
0.127941
0.11767
0.122579
0.117647
0.117851
0.123258
0.128824
0.12957
0.120566
0.127127
0.134548
0.137805
0.136719
0.140973
0.150407
0.15491
0.159186
0.153213
0.161833
0.160068
0.15776
0.14991
0.151516
0.157602
0.148167
0.143167
0.132421
0.130634
0.122896
0.119434
0.105475
0.0911086
0.0815837
0.0719909
0.0624661
0.0530543
0.0438688
0.0349321
0.0212896
0.0180543
0.00513573
0.00264704
-0.00457015
-0.00640273
-0.00294118
0.000814509
-0.00529408
-0.0162896
-0.0171493
-0.0229411
-0.0236651
-0.0293665
-0.0250226
-0.0206787
-0.0213122
-0.0269457
-0.0275566
-0.0280996
-0.0285973
-0.0290498
-0.0245023
-0.0249321
-0.0304073
-0.040905
-0.0413801
-0.04181
-0.0422398
-0.0526697
-0.0630543
-0.0734389
-0.0737783
-0.0691403
-0.0694344
-0.0646607
-0.0548417
-0.0499774
-0.0550905
-0.0601131
-0.0650905
-0.075
-0.0798643
-0.0746607
-0.0693439
-0.0689367
-0.0684616
-0.0679186
-0.0622851
-0.0565837
-0.0558145
-0.0600227
-0.0591855
-0.0533484
-0.0525113
-0.0516516
-0.0457919
-0.0399095
-0.039095
-0.0432805
-0.0375339
-0.0368326
-0.0311765
-0.0305882
-0.0250905
-0.0246833
-0.0243213
-0.0190271
-0.0137556
0.00644797
0.0365837
0.0516968
0.0417873
0.0118778
-0.0280769
-0.0679864
-0.0929186
-0.132873
-0.172783
-0.21267
-0.267511
-0.387421
-0.572285
-0.752127
-0.886968
-0.946787
-0.961606
-0.956358
-0.916109
-0.880837
-0.825611
-0.775362
-0.685091
-0.594819
-0.499548
-0.414253
-0.333914
-0.25362
-0.178326
-0.108054
-0.0677828
-0.0375113
-0.0122625
0.0129185
0.0280995
0.0432805
0.0584389
0.0685973
0.0687556
0.0738914
0.0839819
0.0890271
0.0991403
0.0992534
0.119367
0.12448
0.134638
0.134887
0.145181
0.160475
0.165724
0.17595
0.181109
0.191222
0.196312
0.201471
0.206674
0.211923
0.217195
0.212466
0.217738
0.218009
0.223281
0.228575
0.243846
0.254095
0.254299
0.259548
0.264774
0.275
0.270158
0.275271
0.275339
0.275385
0.270452
0.26052
0.260633
0.255769
0.255928
0.241063
0.236176
0.226244
0.216244
0.206222
0.186154
0.176018
0.160792
0.150543
0.135362
0.125294
0.115407
0.105656
0.100995
0.0964932
0.102149
0.0929638
0.088914
0.0853394
0.0875113
0.0854977
0.0891403
0.103145
0.107466
0.11681
0.121154
0.135385
0.139434
0.143258
0.146742
0.154909
0.162692
0.165226
0.167421
0.169163
0.170407
0.166131
0.166471
0.171493
0.166176
0.16552
0.154615
0.158394
0.151538
0.148801
0.145204
0.130973
0.126425
0.111742
0.107059
0.097534
0.0931448
0.0889593
0.0749548
0.0663123
0.0530543
0.045181
0.0376471
0.0354525
0.0285973
0.0220589
0.0207919
0.0146607
0.0186652
0.0227602
0.0119684
0.00619913
0.00547515
-0.000203582
-0.00588231
-0.00656105
-0.00223978
-0.00287327
-0.0185294
-0.0291629
-0.029819
-0.0354072
-0.0459728
-0.0615384
-0.067104
-0.0726244
-0.0730543
-0.0685067
-0.0588914
-0.0492534
-0.0495475
-0.0597737
-0.0649547
-0.0750452
-0.0850905
-0.0850452
-0.0849774
-0.0848416
-0.0845927
-0.084276
-0.0788688
-0.0783258
-0.0776697
-0.0869683
-0.0811991
-0.0803393
-0.0744117
-0.0734615
-0.0724887
-0.0664932
-0.0654525
-0.0644118
-0.0684163
-0.0624434
-0.0614706
-0.0604977
-0.0595928
-0.053733
-0.0479186
-0.0471493
-0.031448
-0.0108371
0.00970587
0.015181
0.000610855
-0.0190498
-0.0538009
-0.0835973
-0.108439
-0.143303
-0.173213
-0.208122
-0.238054
-0.338009
-0.497986
-0.677964
-0.827941
-0.902919
-0.972873
-0.972828
-0.972738
-0.942625
-0.902489
-0.85233
-0.772172
-0.696968
-0.591742
-0.506516
-0.41629
-0.326063
-0.245814
-0.170588
-0.125385
-0.080181
-0.0449548
-0.00975113
0.00542987
0.0205882
0.0408145
0.0510407
0.061267
0.0664932
0.0766968
0.0919005
0.0970362
0.102172
0.107353
0.117557
0.127783
0.137964
0.143122
0.153258
0.163394
0.168575
0.173778
0.179005
0.189231
0.19948
0.199751
0.20509
0.20552
0.215905
0.221244
0.226561
0.236833
0.237081
0.242308
0.242579
0.252919
0.258235
0.263529
0.268824
0.269118
0.279367
0.279525
0.279638
0.274751
0.284887
0.280045
0.280226
0.275452
0.265679
0.26086
0.245995
0.241086
0.226131
0.216199
0.206267
0.181312
0.171357
0.156403
0.141471
0.126538
0.116584
0.106584
0.0916063
0.086629
0.0766516
0.076629
0.0715385
0.0613801
0.0561312
0.0558145
0.0605204
0.055362
0.0553846
0.0555656
0.0608597
0.0612896
0.0619005
0.0676697
0.0685973
0.074819
0.0765385
0.0789367
0.0871267
0.100747
0.104661
0.10871
0.112828
0.121833
0.130566
0.129005
0.132059
0.134457
0.135792
0.13095
0.130045
0.133371
0.131018
0.123235
0.115136
0.116878
0.108529
0.105181
0.0920588
0.0891403
0.0915837
0.0892986
0.0873529
0.0807692
0.0845023
0.0835294
0.0827149
0.0820588
0.0815385
0.0861312
0.0807692
0.0704299
0.0651584
0.0649095
0.0646833
0.0594344
0.0591855
0.0639819
0.0638009
0.0485973
0.0433937
0.03819
0.0380317
0.0378733
0.0327149
0.0275792
0.0124661
0.00737556
-0.00273757
-0.00785069
-0.0129412
-0.0229864
-0.0330543
-0.0481448
-0.0482579
-0.0433484
-0.0384163
-0.0334842
-0.0335068
-0.028552
-0.033552
-0.0485746
-0.0585746
-0.0635294
-0.0634615
-0.0683484
-0.0682579
-0.0630995
-0.0578959
-0.0626923
-0.0674435
-0.0671493
-0.06181
-0.0614253
-0.0610181
-0.0606109
-0.0552036
-0.0547964
-0.0543439
-0.058914
-0.0585068
-0.0530769
-0.0527376
-0.0523982
-0.0521493
-0.0519683
-0.0468326
-0.0467195
-0.046629
-0.046629
-0.0416516
-0.0317195
-0.0167873
0.00309955
0.0229412
0.0377828
0.0276471
0.00255656
-0.0375792
-0.0727149
-0.0978507
-0.122964
-0.158077
-0.193167
-0.213213
-0.258235
-0.348235
-0.493258
-0.683258
-0.798213
-0.8981
-0.957986
-0.997873
-1.00771
-0.977534
-0.947285
-0.892059
-0.84681
-0.771561
-0.691312
-0.606109
-0.510882
-0.430588
-0.335272
-0.264977
-0.199706
-0.139389
-0.0890724
-0.0587783
-0.0285068
-0.00323529
0.0220815
0.0374208
0.0477602
0.0580769
0.0684163
0.0787783
0.0891855
0.094638
0.105136
0.110679
0.121176
0.126606
0.131991
0.137376
0.147805
0.158235
0.163688
0.164186
0.174683
0.180091
0.190453
0.190814
0.201222
0.206674
0.212127
0.217534
0.217873
0.228235
0.233643
0.23905
0.239457
0.244774
0.255023
0.260181
0.265294
0.26543
0.270588
0.270815
0.276063
0.271357
0.276652
0.281878
0.277059
0.277195
0.272308
0.277398
0.272511
0.262647
0.262783
0.247873
0.247964
0.233077
0.22319
0.213303
0.203394
0.198484
0.183597
0.168688
0.158756
0.153824
0.138914
0.134005
0.124072
0.12914
0.129208
0.124276
0.119344
0.114389
0.119389
0.119367
0.119253
0.119095
0.123937
0.123937
0.119186
0.114661
0.110249
0.115837
0.116403
0.116968
0.117579
0.118281
0.11414
0.110452
0.107398
0.109887
0.117443
0.114683
0.111267
0.107285
0.107805
0.107851
0.0975566
0.0969231
0.0861538
0.0851357
0.0789593
0.0776244
0.0762217
0.0798416
0.0734615
0.0621946
0.0559955
0.0550453
0.054276
0.0486652
0.0431674
0.0478054
0.042534
0.042353
0.0372398
0.0322172
0.0322398
0.0322625
0.0322851
0.0273077
0.0173303
0.00737558
-0.00257918
-0.00753393
-0.00251131
0.00255656
0.00762443
0.00764707
-0.00235295
-0.00730769
-0.0122398
-0.0171719
-0.0171493
-0.0121267
-0.00708144
-0.0120362
-0.0220362
-0.0320136
-0.0369683
-0.0319231
-0.0319005
-0.0419004
-0.0618778
-0.0668326
-0.0718326
-0.0618099
-0.0568099
-0.0517421
-0.0416742
-0.0415837
-0.0415158
-0.051448
-0.0563575
-0.061267
-0.0661765
-0.0660634
-0.0658824
-0.060724
-0.0555656
-0.0553846
-0.0601358
-0.0598643
-0.0545928
-0.0492534
-0.053914
-0.0585068
-0.0531674
-0.0528507
-0.047534
-0.0472398
-0.0469231
-0.0416742
-0.0364253
-0.0411991
-0.0460181
-0.040905
-0.0357919
-0.0357014
-0.0355882
-0.0354751
-0.030362
-0.0252715
-0.015181
-0.0100905
0.015
0.0351131
0.0502489
0.0354072
0.000565603
-0.0342987
-0.0691629
-0.0940498
-0.128914
-0.163778
-0.19862
-0.243462
-0.313303
-0.448122
-0.607941
-0.77276
-0.877579
-0.952376
-0.997172
-0.986968
-0.976765
-0.931539
-0.89629
-0.831063
-0.770815
-0.685588
-0.595362
-0.515113
-0.424842
-0.34957
-0.264253
-0.193937
-0.128643
-0.0883484
-0.0580769
-0.0278054
0.00748869
0.0277828
0.0381222
0.0484615
0.0588235
0.0641403
0.0693891
0.0796154
0.0898416
0.10009
0.110317
0.11552
0.120679
0.130769
0.14086
0.140973
0.146154
0.161403
0.171652
0.171855
0.177059
0.182285
0.192534
0.202783
0.203032
0.213281
0.223484
0.228597
0.228643
0.233665
0.243778
0.248937
0.25405
0.254072
0.269072
0.26405
0.274027
0.26905
0.274118
0.274231
0.279344
0.284412
0.279434
0.284434
0.279412
0.279344
0.269299
0.269253
0.269208
0.259163
0.249118
0.239072
0.229005
0.213937
0.198869
0.183801
0.18371
0.17862
0.168507
0.163394
0.153213
0.152919
0.137557
0.132195
0.1369
0.136765
0.131855
0.127104
0.127489
0.128032
0.123733
0.124638
0.120882
0.12776
0.130543
0.12914
0.128348
0.132896
0.137511
0.141923
0.141041
0.144842
0.148281
0.15129
0.148733
0.150588
0.15181
0.142308
0.136765
0.130136
0.127421
0.123959
0.114977
0.105611
0.0961312
0.0865837
0.0772172
0.0679412
0.0589366
0.0501358
0.0466968
0.0336199
0.0258597
0.0234389
0.0163349
0.00959276
0.00312217
-0.00309955
0.000837103
-0.00011313
-0.0109729
-0.0167195
-0.0223756
-0.0280091
-0.0336425
-0.0292534
-0.0198643
-0.0154751
-0.0160634
-0.0216516
-0.0221946
-0.0277149
-0.0282353
-0.0237783
-0.0292986
-0.0297738
-0.0402715
-0.0507692
-0.051267
-0.0516968
-0.0571493
-0.0676018
-0.0780317
-0.0784163
-0.0737557
-0.069095
-0.0643665
-0.0545701
-0.0497285
-0.0498643
-0.0649774
-0.0749774
-0.0749095
-0.0747511
-0.0745475
-0.0742082
-0.0638235
-0.0683484
-0.0728281
-0.0722398
-0.0715837
-0.0608824
-0.0601131
-0.0593213
-0.0584389
-0.0525566
-0.0566742
-0.0558145
-0.0499548
-0.044095
-0.0432806
-0.0475113
-0.0417874
-0.0361086
-0.0304978
-0.0349774
-0.0345249
-0.029095
-0.0237104
-0.0183937
-0.0031222
0.0221267
0.0423529
0.0475113
0.0276244
-0.0122398
-0.0571041
-0.0869684
-0.116855
-0.151719
-0.186561
-0.226425
-0.296267
-0.426131
-0.62095
-0.775769
-0.890611
-0.95043
-0.980249
-0.970045
-0.939842
-0.904638
-0.849434
-0.789208
-0.698959
-0.60371
-0.508439
-0.418145
-0.322873
-0.242624
-0.167376
-0.107127
-0.0668779
-0.0266064
0.00868776
0.0340045
0.0392986
0.0545701
0.0597963
0.075
0.080181
0.0903846
0.100566
0.115747
0.120905
0.126018
0.136131
0.146244
0.15138
0.156561
0.166787
0.176991
0.177172
0.182398
0.192647
0.197873
0.2031
0.208326
0.213552
0.223778
0.223959
0.229185
0.234434
0.244728
0.250068
0.250385
0.255701
0.260973
0.276176
0.27138
0.276606
0.28181
0.281968
0.282059
0.282149
0.282262
0.277398
0.272534
0.267715
0.262919
0.263122
0.248235
0.238281
0.223348
0.213416
0.198484
0.183529
0.17362
0.158688
0.148688
0.133643
0.128507
0.118326
0.108054
0.0927828
0.0876244
0.0876923
0.0829185
0.0832805
0.0838461
0.0846154
0.0855656
0.0866742
0.0880995
0.0901584
0.0980543
0.101629
0.110656
0.120068
0.129593
0.13905
0.138439
0.14776
0.151991
0.160905
0.164367
0.167195
0.164434
0.166131
0.162285
0.157873
0.157964
0.152624
0.151742
0.145158
0.142579
0.139186
0.125136
0.120769
0.111244
0.106719
0.0972851
0.0929638
0.0838687
0.0750226
0.0665611
0.0584615
0.0507692
0.0434615
0.0415611
0.0349548
0.0336425
0.0325792
0.0216968
0.0109728
0.000361994
-0.00015837
-0.000678733
0.00386878
0.00339367
0.00294118
-0.00246606
-0.0078733
-0.0132353
-0.00857465
-0.0038914
-0.00923076
-0.0145475
-0.0248416
-0.0301131
-0.0403846
-0.0456108
-0.0457918
-0.0610181
-0.0711991
-0.0713801
-0.0665385
-0.0566742
-0.0517873
-0.0518552
-0.0469005
-0.0569231
-0.0668778
-0.0767647
-0.0815611
-0.081267
-0.0809276
-0.0805204
-0.0750453
-0.0744797
-0.0788462
-0.0781222
-0.0773077
-0.0714706
-0.0705883
-0.069638
-0.0686652
-0.062715
-0.0617648
-0.0608145
-0.0598643
-0.0539141
-0.0480317
-0.052172
-0.0513575
-0.0506109
-0.0449322
-0.0442987
-0.0437104
-0.0332127
-0.0227828
-0.00244348
0.0178506
0.0381221
0.0383031
0.0134163
-0.0314933
-0.0713575
-0.101267
-0.141199
-0.181131
-0.221063
-0.260973
-0.325882
-0.460792
-0.640679
-0.795543
-0.895407
-0.975249
-0.995045
-0.974796
-0.944525
-0.904276
-0.863982
-0.788688
-0.708394
-0.608077
-0.522715
-0.432353
-0.341991
-0.251674
-0.17638
-0.121086
-0.0707919
-0.0454752
-0.0201584
0.00518095
0.0355429
0.0458823
0.0512217
0.0615611
0.0719004
0.0822171
0.0875339
0.0928506
0.0981674
0.113507
0.118823
0.124095
0.129366
0.144661
0.154955
0.160271
0.160611
0.165928
0.176222
0.181516
0.186855
0.187217
0.197624
0.207986
0.203326
0.213643
0.213937
0.224185
0.224502
0.234887
0.240271
0.245656
0.245995
0.251312
0.251606
0.251855
0.262081
0.25724
0.267376
0.267511
0.267647
0.267828
0.263054
0.268281
0.263507
0.253665
0.243801
0.233869
0.218937
0.208982
0.199005
0.18905
0.184118
0.164163
0.149186
0.134208
0.129208
0.119208
0.104186
0.0991177
0.0989819
0.0937783
0.0884842
0.0832127
0.0830996
0.0831674
0.078371
0.0736652
0.079095
0.0797285
0.0755204
0.0764706
0.0826697
0.089457
0.0970588
0.105475
0.104525
0.118937
0.123552
0.127964
0.122081
0.130882
0.139344
0.142443
0.145045
0.142217
0.143801
0.144751
0.139661
0.138416
0.136154
0.133122
0.124457
0.115475
0.111448
0.107421
0.0984163
0.0944797
0.0958145
0.0874661
0.0745475
0.0669684
0.0647512
0.0679186
0.066448
0.0652715
0.0592987
0.0535294
0.0478507
0.0422398
0.0366968
0.0312444
0.0308145
0.0254073
0.025
0.0245928
0.0242082
0.0188235
0.0134616
0.00307695
0.00273758
0.00739822
0.00203623
-0.00332578
-0.00864252
-0.0139366
-0.0192307
-0.0245475
-0.0298868
-0.0402036
-0.0504751
-0.0557466
-0.0610407
-0.0513348
-0.0465611
-0.0468326
-0.0470588
-0.0423077
-0.0525113
-0.0627149
-0.0678506
-0.0729638
-0.0730316
-0.0730543
-0.0780543
-0.0730316
-0.0679638
-0.0677828
-0.0725565
-0.0722624
-0.0669004
-0.0664932
-0.0710181
-0.0705203
-0.0649547
-0.0593439
-0.063733
-0.0581222
-0.0625339
-0.0569909
-0.0514932
-0.0560181
-0.0555882
-0.050181
-0.0498643
-0.0496154
-0.0444344
-0.0392986
-0.0342081
-0.0241855
-0.00918552
0.0107919
0.0307466
0.0257014
-0.0093665
-0.0444344
-0.0695022
-0.0945701
-0.124661
-0.169729
-0.199819
-0.234932
-0.290023
-0.410091
-0.580113
-0.740113
-0.860045
-0.92
-0.96491
-0.944819
-0.924706
-0.894593
-0.849457
-0.809321
-0.739163
-0.683982
-0.593824
-0.518665
-0.423484
-0.348303
-0.2781
-0.207896
-0.147692
-0.0974887
-0.0672851
-0.0370588
-0.00183257
0.0233937
0.0386652
0.0489593
0.0542534
0.0645249
0.0747964
0.0800905
0.0903846
0.100656
0.110928
0.116199
0.121448
0.131719
0.141968
0.152195
0.157376
0.157557
0.16776
0.178009
0.183281
0.188552
0.188824
0.199095
0.204367
0.209683
0.220023
0.225339
0.230633
0.235882
0.241063
0.246176
0.256267
0.261357
0.256425
0.261471
0.266516
0.276561
0.271674
0.276787
0.276878
0.281968
0.282104
0.282195
0.27724
0.27724
0.272217
0.262195
0.262172
0.257127
0.247081
0.232081
0.217059
0.212014
0.196991
0.186968
0.171946
0.161878
0.15181
0.136787
0.126765
0.11672
0.111674
0.106606
0.106539
0.101403
0.101131
0.100792
0.100453
0.100204
0.100113
0.105226
0.105543
0.105996
0.106652
0.112534
0.113643
0.110023
0.111742
0.113982
0.11681
0.115249
0.118914
0.122715
0.131425
0.13491
0.13319
0.135973
0.133077
0.134118
0.12414
0.12319
0.121538
0.119344
0.111833
0.0990498
0.0960407
0.0979638
0.0898643
0.0819231
0.0791177
0.0765837
0.069276
0.062353
0.0557014
0.0543213
0.0532127
0.0473303
0.0416289
0.0360181
0.0355204
0.0301357
0.0198416
0.0195701
0.0143213
0.00907239
0.00384616
-0.00138009
0.00334842
0.0081448
0.0079638
0.00280543
0.00262443
-0.00755657
-0.00771494
-0.00787332
-0.00298644
-0.00312218
-0.0132579
-0.0233937
-0.0284842
-0.0285747
-0.0336878
-0.0388009
-0.048914
-0.0590045
-0.059095
-0.0591629
-0.0592308
-0.054276
-0.0443213
-0.0343439
-0.0343439
-0.0393213
-0.0442534
-0.0491855
-0.0540498
-0.0588914
-0.0636425
-0.0583484
-0.0529864
-0.0525792
-0.0570815
-0.0565158
-0.0559276
-0.0503167
-0.049638
-0.048914
-0.04819
-0.0474434
-0.0416968
-0.0459728
-0.0402715
-0.0396154
-0.0439819
-0.0383936
-0.0378507
-0.0323755
-0.0319909
-0.0366742
-0.0314253
-0.0312217
-0.0260633
-0.0259276
-0.0208145
-0.000678711
0.0244344
0.0395249
0.0446154
0.0247285
-0.0101357
-0.05
-0.0898416
-0.114638
-0.149434
-0.184208
-0.213959
-0.253688
-0.333416
-0.483145
-0.647851
-0.807557
-0.88224
-0.941923
-0.966584
-0.946199
-0.935792
-0.880385
-0.849977
-0.78457
-0.71914
-0.62371
-0.528258
-0.452805
-0.36233
-0.281855
-0.201403
-0.140973
-0.0954751
-0.0599773
-0.034457
-0.00393663
0.0216064
0.032172
0.047715
0.058258
0.0688009
0.0793213
0.089819
0.100294
0.105769
0.116244
0.121719
0.132149
0.137579
0.142986
0.148394
0.158846
0.174276
0.169729
0.175204
0.180747
0.19129
0.196878
0.202466
0.213032
0.213552
0.22405
0.224548
0.234977
0.235362
0.240747
0.251177
0.251629
0.262081
0.262489
0.267828
0.27319
0.278552
0.278914
0.284276
0.284683
0.285136
0.290566
0.285973
0.281335
0.271697
0.272036
0.26233
0.247602
0.237941
0.228303
0.213643
0.198959
0.194253
0.184547
0.169842
0.155158
0.145498
0.140837
0.136109
0.13129
0.121335
0.116312
0.116267
0.111312
0.111584
0.112081
0.122738
0.128552
0.129502
0.130656
0.131946
0.133575
0.135792
0.133801
0.137738
0.147195
0.152081
0.152059
0.151923
0.156471
0.160611
0.154412
0.157715
0.155543
0.157783
0.154525
0.150701
0.151131
0.145498
0.143801
0.131131
0.127896
0.119231
0.110294
0.101358
0.0923756
0.0885973
0.0799321
0.0714932
0.0583031
0.0504751
0.0480316
0.0409049
0.0341628
0.0277375
0.0316515
0.0208144
0.0151584
0.00461537
0.00416288
-0.00117651
-0.0114254
-0.0116742
-0.0169005
-0.0171041
-0.0122851
-0.0124208
-0.0125566
-0.0176471
-0.017715
-0.0227602
-0.0228055
-0.0228055
-0.0227828
-0.0277602
-0.0427376
-0.042715
-0.0426471
-0.0426018
-0.0575792
-0.062534
-0.0724435
-0.0823304
-0.0771946
-0.0670136
-0.0568326
-0.0566064
-0.0513801
-0.0511086
-0.0557919
-0.0654073
-0.0749322
-0.0794344
-0.0788462
-0.0731901
-0.0774661
-0.0766743
-0.0758372
-0.0699548
-0.0689594
-0.067896
-0.0617874
-0.0606336
-0.0544344
-0.0582127
-0.0570136
-0.0507919
-0.0495928
-0.058439
-0.057353
-0.0513123
-0.050362
-0.044457
-0.0435973
-0.0378281
-0.0421267
-0.0464706
-0.0458824
-0.0303394
-0.0048417
0.0206334
0.0410633
0.0464705
0.0218551
-0.0227602
-0.0723756
-0.101991
-0.136561
-0.171086
-0.210588
-0.240068
-0.309548
-0.439005
-0.608439
-0.792896
-0.882353
-0.961765
-0.976177
-0.970611
-0.935068
-0.884525
-0.848959
-0.763416
-0.692873
-0.597353
-0.516833
-0.431335
-0.345882
-0.260407
-0.189932
-0.134434
-0.083982
-0.0485295
-0.013077
0.00737549
0.0278506
0.0383031
0.043733
0.0591402
0.0695474
0.084932
0.0953167
0.100724
0.106131
0.116516
0.121878
0.127308
0.13276
0.143213
0.148642
0.154095
0.15957
0.170045
0.180543
0.186063
0.191584
0.192127
0.202624
0.203122
0.203575
0.209027
0.21448
0.214932
0.21543
0.22095
0.226493
0.236946
0.242398
0.242851
0.253303
0.253688
0.254027
0.254344
0.254593
0.254887
0.255226
0.255611
0.255995
0.25638
0.246765
0.237104
0.227421
0.222692
0.212918
0.198145
0.188371
0.178597
0.173801
0.164004
0.144231
0.129457
0.119638
0.114751
0.0997737
0.0897511
0.0847059
0.0797737
0.0750452
0.0704751
0.0759729
0.0765837
0.0823755
0.0783258
0.0844117
0.0957466
0.0975792
0.0952262
0.103597
0.112489
0.121833
0.126471
0.131312
0.136063
0.145747
0.145136
0.149163
0.15267
0.155724
0.153235
0.150158
0.146561
0.147421
0.142602
0.136855
0.135068
0.13224
0.123824
0.119909
0.115769
0.111538
0.107376
0.098371
0.0894796
0.0859729
0.0827376
0.0798643
0.0773077
0.0801131
0.0732579
0.0667194
0.0604524
0.0594344
0.0586199
0.0529185
0.0473303
0.0367873
0.0363122
0.0408597
0.0403846
0.0349547
0.0295475
0.0242081
0.0188913
0.013552
0.01319
0.0128506
0.00251126
-0.0128281
-0.0181675
-0.0234616
-0.0287331
-0.0390272
-0.0492987
-0.0545475
-0.0647738
-0.0650001
-0.0652263
-0.0554751
-0.0557014
-0.050905
-0.0511086
-0.0562896
-0.0564254
-0.0665159
-0.0716064
-0.0816742
-0.0767195
-0.0766969
-0.0765837
-0.076448
-0.0762218
-0.0709277
-0.0755657
-0.0701358
-0.0746833
-0.0741629
-0.0735747
-0.0729186
-0.0672172
-0.0664706
-0.0607014
-0.0649774
-0.0642534
-0.0585521
-0.0578734
-0.0522399
-0.0566516
-0.0511087
-0.0506109
-0.0501358
-0.0497512
-0.039457
-0.0192308
0.000950187
0.016086
0.0161538
-0.00882354
-0.0488462
-0.0838688
-0.108914
-0.133937
-0.168959
-0.203959
-0.228959
-0.283959
-0.388891
-0.573801
-0.73871
-0.853575
-0.938439
-0.978281
-0.998122
-0.957919
-0.937715
-0.897466
-0.86224
-0.796991
-0.726719
-0.641471
-0.546222
-0.470973
-0.380724
-0.300475
-0.225272
-0.165068
-0.119842
-0.0795927
-0.0493665
-0.0141176
0.0111313
0.0314027
0.0466742
0.0569231
0.057172
0.0674434
0.0827602
0.093077
0.0984389
0.108846
0.124253
0.134593
0.13491
0.140226
0.150566
0.160905
0.171244
0.176561
0.181878
0.192217
0.197534
0.202851
0.203213
0.208575
0.218937
0.229299
0.234706
0.240136
0.245566
0.25095
0.25129
0.251629
0.2619
0.262104
0.267195
0.272285
0.277353
0.282443
0.287579
0.29276
0.287986
0.288213
0.288439
0.283643
0.273846
0.274005
0.274118
0.274186
0.269253
0.254344
0.249412
0.23948
0.224548
0.209638
0.194706
0.189774
0.174819
0.159842
0.144887
0.13491
0.124932
0.109955
0.11
0.1
0.1
0.0950226
0.0900226
0.0900452
0.0899547
0.0947737
0.0895022
0.0891855
0.093914
0.0988461
0.104095
0.0996153
0.105317
0.111154
0.117013
0.112851
0.113642
0.114593
0.115882
0.117805
0.115294
0.123167
0.121109
0.118801
0.115814
0.111968
0.117511
0.117421
0.116991
0.106222
0.105317
0.0991176
0.0976922
0.0910859
0.0844117
0.0876923
0.0809955
0.074457
0.068009
0.0667647
0.070724
0.0648642
0.0591855
0.0536199
0.05319
0.0478281
0.0476245
0.0424888
0.0423982
0.0423077
0.0372172
0.0321041
0.021991
0.0219005
0.0118326
0.00676474
0.00171947
0.0116743
0.011629
0.0115611
0.00649327
0.00144798
-0.00357464
-0.00857463
-0.00857463
-0.00859722
-0.00359723
-0.00857463
-0.0235294
-0.0285068
-0.0335068
-0.0385067
-0.0484841
-0.0534388
-0.0634163
-0.068371
-0.0633258
-0.0682579
-0.05819
-0.0531221
-0.0380769
-0.043009
-0.0479185
-0.052828
-0.0627149
-0.0625565
-0.0723755
-0.0671945
-0.0670136
-0.0667873
-0.066561
-0.0663348
-0.0611086
-0.0608371
-0.0555203
-0.060181
-0.0548642
-0.0545701
-0.0542534
-0.0539593
-0.0536878
-0.0484388
-0.04819
-0.0429638
-0.0478054
-0.0426923
-0.037647
-0.037647
-0.0376696
-0.0326923
-0.0327602
-0.0328054
-0.0278506
-0.0279185
-0.00798637
0.0169232
0.0368779
0.0468101
0.0367422
0.00169691
-0.0483031
-0.0882578
-0.113235
-0.14319
-0.173077
-0.207896
-0.232715
-0.292579
-0.392443
-0.567285
-0.727081
-0.8369
-0.906697
-0.956471
-0.991267
-0.966086
-0.94595
-0.890747
-0.85552
-0.800249
-0.729977
-0.644706
-0.554434
-0.47914
-0.398869
-0.31862
-0.238326
-0.178032
-0.122737
-0.0774434
-0.0421493
-0.00680992
0.0134842
0.0337557
0.0440724
0.0594344
0.0597512
0.0700453
0.0802941
0.0955204
0.105747
0.110928
0.121109
0.131267
0.136448
0.141584
0.146652
0.161719
0.171855
0.176991
0.182127
0.187263
0.192421
0.197579
0.20276
0.212964
0.218235
0.218507
0.21871
0.223778
0.233801
0.243801
0.248756
0.248688
0.25862
0.258552
0.263462
0.258394
0.258303
0.268258
0.273213
0.273213
0.27319
0.278145
0.2781
0.272964
0.272828
0.267625
0.267444
0.25724
0.252036
0.241855
0.241652
0.231471
0.221244
0.211041
0.200837
0.200634
0.18543
0.175226
0.165023
0.154796
0.149593
0.139321
0.139005
0.133575
0.138054
0.137511
0.127059
0.126765
0.126629
0.121584
0.116629
0.116855
0.11724
0.122873
0.118914
0.120611
0.123213
0.126516
0.125158
0.123869
0.127489
0.13095
0.124072
0.116946
0.114434
0.126561
0.128077
0.123801
0.113348
0.111765
0.109321
0.0961991
0.0925565
0.0884615
0.0892534
0.0749321
0.065724
0.0515384
0.0375113
0.033733
0.0253167
0.0172624
0.0144796
0.0120136
0.0048869
-0.00192307
-0.00850677
-0.0148869
-0.016086
-0.0221719
-0.0181222
-0.0190498
-0.0349095
-0.0457466
-0.0415611
-0.0374208
-0.0332579
-0.029095
-0.0298869
-0.0256787
-0.0314705
-0.0372398
-0.043009
-0.0437782
-0.0345701
-0.0403619
-0.0460859
-0.0468099
-0.0475565
-0.0533031
-0.0640497
-0.0698189
-0.0805656
-0.0863121
-0.102014
-0.0977149
-0.0884162
-0.074095
-0.0697511
-0.0703393
-0.0659049
-0.0714027
-0.0768778
-0.0872624
-0.0876244
-0.0878733
-0.0880995
-0.0882805
-0.0833484
-0.0783484
-0.0782805
-0.0781674
-0.0829864
-0.0727375
-0.0724887
-0.0671945
-0.0669004
-0.0615837
-0.0612895
-0.0659954
-0.0607466
-0.0604977
-0.0502941
-0.0501357
-0.0550452
-0.0500226
-0.0499999
-0.0500678
-0.0502036
-0.0454072
-0.0456561
-0.0309275
-0.0162443
0.00341636
0.0280544
0.0377376
0.0173983
-0.018009
-0.0483936
-0.0687556
-0.0891402
-0.124547
-0.159955
-0.195339
-0.260724
-0.386109
-0.576448
-0.741787
-0.852127
-0.917489
-0.937896
-0.928303
-0.883688
-0.859095
-0.809502
-0.754909
-0.680249
-0.605588
-0.520928
-0.43129
-0.351651
-0.272013
-0.207421
-0.142805
-0.0931673
-0.0485067
-0.0188687
0.0107919
0.0304073
0.0449548
0.0494797
0.0590046
0.0735069
0.0830092
0.087534
0.0970589
0.106539
0.115996
0.12043
0.12991
0.134389
0.148914
0.153439
0.157964
0.167489
0.177059
0.181674
0.191312
0.19595
0.20552
0.210091
0.214638
0.224186
0.228733
0.238326
0.242986
0.242624
0.25224
0.261855
0.266448
0.271018
0.280543
0.280045
0.284502
0.283937
0.288303
0.28767
0.282081
0.281538
0.276018
0.280475
0.269955
0.264412
0.253869
0.24828
0.22767
0.217059
0.206425
0.190769
0.180113
0.164502
0.153846
0.143122
0.127285
0.121403
0.110452
0.104593
0.0989366
0.0934841
0.0882127
0.0880317
0.0879864
0.0880769
0.0883484
0.0938462
0.0997738
0.101493
0.108982
0.117059
0.12552
0.129208
0.133009
0.136742
0.14543
0.148937
0.147308
0.155339
0.162896
0.159842
0.156244
0.157149
0.157557
0.157466
0.151923
0.155996
0.14957
0.137443
0.134344
0.130407
0.125905
0.126041
0.121063
0.111063
0.101199
0.0863801
0.0767873
0.0674208
0.0633258
0.0545249
0.046086
0.0430317
0.0402942
0.037896
0.0307466
0.0238914
0.0222172
0.015724
0.00432128
0.00305432
0.0068326
0.0106561
0.00447966
0.00332582
0.00221722
-0.00389138
-0.00999996
-0.00608593
-0.00714928
-0.00816739
-0.0191855
-0.0251583
-0.0311312
-0.0320362
-0.0479638
-0.058914
-0.064819
-0.0706561
-0.0714706
-0.0672398
-0.0529638
-0.0486425
-0.0492986
-0.0548869
-0.0603846
-0.0708144
-0.0761764
-0.0764706
-0.0767194
-0.0768325
-0.0718778
-0.0718325
-0.0716968
-0.0714479
-0.0711538
-0.0708144
-0.0704298
-0.065
-0.0645475
-0.059095
-0.0586199
-0.0531448
-0.0526018
-0.052104
-0.0566516
-0.0562217
-0.0508144
-0.0504977
-0.0452488
-0.0400679
-0.0349547
-0.0399095
-0.0299321
-0.0150226
0.00484166
0.0246154
0.0393665
0.0240498
-0.0212896
-0.0616516
-0.102081
-0.127534
-0.152986
-0.183439
-0.213891
-0.264321
-0.364706
-0.53509
-0.705453
-0.835792
-0.921086
-0.966357
-0.991629
-0.9619
-0.937195
-0.877443
-0.822692
-0.737964
-0.653213
-0.553439
-0.463688
-0.373937
-0.284208
-0.20948
-0.144728
-0.0950226
-0.0502941
-0.0205656
0.00414031
0.0238688
0.0385973
0.0533484
0.0581222
0.072896
0.0876471
0.102376
0.102081
0.106787
0.121493
0.131199
0.135905
0.140611
0.150339
0.155113
0.164932
0.164751
0.17457
0.179389
0.189231
0.189072
0.198982
0.203937
0.208891
0.213801
0.21871
0.228575
0.233394
0.23819
0.243054
0.242986
0.247964
0.247896
0.252828
0.25276
0.262715
0.272557
0.27233
0.267127
0.2669
0.266652
0.261425
0.261244
0.261109
0.25095
0.240747
0.23052
0.225249
0.214955
0.204638
0.184321
0.179005
0.16371
0.148394
0.1331
0.122828
0.117534
0.10724
0.1019
0.0965611
0.0911313
0.0856109
0.08
0.0693892
0.0688914
0.0735747
0.0684163
0.0683711
0.0685068
0.0737783
0.0792308
0.079819
0.0856109
0.0867647
0.0936199
0.0963575
0.104796
0.108801
0.118122
0.122466
0.126606
0.140385
0.143869
0.146946
0.149683
0.151946
0.148756
0.144955
0.150294
0.144502
0.142602
0.134796
0.131267
0.127262
0.122919
0.123575
0.114231
0.110045
0.106018
0.10233
0.0989819
0.0960181
0.0884163
0.0911991
0.0893665
0.0828054
0.0864932
0.0853846
0.0794796
0.0736878
0.0679638
0.0672624
0.0615837
0.0609729
0.0603394
0.0597511
0.0591855
0.0536652
0.0481222
0.0425566
0.0420362
0.0365159
0.0310181
0.0254978
0.0150226
0.00452491
-0.000904962
-0.00635745
-0.00680994
-0.0172624
-0.0276923
-0.0431222
-0.048552
-0.0439593
-0.0393891
-0.0397964
-0.030181
-0.025543
-0.0258823
-0.0362443
-0.0515611
-0.0618778
-0.0621946
-0.0675113
-0.0727602
-0.0779638
-0.0680996
-0.0631674
-0.0732353
-0.0732353
-0.0682127
-0.0681674
-0.0630996
-0.0679864
-0.0628055
-0.0576471
-0.0574887
-0.0573303
-0.0571267
-0.0519231
-0.0517421
-0.0516516
-0.0515837
-0.0465611
-0.051629
-0.0567421
-0.0519457
-0.0521493
-0.0423982
-0.0376697
-0.0179638
0.00669685
0.0263575
0.0309729
0.005543
-0.0348869
-0.0752941
-0.100701
-0.136131
-0.166584
-0.201991
-0.22733
-0.26767
-0.352964
-0.498258
-0.678484
-0.81371
-0.918959
-0.974208
-0.994412
-0.994593
-0.954774
-0.92991
-0.865023
-0.815136
-0.740204
-0.670294
-0.585407
-0.49552
-0.415588
-0.340679
-0.270769
-0.195882
-0.135995
-0.086086
-0.0561991
-0.0312896
-0.00640269
0.0134842
0.0233937
0.0332806
0.0481901
0.0581448
0.0630996
0.068077
0.0830543
0.0929864
0.0979186
0.0978507
0.10276
0.112692
0.127647
0.137647
0.137602
0.147534
0.152466
0.162421
0.167398
0.172376
0.182353
0.187353
0.197376
0.197398
0.207443
0.207511
0.217557
0.212534
0.217466
0.227353
0.232217
0.237014
0.236765
0.246471
0.246199
0.255973
0.255792
0.255588
0.260453
0.260339
0.270204
0.265023
0.264774
0.26948
0.269186
0.258869
0.248507
0.243122
0.237783
0.237443
0.217036
0.211629
0.206244
0.195837
0.185453
0.170045
0.164661
0.154299
0.143937
0.128552
0.118122
0.11276
0.112376
0.111991
0.106561
0.111109
0.105566
0.11491
0.109208
0.108507
0.107986
0.107624
0.112511
0.107602
0.112919
0.113394
0.113869
0.114276
0.109593
0.115181
0.12129
0.118054
0.110294
0.112805
0.110475
0.112828
0.10448
0.105272
0.115339
0.114819
0.108801
0.102443
0.100724
0.0988462
0.0916742
0.0894118
0.0770136
0.0795928
0.0772172
0.0699548
0.0628507
0.0609276
0.0591855
0.0576471
0.0563348
0.050181
0.0542308
0.0533711
0.0525792
0.0518552
0.0461765
0.0504978
0.0447964
0.0341403
0.0284842
0.0278281
0.027172
0.0315385
0.035905
0.0352489
0.0345928
0.0239141
0.0132579
0.00262445
0.00703622
0.0114027
0.0107919
0.00515838
-0.000497743
-0.0061086
-0.0117421
-0.0223529
-0.0279864
-0.0335746
-0.0441855
-0.0547964
-0.0604072
-0.0559955
-0.0516063
-0.0472398
-0.042828
-0.0384389
-0.0390271
-0.0446154
-0.055181
-0.0607692
-0.0663122
-0.0618099
-0.0673303
-0.0677828
-0.0632579
-0.0636425
-0.0640045
-0.0643665
-0.0646606
-0.0649321
-0.060181
-0.0604525
-0.0606787
-0.0558823
-0.0510407
-0.0512443
-0.0514706
-0.0466742
-0.0469005
-0.0471267
-0.0474208
-0.0477149
-0.0480543
-0.0434163
-0.0338235
-0.044276
-0.0397511
-0.0402262
-0.0306787
-0.0211765
-0.00665157
0.0128733
0.0274661
0.0270362
-0.00339365
-0.0338009
-0.0692081
-0.0895928
-0.12
-0.150362
-0.175701
-0.201041
-0.22138
-0.306742
-0.457059
-0.632353
-0.772647
-0.857964
-0.933303
-0.948643
-0.939005
-0.929367
-0.904729
-0.880023
-0.825317
-0.770634
-0.69095
-0.616267
-0.526538
-0.441833
-0.362104
-0.282398
-0.222647
-0.162896
-0.108167
-0.0684163
-0.0336425
-0.00884616
0.0159502
0.0407692
0.0455656
0.0553846
0.0652036
0.0750453
0.0849321
0.0948416
0.109774
0.114661
0.124525
0.129344
0.13414
0.143914
0.15371
0.163575
0.163462
0.173348
0.178167
0.187919
0.187647
0.197398
0.202195
0.212036
0.226878
0.221697
0.231538
0.236403
0.246244
0.246063
0.250837
0.26052
0.260136
0.264706
0.264276
0.273891
0.273575
0.283303
0.283077
0.282851
0.287602
0.292285
0.291946
0.281561
0.286199
0.275814
0.28043
0.270045
0.259638
0.259253
0.248891
0.243507
0.2281
0.222715
0.20733
0.196923
0.186538
0.176176
0.175814
0.16543
0.160045
0.149661
0.149276
0.143891
0.143462
0.138032
0.132557
0.132059
0.131403
0.130701
0.125045
0.12957
0.129344
0.124344
0.119548
0.119977
0.120543
0.116109
0.116674
0.117443
0.118733
0.115724
0.113235
0.116018
0.119005
0.121991
0.119615
0.121425
0.117285
0.112285
0.116606
0.110271
0.113439
0.101267
0.0987104
0.0909276
0.0878959
0.0847737
0.0766289
0.0736199
0.0608145
0.0582805
0.0509955
0.0439819
0.0372624
0.0357918
0.0345248
0.0234615
0.0175565
0.0117647
0.0110633
0.00542982
0.00486421
0.0042986
0.00373299
-0.00180999
-0.0123304
-0.0228055
-0.0232806
-0.0187557
-0.0242308
-0.0196607
-0.0150905
-0.0105656
-0.0110181
-0.021448
-0.0268552
-0.0273077
-0.0227376
-0.0181675
-0.0235747
-0.0240046
-0.0294344
-0.039819
-0.0452037
-0.0455204
-0.055905
-0.0662444
-0.0715385
-0.0718326
-0.0671041
-0.0573756
-0.0525792
-0.0478055
-0.0429865
-0.0481674
-0.0582579
-0.0633258
-0.0683258
-0.0682579
-0.0681674
-0.0629864
-0.0627376
-0.0574434
-0.0571267
-0.0567421
-0.0563348
-0.0508823
-0.0454072
-0.0499547
-0.0544796
-0.0490272
-0.0435747
-0.0431901
-0.0428281
-0.0375339
-0.0372851
-0.0370815
-0.0369457
-0.03181
-0.0267195
-0.0266516
-0.0266516
-0.0266742
-0.0166969
-0.0167421
-0.00178733
0.0131222
0.0380317
0.0529638
0.0428959
0.0128054
-0.0322625
-0.0672851
-0.092353
-0.127421
-0.157489
-0.187534
-0.217602
-0.297692
-0.432738
-0.617783
-0.762806
-0.847873
-0.917896
-0.937896
-0.942851
-0.912828
-0.877783
-0.827738
-0.762715
-0.692647
-0.597602
-0.512489
-0.417398
-0.34233
-0.26224
-0.187127
-0.126991
-0.0768778
-0.0467421
-0.016629
0.0134842
0.0335973
0.0486652
0.0537104
0.0687557
0.0788009
0.0837783
0.0937783
0.0987783
0.108756
0.118688
0.12362
0.13362
0.138643
0.143643
0.143597
0.153552
0.168575
0.173643
0.173688
0.178756
0.193846
0.198914
0.203959
0.208937
0.218914
0.223914
0.228959
0.23405
0.23914
0.249231
0.244276
0.254276
0.254253
0.264231
0.26414
0.259005
0.268846
0.263665
0.268529
0.263416
0.268348
0.263281
0.263235
0.253167
0.248032
0.242873
0.22767
0.222466
0.207262
0.197081
0.186878
0.171652
0.161471
0.14629
0.141063
0.125747
0.120362
0.114864
0.109321
0.103869
0.10362
0.103552
0.10362
0.103801
0.10414
0.109615
0.110249
0.111109
0.112511
0.119729
0.127715
0.12629
0.135181
0.134253
0.143326
0.14733
0.146267
0.150023
0.153507
0.156448
0.148801
0.155588
0.1519
0.15267
0.147896
0.14767
0.152036
0.140837
0.138891
0.125973
0.127308
0.113167
0.103643
0.0890045
0.0842986
0.0746832
0.0651583
0.0608144
0.0517194
0.0479185
0.0345022
0.0264479
0.0288009
0.0164253
0.00938912
0.00264703
0.00117644
-0.00511315
-0.0113123
-0.0123982
-0.0183711
-0.0142534
-0.0151131
-0.0159729
-0.01681
-0.0126018
-0.0233937
-0.0291629
-0.0249095
-0.0206561
-0.0213575
-0.0370815
-0.0427602
-0.0434389
-0.0440951
-0.0547964
-0.0704978
-0.0761087
-0.0767195
-0.0773304
-0.0779412
-0.068439
-0.0639141
-0.0593892
-0.0648191
-0.0701811
-0.0754526
-0.0806788
-0.0858145
-0.0858824
-0.0808372
-0.0807693
-0.0806335
-0.0804073
-0.0750906
-0.0747059
-0.0743213
-0.0688462
-0.0733484
-0.0678054
-0.0722625
-0.0666742
-0.0660633
-0.0654525
-0.0598642
-0.0593213
-0.0538009
-0.0533484
-0.0529185
-0.0525565
-0.0472398
-0.0369683
-0.0467873
-0.0466742
-0.0366516
-0.0116289
0.0083032
0.0281901
0.0330317
0.0178281
-0.0223755
-0.0626244
-0.0928959
-0.113167
-0.148439
-0.17871
-0.213959
-0.259208
-0.374457
-0.554661
-0.724864
-0.855068
-0.915294
-0.955475
-0.940656
-0.910837
-0.870996
-0.816177
-0.766335
-0.676539
-0.59172
-0.501946
-0.422127
-0.337353
-0.247624
-0.177873
-0.1181
-0.0733032
-0.043552
-0.0137556
0.00601811
0.0258145
0.0405882
0.0453394
0.0550679
0.0647511
0.0794344
0.0891176
0.0988235
0.103575
0.113303
0.117986
0.122647
0.137376
0.142081
0.151787
0.151516
0.161267
0.171063
0.175882
0.180747
0.180611
0.190498
0.195362
0.205181
0.205
0.209819
0.214593
0.214367
0.224208
0.224095
0.234005
0.233846
0.238665
0.238484
0.248303
0.258077
0.252783
0.257466
0.257149
0.261833
0.251493
0.251199
0.25595
0.250724
0.245452
0.230136
0.224819
0.209457
0.199072
0.183665
0.173281
0.167896
0.147489
0.137104
0.121742
0.11638
0.105995
0.0955882
0.0900905
0.0845022
0.0788461
0.0681448
0.0675339
0.0621041
0.0668778
0.0667873
0.06681
0.0669683
0.0672624
0.0676697
0.0682579
0.0742308
0.0808824
0.0883258
0.0864254
0.0951131
0.10414
0.113394
0.122534
0.121516
0.135158
0.143439
0.146312
0.148733
0.150656
0.152036
0.152896
0.153167
0.142534
0.145747
0.147896
0.144208
0.13509
0.125656
0.126176
0.116697
0.112308
0.103122
0.10914
0.10052
0.0972172
0.0892987
0.0916969
0.0994571
0.087534
0.0809051
0.0795023
0.0782806
0.067172
0.0611539
0.0602037
0.0542987
0.053439
0.047534
0.0566743
0.0508371
0.0450453
0.039276
0.0235294
0.0278054
0.0270814
0.0263801
0.0156561
0.00999996
0.00434387
-0.00626698
-0.0119005
-0.0275565
-0.0381448
-0.048733
-0.0542987
-0.0549095
-0.0504751
-0.0410181
-0.0415385
-0.0370362
-0.0375566
-0.0430317
-0.0534842
-0.0588914
-0.0642987
-0.0646833
-0.0650227
-0.0653168
-0.0655656
-0.0657466
-0.0658145
-0.0658598
-0.0658145
-0.065724
-0.0605883
-0.0603846
-0.0651358
-0.0647964
-0.059457
-0.0540724
-0.058733
-0.0533937
-0.0530769
-0.0478054
-0.0475566
-0.0473529
-0.0421493
-0.0470588
-0.0470136
-0.0470362
-0.0421041
-0.0322398
-0.0174208
0.0073982
0.0171493
0.0318778
0.0115385
-0.0288009
-0.0691629
-0.0995023
-0.119819
-0.150136
-0.18043
-0.205747
-0.241063
-0.316357
-0.476629
-0.651878
-0.787104
-0.89233
-0.947534
-0.977692
-0.947828
-0.927919
-0.893032
-0.853077
-0.793077
-0.7131
-0.638077
-0.548054
-0.468032
-0.383032
-0.298009
-0.223009
-0.157964
-0.102873
-0.0678054
-0.0377375
-0.0126697
0.0174434
0.0375339
0.047647
0.0527602
0.0629412
0.0781222
0.0833031
0.0935294
0.0988009
0.119118
0.124367
0.134547
0.139774
0.145023
0.155249
0.160498
0.170792
0.176041
0.19129
0.191538
0.196855
0.202195
0.207511
0.212828
0.2131
0.223462
0.223869
0.234276
0.234661
0.240023
0.240362
0.245611
0.260814
0.255905
0.26095
0.260996
0.271063
0.271176
0.271335
0.276561
0.271742
0.281923
0.277104
0.272285
0.272398
0.272489
0.277557
0.267624
0.262715
0.252783
0.247851
0.232919
0.222986
0.208032
0.198077
0.193122
0.168167
0.158213
0.143213
0.138235
0.123281
0.118348
0.113394
0.103416
0.103462
0.0935068
0.0935294
0.0884615
0.0933032
0.0930317
0.0927376
0.0975566
0.102557
0.102805
0.098258
0.108937
0.109774
0.115815
0.116901
0.117964
0.119186
0.115973
0.118416
0.116358
0.124548
0.127919
0.12629
0.129321
0.131539
0.13276
0.128213
0.127941
0.122127
0.120792
0.114231
0.112398
0.105362
0.0981448
0.100837
0.0885747
0.086448
0.0845249
0.0877828
0.0813122
0.0751131
0.0691855
0.0634615
0.0679638
0.0625566
0.0572625
0.0520362
0.0519005
0.04681
0.0417421
0.0366742
0.0316063
0.0315611
0.0165158
0.0114932
0.011448
0.0164706
0.0265159
0.0165837
0.0116516
0.00669684
-0.00321268
-0.0131222
-0.00800908
-0.00789595
-0.0127376
-0.0176018
-0.0274887
-0.027353
-0.0322398
-0.0371267
-0.0520136
-0.0618778
-0.0617647
-0.0666742
-0.0665611
-0.0664253
-0.0562895
-0.0511538
-0.0409276
-0.040724
-0.0505204
-0.0603167
-0.0700679
-0.0747738
-0.0795023
-0.0691856
-0.0638688
-0.0634616
-0.0680543
-0.0626471
-0.062172
-0.0616516
-0.0610408
-0.0654299
-0.0597964
-0.0591403
-0.0584842
-0.0578507
-0.0522398
-0.0516516
-0.0511086
-0.0455656
-0.0451357
-0.0397511
-0.0444117
-0.044095
-0.0438461
-0.0436425
-0.0334163
-0.0382353
-0.0330543
-0.0279412
-0.00782804
0.0172625
0.0373529
0.042466
0.0176018
-0.0172172
-0.0620136
-0.09181
-0.116629
-0.141403
-0.171131
-0.200837
-0.23552
-0.310204
-0.464864
-0.629548
-0.769231
-0.853914
-0.918552
-0.953167
-0.952806
-0.932421
-0.887036
-0.851629
-0.796244
-0.730837
-0.64543
-0.565
-0.48457
-0.404163
-0.323733
-0.243303
-0.172851
-0.127421
-0.0819683
-0.0414706
-0.0159729
0.00954749
0.0250452
0.0455656
0.0511086
0.0666968
0.0722625
0.0827828
0.0933032
0.103801
0.109276
0.114774
0.125272
0.135747
0.141222
0.146606
0.156968
0.162353
0.162783
0.168303
0.173801
0.184299
0.184774
0.190226
0.195679
0.201199
0.206742
0.212217
0.22267
0.223032
0.233371
0.238665
0.238959
0.244208
0.249457
0.264706
0.259955
0.260204
0.260453
0.265724
0.261018
0.261357
0.266697
0.266968
0.267195
0.257376
0.262534
0.257647
0.252783
0.242941
0.2381
0.233258
0.218416
0.208552
0.193688
0.183846
0.173959
0.159072
0.154186
0.144299
0.139389
0.12948
0.12957
0.124661
0.124729
0.124706
0.11957
0.119389
0.119253
0.124276
0.114434
0.114774
0.115226
0.120837
0.121606
0.122602
0.128891
0.125724
0.123326
0.121584
0.125294
0.12914
0.133032
0.136787
0.130362
0.13362
0.131584
0.134118
0.131041
0.131855
0.131561
0.125249
0.11819
0.110498
0.107353
0.0988914
0.0953168
0.0867874
0.0832806
0.0748869
0.0666516
0.0587557
0.0511765
0.0539367
0.0420136
0.0354073
0.0341629
0.0281901
0.0223756
0.0117195
0.0162217
0.00579188
0.00542989
-0.00488685
-0.0151357
-0.0204072
-0.0206335
-0.0158371
-0.0210181
-0.0161764
-0.0163348
-0.0264932
-0.0316289
-0.031742
-0.0318552
-0.0269909
-0.0270814
-0.0321719
-0.0372398
-0.0473303
-0.0523982
-0.057466
-0.0575113
-0.0625792
-0.0726697
-0.0827376
-0.0878054
-0.077828
-0.0778733
-0.0678507
-0.062828
-0.0578054
-0.0627375
-0.0676697
-0.0775339
-0.0773755
-0.0821041
-0.0818099
-0.0814706
-0.0760633
-0.0756109
-0.0751131
-0.0745701
-0.0689366
-0.0682805
-0.0675566
-0.0668326
-0.0610634
-0.0552489
-0.0544344
-0.0536425
-0.0578507
-0.0520588
-0.0463349
-0.0457014
-0.0501132
-0.0445928
-0.0391177
-0.0387331
-0.0383484
-0.0330317
-0.0277376
-0.0275113
-0.0272625
-0.0170362
0.00314478
0.0333258
0.0384841
0.0286425
-0.00622174
-0.0360634
-0.065905
-0.0957466
-0.125588
-0.15543
-0.185249
-0.225068
-0.324864
-0.489683
-0.659502
-0.794321
-0.86914
-0.908937
-0.903733
-0.888507
-0.848326
-0.813145
-0.752986
-0.692805
-0.602625
-0.522443
-0.437262
-0.357104
-0.281946
-0.21681
-0.146674
-0.101538
-0.0663801
-0.0361991
-0.00601811
0.0241629
0.0343439
0.0445249
0.0496606
0.059819
0.0699547
0.0700678
0.0802262
0.0903846
0.100543
0.105656
0.115792
0.125882
0.130995
0.136131
0.146244
0.151357
0.151493
0.156697
0.161923
0.172217
0.177511
0.177738
0.182941
0.1931
0.203258
0.198416
0.208597
0.208801
0.213982
0.214186
0.219367
0.224548
0.229706
0.239842
0.239932
0.244955
0.239955
0.249977
0.245023
0.245113
0.255226
0.250339
0.250452
0.240543
0.240566
0.230588
0.220566
0.210566
0.195566
0.190566
0.175566
0.165566
0.150566
0.145566
0.130566
0.120566
0.115543
0.100475
0.0953394
0.0901131
0.0848416
0.0796154
0.0795475
0.0896606
0.0849095
0.0902489
0.0907466
0.0964027
0.0922172
0.0981674
0.0993891
0.106244
0.103891
0.107262
0.121131
0.12543
0.13
0.134615
0.14405
0.148145
0.141923
0.145317
0.148303
0.155724
0.152647
0.154072
0.154955
0.154977
0.148914
0.141765
0.138778
0.130271
0.126448
0.117511
0.113529
0.109661
0.10586
0.0973077
0.0889818
0.0860407
0.0834162
0.0811312
0.0741629
0.0724887
0.071086
0.0649321
0.0589819
0.0481674
0.0474887
0.0418778
0.0363574
0.0308823
0.0354298
0.0349773
0.0295022
0.0290724
0.0186199
0.0132126
0.00780538
0.00744338
0.00710402
0.00676465
0.00147053
-0.0138462
-0.0191403
-0.0244118
-0.0296833
-0.0399774
-0.0502716
-0.0605431
-0.0607919
-0.0560182
-0.0562897
-0.0465159
-0.0467196
-0.0418553
-0.0470363
-0.0571268
-0.0571946
-0.0722625
-0.0722851
-0.0772851
-0.0721946
-0.0720363
-0.0717874
-0.0664933
-0.0661087
-0.0606788
-0.0651811
-0.064638
-0.0640498
-0.0583258
-0.0625792
-0.0617874
-0.0560181
-0.0552263
-0.0494344
-0.0536878
-0.0529638
-0.0473077
-0.0466516
-0.0460859
-0.0455882
-0.0401357
-0.0397059
-0.0393665
-0.034095
-0.0188461
0.00133485
0.0214932
0.0316064
0.0166742
-0.0132579
-0.04819
-0.0780769
-0.103009
-0.132919
-0.162828
-0.197715
-0.227602
-0.282489
-0.417353
-0.592172
-0.751991
-0.851833
-0.926652
-0.956425
-0.961177
-0.930928
-0.890656
-0.850362
-0.795113
-0.734864
-0.639615
-0.559344
-0.479072
-0.398778
-0.308484
-0.23319
-0.162896
-0.112624
-0.072353
-0.0421041
-0.0118326
0.0134389
0.0287104
0.0489819
0.054276
0.0645928
0.0699321
0.0802715
0.0906335
0.100995
0.111335
0.116652
0.131968
0.132285
0.137624
0.137941
0.153258
0.163552
0.163824
0.169095
0.174412
0.189751
0.190091
0.195475
0.195837
0.206222
0.206606
0.207036
0.217466
0.217896
0.228258
0.228529
0.233778
0.238982
0.24414
0.249321
0.24948
0.254615
0.254751
0.264932
0.260113
0.265317
0.26052
0.265747
0.25595
0.251131
0.256312
0.246403
0.246493
0.231561
0.221652
0.211742
0.20181
0.1869
0.171991
0.167104
0.152172
0.14224
0.12233
0.112443
0.102511
0.0975565
0.092647
0.0827375
0.082828
0.0778733
0.0778733
0.072828
0.0776923
0.082466
0.0771945
0.0770588
0.0820814
0.0872624
0.0876018
0.0881221
0.0888688
0.0948642
0.101041
0.0973303
0.0988461
0.10086
0.108507
0.111652
0.115068
0.11862
0.117195
0.125588
0.123643
0.120882
0.117149
0.122421
0.126946
0.115769
0.109072
0.107014
0.104706
0.0972398
0.0946154
0.0919457
0.0892987
0.0869231
0.0797738
0.0728733
0.0711991
0.0698416
0.0637783
0.0629864
0.0623756
0.0618778
0.0565159
0.051267
0.051086
0.0509276
0.0458371
0.035724
0.0256109
0.0254977
0.0203846
0.0202941
0.0202036
0.0251358
0.0250453
0.02
0.00995478
0.00490954
0.00484167
0.00479641
0.00479641
-0.000226215
-0.00524884
-0.0102941
-0.0152941
-0.0252941
-0.0303167
-0.040362
-0.0453846
-0.0554072
-0.0554525
-0.0554751
-0.0455203
-0.0405203
-0.0405203
-0.0354977
-0.0304751
-0.0454525
-0.0504073
-0.055362
-0.0552715
-0.060181
-0.0600226
-0.0548643
-0.0546833
-0.0544797
-0.0542308
-0.0589593
-0.0586652
-0.0533032
-0.0529412
-0.052534
-0.0521267
-0.0517421
-0.0463349
-0.0459503
-0.0455883
-0.0452715
-0.0399548
-0.0397059
-0.0445249
-0.0444118
-0.0393439
-0.0342987
-0.039276
-0.0392534
-0.0342987
-0.0293665
-0.019457
-0.00452488
0.0154072
0.0353394
0.0453168
0.0202941
-0.0146833
-0.049638
-0.0796154
-0.10457
-0.134525
-0.169457
-0.199367
-0.239253
-0.31914
-0.464005
-0.633846
-0.768665
-0.858462
-0.918235
-0.957986
-0.947783
-0.927557
-0.882285
-0.841991
-0.78172
-0.716425
-0.636086
-0.550769
-0.475475
-0.390158
-0.314796
-0.239412
-0.174027
-0.118643
-0.0832579
-0.0528281
-0.0273982
0.00300905
0.0234163
0.0338462
0.044276
0.0547285
0.0702036
0.0707014
0.0761991
0.0866742
0.0971267
0.102557
0.112986
0.123371
0.12871
0.139072
0.144389
0.154706
0.159977
0.170272
0.175588
0.175928
0.181222
0.186516
0.196878
0.197285
0.202715
0.208145
0.218552
0.223914
0.224186
0.234412
0.23957
0.244706
0.244842
0.249955
0.255091
0.260226
0.260407
0.260588
0.260724
0.265882
0.271086
0.271244
0.271357
0.266425
0.266493
0.261538
0.256561
0.256606
0.246674
0.241742
0.226787
0.216765
0.206765
0.196787
0.186787
0.171787
0.166787
0.151787
0.14681
0.136833
0.131855
0.126878
0.1269
0.131833
0.126629
0.126335
0.121041
0.120837
0.115724
0.120769
0.12595
0.126244
0.121719
0.117443
0.123416
0.119683
0.116403
0.10871
0.111652
0.125023
0.123643
0.127285
0.125837
0.129095
0.132104
0.129774
0.126878
0.123077
0.123145
0.117262
0.110543
0.103213
0.105339
0.102195
0.0838688
0.0705204
0.067172
0.063914
0.0558145
0.0479638
0.0454525
0.0382127
0.0263122
0.0146833
0.0133937
0.012353
0.0115159
0.000791889
-0.00481897
-0.00536196
-0.00583708
-0.0112217
-0.0166063
-0.0219457
-0.027285
-0.0325792
-0.0379185
-0.0382579
-0.0335747
-0.028914
-0.0342308
-0.0345475
-0.034819
-0.0400905
-0.0353394
-0.0355882
-0.0258371
-0.0260859
-0.0313348
-0.0415384
-0.0417873
-0.0470362
-0.0623077
-0.0725566
-0.0778054
-0.0830317
-0.0832579
-0.0784615
-0.0636199
-0.0638009
-0.0539366
-0.0590498
-0.0641403
-0.0691855
-0.0741855
-0.0741176
-0.0740045
-0.0688235
-0.0586425
-0.0583937
-0.0630769
-0.0676697
-0.0622172
-0.0567195
-0.0561765
-0.0555882
-0.0499774
-0.0493439
-0.0536652
-0.0530091
-0.047353
-0.0367647
-0.0412217
-0.0407014
-0.0352489
-0.0348416
-0.0345023
-0.0341855
-0.0339367
-0.0337331
-0.0335747
-0.0334616
-0.0283484
-0.00825794
0.0168552
0.0369457
0.0420588
0.0271267
0.00219455
-0.0327149
-0.0576245
-0.0775113
-0.107398
-0.147285
-0.182195
-0.227081
-0.316946
-0.471833
-0.646742
-0.776652
-0.861493
-0.891335
-0.901177
-0.871018
-0.84586
-0.810656
-0.765453
-0.710249
-0.630068
-0.554842
-0.459615
-0.384412
-0.304208
-0.233959
-0.17371
-0.123529
-0.083371
-0.0431674
-0.0129412
0.0122851
0.0224661
0.0376471
0.0477828
0.0628733
0.0629186
0.0730091
0.0831448
0.0932806
0.0983484
0.108394
0.123484
0.123597
0.13371
0.133801
0.143891
0.148982
0.159095
0.164208
0.169344
0.184502
0.184638
0.194729
0.194796
0.199864
0.204932
0.210068
0.220226
0.225452
0.235679
0.230882
0.241041
0.246199
0.256357
0.261448
0.261471
0.261471
0.266448
0.271403
0.26638
0.271425
0.271448
0.271516
0.271584
0.261629
0.256652
0.246629
0.241606
0.226584
0.226606
0.211629
0.201629
0.186629
0.176584
0.166538
0.151471
0.141335
0.131109
0.120792
0.11052
0.105362
0.100385
0.100566
0.100905
0.0963801
0.102014
0.102828
0.103846
0.105317
0.107489
0.115385
0.118914
0.127783
0.126968
0.136199
0.14043
0.144638
0.14371
0.152624
0.156086
0.149118
0.156561
0.158529
0.16
0.155928
0.156335
0.156244
0.145724
0.144615
0.13767
0.134842
0.126312
0.117353
0.113213
0.103982
0.099819
0.085724
0.0767647
0.0679864
0.0644117
0.0511765
0.0432579
0.040724
0.0334616
0.0265385
0.0249096
0.0235521
0.0173756
0.00633488
0.000452532
-0.0053167
-0.000972807
-0.00165153
0.0027376
0.00214937
0.00162901
-0.0089366
-0.0194796
-0.02
-0.0154977
-0.0159954
-0.0264932
-0.0319005
-0.0373303
-0.037715
-0.0431448
-0.0485521
-0.0589141
-0.0642534
-0.0695702
-0.0698643
-0.0600679
-0.0552715
-0.0504299
-0.050543
-0.0556335
-0.0656561
-0.0706335
-0.0754978
-0.0752715
-0.0749548
-0.0745928
-0.0741403
-0.0785747
-0.0779186
-0.072172
-0.0714027
-0.0705656
-0.0646833
-0.0637557
-0.0628055
-0.0567874
-0.0557693
-0.0597512
-0.0587104
-0.0576923
-0.0516968
-0.0507692
-0.0498643
-0.0540045
-0.0431448
-0.0373529
-0.0416516
-0.0360181
-0.0304525
-0.0199321
-0.00450225
0.015905
0.041267
0.0315611
0.00178735
-0.0380317
-0.0678507
-0.0926697
-0.127511
-0.162376
-0.197195
-0.242014
-0.341855
-0.496674
-0.656493
-0.796267
-0.871041
-0.940792
-0.945543
-0.925294
-0.895023
-0.844774
-0.804525
-0.719253
-0.648959
-0.55371
-0.473439
-0.383145
-0.292873
-0.217624
-0.142398
-0.0921493
-0.0519231
-0.0216742
-0.00142535
0.0238461
0.0341176
0.0443665
0.0545928
0.0697964
0.0800226
0.0852036
0.090362
0.100566
0.105769
0.11095
0.121086
0.136244
0.141403
0.146561
0.146765
0.156968
0.167172
0.172376
0.177624
0.177873
0.193167
0.193462
0.198756
0.199027
0.209276
0.21448
0.219661
0.224864
0.230136
0.240407
0.235679
0.240928
0.241154
0.25138
0.256584
0.251765
0.256878
0.256968
0.257059
0.252149
0.252308
0.252466
0.242624
0.242783
0.232919
0.228009
0.213054
0.198077
0.1881
0.1731
0.1631
0.1431
0.1331
0.118122
0.113145
0.0981448
0.0931448
0.0881222
0.0780091
0.067828
0.0675566
0.0672398
0.0619004
0.0566968
0.0566289
0.0617421
0.0619909
0.0573756
0.0578959
0.0586199
0.0695249
0.0706787
0.0773529
0.0798642
0.0881674
0.0869909
0.0912896
0.10086
0.110475
0.119774
0.118688
0.122262
0.130498
0.133303
0.130566
0.132308
0.138462
0.133824
0.1331
0.12629
0.123552
0.120226
0.111403
0.112398
0.103326
0.104299
0.0954299
0.0916968
0.0833032
0.0802036
0.0775113
0.0701358
0.0730996
0.0714254
0.0750905
0.0690498
0.0631901
0.0574887
0.0518778
0.0463349
0.0408597
0.0403846
0.0449095
0.044457
0.0390724
0.038733
0.0383937
0.0230543
0.0227602
0.0174208
0.0220815
0.0167873
0.0115611
0.00638009
-0.00377828
-0.00391403
-0.00900452
-0.0190498
-0.0341403
-0.0392308
-0.0443439
-0.0443891
-0.039457
-0.0345475
-0.0296154
-0.0296606
-0.0346832
-0.0396833
-0.049638
-0.0495475
-0.059457
-0.0593891
-0.0593439
-0.0592308
-0.0590271
-0.058733
-0.0534389
-0.0530996
-0.0577149
-0.0573077
-0.0618326
-0.056267
-0.0505656
-0.0498416
-0.049095
-0.0484163
-0.0427376
-0.0420588
-0.0414027
-0.0357692
-0.0352036
-0.0346833
-0.039276
-0.0439366
-0.0386878
-0.0334842
-0.0333258
-0.0231674
-0.00303168
0.0120136
0.0370136
0.0470136
0.0470136
0.0169683
-0.0130995
-0.0481448
-0.0781674
-0.108213
-0.143303
-0.178416
-0.213507
-0.273507
-0.383462
-0.563371
-0.728258
-0.828077
-0.912873
-0.94767
-0.967466
-0.927262
-0.882014
-0.836765
-0.786538
-0.726267
-0.641018
-0.560792
-0.475566
-0.400317
-0.315068
-0.234819
-0.16957
-0.114321
-0.0740271
-0.038733
-0.00341627
0.0168778
0.0321946
0.0424887
0.0527828
0.0580543
0.0633484
0.0736652
0.0889593
0.099276
0.0995701
0.109864
0.120181
0.125498
0.135814
0.141131
0.151425
0.161674
0.171878
0.177149
0.177489
0.177851
0.183213
0.188552
0.188846
0.204208
0.209661
0.210226
0.210792
0.206312
0.206787
0.202127
0.202376
0.202579
0.217805
0.223032
0.228258
0.228462
0.233688
0.243959
0.239276
0.244615
0.244977
0.245317
0.240656
0.235928
0.246154
0.246312
0.256471
0.241629
0.231765
0.216878
0.211991
0.207149
0.197308
0.192443
0.172602
0.152738
0.122919
0.1081
0.103235
0.108348
0.103484
0.0886652
0.0788462
0.0740272
0.0742308
0.0744344
0.0795928
0.0846154
0.089457
0.0942534
0.0890724
0.0839593
0.0840498
0.0943439
0.0947285
0.0952489
0.095905
0.101697
0.102511
0.0984615
0.0997059
0.106538
0.113982
0.121833
0.119932
0.1131
0.106109
0.103507
0.100023
0.0906109
0.0805882
0.0799548
0.0838914
0.0874208
0.0807692
0.0740271
0.0771719
0.0702489
0.0732579
0.0713801
0.069638
0.0680996
0.0617195
0.060543
0.0545702
0.0538009
0.0432353
0.0378055
0.0375113
0.0373303
0.0371946
0.0370588
0.0369231
0.0367874
0.0316742
0.0265611
0.026448
0.0263575
0.0312896
0.0362217
0.0261991
0.0211991
0.0161991
0.0111991
0.0111765
0.0161312
0.0261086
0.0161312
0.00119911
-0.00873301
-0.00871039
-0.00371039
-0.00871039
-0.023733
-0.0487104
-0.0686878
-0.0736878
-0.0686878
-0.0637557
-0.0438461
-0.0239593
-0.0190724
-0.0342308
-0.0493891
-0.0545249
-0.0546606
-0.0597285
-0.0647511
-0.0697059
-0.0696833
-0.074638
-0.0745475
-0.0794344
-0.0743439
-0.0642534
-0.059095
-0.0589366
-0.0586878
-0.0534615
-0.0482127
-0.0479638
-0.0527149
-0.0524661
-0.0521946
-0.0568778
-0.0565837
-0.0613575
-0.056267
-0.046267
-0.0412896
-0.046267
-0.0512443
-0.0512896
-0.0513801
-0.0515158
-0.0516516
-0.041742
-0.0167647
0.0182579
0.0332579
0.0332806
0.0183032
-0.0166968
-0.0416968
-0.046629
-0.0515158
-0.0713575
-0.101199
-0.136041
-0.19586
-0.295701
-0.45552
-0.620294
-0.744977
-0.834593
-0.884231
-0.908914
-0.883643
-0.868371
-0.8281
-0.792919
-0.742783
-0.682647
-0.612444
-0.532217
-0.467036
-0.3969
-0.331697
-0.256493
-0.196222
-0.145928
-0.105611
-0.0652715
-0.0249548
0.010362
0.0307013
0.041086
0.051448
0.0568099
0.0671946
0.0775565
0.0928959
0.103235
0.113597
0.114027
0.11948
0.129955
0.140407
0.145792
0.146176
0.146561
0.151923
0.157262
0.167624
0.177986
0.193326
0.198688
0.199118
0.194525
0.194887
0.205181
0.215475
0.22086
0.226267
0.231674
0.237036
0.24233
0.242602
0.252851
0.2581
0.258303
0.258507
0.26871
0.283914
0.28414
0.289367
0.274638
0.269864
0.265068
0.265272
0.26552
0.255747
0.25095
0.251109
0.246267
0.241425
0.241606
0.231765
0.221923
0.207081
0.192262
0.187466
0.182647
0.167805
0.152919
0.138009
0.133122
0.133235
0.138394
0.138597
0.133914
0.129299
0.129615
0.129729
0.134593
0.134299
0.123937
0.113688
0.108733
0.11914
0.119751
0.115407
0.116086
0.116787
0.112624
0.103733
0.095181
0.097172
0.104683
0.102624
0.105724
0.103688
0.101131
0.0877376
0.0786652
0.0790045
0.0790272
0.0786652
0.0730543
0.0670362
0.0757014
0.074095
0.0723077
0.0604299
0.0585973
0.0619457
0.0654977
0.0543439
0.0484615
0.0378281
0.0322851
0.0266968
0.021086
0.0205882
0.0202941
0.010181
0.000158373
-0.00481901
-0.00977375
-0.0147738
-0.00979638
-0.00484164
-0.00481902
-0.00968326
-0.0243891
-0.0340498
-0.043733
-0.0385294
-0.0234842
-0.0185294
-0.0135747
-0.0185294
-0.0184163
-0.0283258
-0.0332579
-0.0281674
-0.0279412
-0.0326471
-0.0373529
-0.0421493
-0.0370136
-0.0368552
-0.051629
-0.0613122
-0.0759502
-0.090543
-0.0950226
-0.0943891
-0.0838235
-0.0784163
-0.0481448
-0.0278733
-0.0225339
-0.0371041
-0.0565837
-0.0610407
-0.0704298
-0.064819
-0.0641629
-0.0684841
-0.0778054
-0.0770815
-0.0713575
-0.0655656
-0.0596607
-0.0486425
-0.0474661
-0.0412896
-0.0402715
-0.0343665
-0.0334842
-0.0376018
-0.0367195
-0.0308824
-0.0202489
-0.0197511
-0.0243213
-0.0288688
-0.033371
-0.0328054
-0.0521946
-0.0715837
-0.0610633
-0.0156109
0.0398643
0.0754299
0.091086
0.0767647
0.0373982
-0.00703619
-0.0365385
-0.0461086
-0.0656335
-0.105045
-0.159412
-0.223801
-0.303213
-0.442647
-0.587081
-0.716493
-0.810905
-0.880249
-0.924548
-0.903823
-0.878145
-0.837466
-0.816787
-0.756199
-0.675633
-0.570023
-0.459367
-0.36362
-0.272828
-0.191991
-0.131222
-0.0904977
-0.0697511
-0.063914
-0.0580769
-0.0373077
0.00337103
0.0640724
0.109774
0.125407
0.120905
0.116357
0.116787
0.11724
0.122715
0.138145
0.153507
0.168869
0.169276
0.154751
0.130294
0.12086
0.131403
0.166923
0.212421
0.237919
0.238371
0.218891
0.209457
0.220113
0.235837
0.241561
0.227195
0.217602
0.217873
0.233122
0.248416
0.253846
0.249321
0.234751
0.230068
0.225294
0.205453
0.185633
0.200905
0.246244
0.281606
0.282059
0.267557
0.258009
0.253348
0.248575
0.238756
0.223937
0.209118
0.199299
0.199412
0.18948
0.179525
0.15957
0.134661
0.104819
0.0650452
0.0652036
0.0902489
0.105226
0.0952941
0.0804751
0.0757466
0.081086
0.111629
0.127421
0.128348
0.119412
0.110792
0.102805
0.0956335
0.0939593
0.112602
0.131425
0.130498
0.119683
0.103982
0.0931901
0.0971493
0.110724
0.138801
0.15638
0.143462
0.12009
0.111222
0.11181
0.10681
0.101244
0.0998643
0.0976244
0.0895701
0.0709502
0.0520136
0.0378733
0.0288236
0.0148416
0.0109502
0.0270588
0.0283937
0.0100905
-0.0077149
-0.0200452
-0.0319683
-0.0434615
-0.0396154
-0.0305656
-0.0314027
-0.0472398
-0.0581674
-0.0491176
-0.04
-0.0507466
-0.0562443
-0.0466063
-0.0169231
-0.0072398
-0.0125792
-0.0279864
-0.0384842
-0.0340271
-0.0245475
-0.02
-0.0253846
-0.0407919
-0.0613122
-0.081991
-0.0877828
-0.0935747
-0.0842081
-0.0695928
-0.054819
-0.0651131
-0.0805204
-0.100928
-0.126131
-0.131154
-0.106199
-0.0564706
-0.0319004
-0.0322172
-0.0472624
-0.0720814
-0.0818099
-0.0865158
-0.0712443
-0.0659502
-0.0656561
-0.0754525
-0.0953168
-0.100091
-0.099638
-0.0889819
-0.0783484
-0.0628054
-0.0523303
-0.0468778
-0.041448
-0.0509955
-0.0454977
-0.0450452
-0.0347964
-0.0347511
-0.0297285
-0.0246832
-0.0297059
-0.0398416
-0.0450679
-0.0304751
-0.000904977
0.0137104
-0.00162895
-0.0269909
-0.0524208
-0.0678959
-0.108371
-0.153688
-0.183937
-0.219186
-0.294457
-0.439774
-0.620113
-0.75052
-0.841018
-0.871493
-0.881878
-0.852217
-0.842579
-0.808009
-0.768552
-0.724208
-0.659819
-0.580181
-0.480362
-0.400634
-0.331041
-0.266516
-0.201991
-0.157511
-0.118077
-0.0736426
-0.0242082
0.00518097
0.00452486
0.0038235
0.00314476
0.0124887
0.0317647
0.0509955
0.0602941
0.0596606
0.0539819
0.0582805
0.0625565
0.0568326
0.061086
0.0753393
0.089638
0.108982
0.133348
0.14276
0.147308
0.156855
0.161131
0.175204
0.179299
0.173642
0.1731
0.187557
0.206946
0.221312
0.230747
0.230204
0.229661
0.23405
0.243371
0.252579
0.266629
0.275679
0.274683
0.263733
0.252919
0.267262
0.271561
0.260769
0.224864
0.198801
0.207692
0.241674
0.265882
0.240204
0.194525
0.158756
0.142805
0.131742
0.120588
0.109412
0.103167
0.101878
0.095543
0.0892308
0.0830543
0.0720362
0.0761539
0.0803168
0.0846154
0.0840724
0.0836878
0.0685747
0.0440045
0.0402715
0.0771946
0.124593
0.122262
0.110091
0.107986
0.110701
0.103326
0.105769
0.1131
0.130271
0.137127
0.133529
0.134434
0.139932
0.145023
0.139683
0.138869
0.137624
0.13086
0.128484
0.120294
0.121244
0.131561
0.136403
0.126018
0.105498
0.0901131
0.0797738
0.0846154
0.104593
0.0997511
0.0651358
0.0358597
0.036991
0.0384163
0.0401357
0.0371041
0.0393665
0.0417647
0.0392986
0.0370136
0.0399321
0.033009
0.0260407
0.0090724
-0.00291855
0.000180994
0.00830317
0.0114253
-0.000475111
-0.00735294
-0.0192081
-0.026086
-0.0379186
-0.0447964
-0.0415837
-0.0432353
-0.054819
-0.0764932
-0.0982353
-0.120023
-0.111787
-0.0634163
-0.025
-0.0214253
-0.0477828
-0.064095
-0.0703846
-0.071629
-0.0777602
-0.0888235
-0.0847511
-0.0806335
-0.071448
-0.0721946
-0.0678281
-0.0533484
-0.0587783
-0.0541177
-0.054457
-0.0697738
-0.0900905
-0.0902941
-0.0854525
-0.0806335
-0.070905
-0.0662896
-0.061629
-0.0618326
-0.0619004
-0.0621041
-0.0575339
-0.0431222
-0.0287783
-0.0144796
0.00470589
0.0238235
0.0329186
0.0320136
0.00606336
-0.0299547
-0.0659728
-0.0870362
-0.0880543
-0.104095
-0.130113
-0.161154
-0.217195
-0.348303
-0.529548
-0.675792
-0.771855
-0.83267
-0.863529
-0.874457
-0.840407
-0.83138
-0.797376
-0.758394
-0.694344
-0.610226
-0.526041
-0.4419
-0.377783
-0.30362
-0.249412
-0.190204
-0.126018
-0.04681
0.0123756
0.0465837
0.0557466
0.0649321
0.0791855
0.0985294
0.117896
0.117172
0.116448
0.110724
0.120068
0.124525
0.138982
0.143303
0.152511
0.166765
0.171041
0.180362
0.179706
0.194095
0.203507
0.207919
0.21233
0.206787
0.216244
0.215679
0.220091
0.209502
0.223982
0.243552
0.25819
0.252805
0.242376
0.251878
0.246335
0.250769
0.235204
0.219638
0.21905
0.258439
0.297805
0.317081
0.31629
0.295566
0.290113
0.269864
0.259593
0.244186
0.23871
0.243258
0.237783
0.237262
0.216674
0.206131
0.190634
0.180181
0.164729
0.149276
0.143914
0.133529
0.133167
0.117805
0.107376
0.0968552
0.0913123
0.0857919
0.0702941
0.0698643
0.0694344
0.073982
0.0685068
0.0729638
0.077353
0.0766516
0.0759955
0.0754752
0.0902037
0.0952489
0.0955204
0.0959729
0.101629
0.112353
0.108054
0.108778
0.104819
0.116516
0.118914
0.126719
0.129774
0.132873
0.140475
0.137262
0.133235
0.123665
0.128575
0.128122
0.12733
0.131312
0.124955
0.128371
0.116651
0.114864
0.103122
0.106425
0.109887
0.103484
0.0972849
0.091199
0.0952713
0.08957
0.0891854
0.084027
0.0889591
0.0888913
0.0888008
0.0787781
0.0688008
0.0738913
0.0639818
0.0590497
0.0540497
0.054027
0.054027
0.0540497
0.0540949
0.0491401
0.0492307
0.0443211
0.0394116
0.0345022
0.0346153
0.0347737
0.0349321
0.0301131
0.0252036
0.0253167
0.0154299
0.00558825
-0.00429861
-0.0141629
-0.023914
-0.0286199
-0.0233484
-0.0181674
-0.0129637
-0.0177601
-0.0225339
-0.0173981
-0.0123755
-0.0173303
-0.0321266
-0.0316968
-0.0361538
-0.0405655
-0.0500226
-0.0544569
-0.0439592
-0.0384841
-0.0380316
-0.0475791
-0.0420362
-0.0364932
-0.0308823
-0.0353167
-0.0397737
-0.0392307
-0.038733
-0.0332353
-0.0377602
-0.037285
-0.0368552
-0.0364253
-0.0360181
-0.0356108
-0.0302262
-0.0298642
-0.0295475
-0.0342986
-0.0290498
-0.0188235
-0.0135746
0.00169684
0.016991
0.0423077
0.0476018
0.0329186
-0.00671943
-0.0562669
-0.0857918
-0.115317
-0.159796
-0.199253
-0.228643
-0.268077
-0.357511
-0.501968
-0.671403
-0.785792
-0.870136
-0.934434
-0.95371
-0.952941
-0.917172
-0.891425
-0.835701
-0.784955
-0.719208
-0.633462
-0.54767
-0.4619
-0.391086
-0.310249
-0.234412
-0.158597
-0.107738
-0.0718099
-0.040905
-0.0100226
0.0158145
0.0316742
0.0425792
0.0535294
0.0695022
0.0805203
0.0965384
0.0975565
0.108507
0.114412
0.115339
0.121244
0.132149
0.148054
0.148982
0.159909
0.160837
0.171787
0.177738
0.183733
0.194751
0.195747
0.206719
0.207738
0.213801
0.21491
0.230996
0.237036
0.238054
0.233982
0.234819
0.245588
0.241357
0.247149
0.247941
0.258756
0.264615
0.26052
0.261425
0.267262
0.2781
0.273959
0.279796
0.270543
0.26629
0.257036
0.247738
0.238394
0.234005
0.229683
0.220385
0.216063
0.201697
0.197353
0.183054
0.173778
0.169457
0.155113
0.155769
0.141403
0.132036
0.127647
0.128235
0.128756
0.119186
0.109548
0.104909
0.105339
0.110928
0.111652
0.112466
0.118394
0.11948
0.110747
0.112195
0.113891
0.121041
0.118914
0.112466
0.111403
0.115498
0.119661
0.113824
0.117715
0.11638
0.124729
0.12767
0.130023
0.13638
0.126652
0.120995
0.109661
0.10267
0.0952489
0.0874887
0.0846154
0.0766516
0.0737782
0.0709728
0.0683031
0.0609502
0.0589367
0.0522624
0.0358371
0.0347285
0.0289367
0.0234616
0.0131448
0.0129412
0.0128507
0.0178733
0.0179638
0.00305431
-0.00678732
-0.016629
-0.0214253
-0.0212443
-0.0210181
-0.0158145
-0.0156109
-0.0154072
-0.0202715
-0.0251132
-0.0299548
-0.0347286
-0.0345476
-0.0343439
-0.0391403
-0.0439367
-0.0537105
-0.0634842
-0.0632127
-0.0629865
-0.0727376
-0.0825339
-0.0923303
-0.0921041
-0.0868326
-0.0815158
-0.0711991
-0.060905
-0.0556335
-0.0653168
-0.0799774
-0.0845701
-0.0841177
-0.0885973
-0.0929864
-0.097353
-0.0866742
-0.0809502
-0.0801131
-0.0792081
-0.0732126
-0.0722172
-0.0761991
-0.0701583
-0.0691402
-0.0631448
-0.0671267
-0.0661086
-0.0600905
-0.0591176
-0.0582127
-0.0623303
-0.0614932
-0.055724
-0.0550226
-0.0543891
-0.0487783
-0.0432353
-0.0427828
-0.0373303
-0.0218778
-0.00142534
0.0139593
0.0142987
0.0046154
-0.0300452
-0.0596832
-0.0843212
-0.103937
-0.128529
-0.163145
-0.187805
-0.227443
-0.302059
-0.456652
-0.621244
-0.74586
-0.830475
-0.875091
-0.904706
-0.889344
-0.878982
-0.83862
-0.788235
-0.747828
-0.672398
-0.601946
-0.511538
-0.446154
-0.365769
-0.290385
-0.215023
-0.154683
-0.109321
-0.0739819
-0.0386425
-0.00330317
0.0120362
0.0223756
0.0327376
0.0481222
0.0584842
0.0638688
0.0692082
0.0844796
0.0947059
0.0999548
0.105249
0.115588
0.13095
0.126267
0.136538
0.141742
0.156946
0.162195
0.167466
0.177783
0.183122
0.198507
0.198914
0.209321
0.209706
0.220068
0.22543
0.225769
0.236041
0.23629
0.241516
0.241719
0.251946
0.257217
0.267466
0.272692
0.267828
0.272964
0.268122
0.268303
0.268529
0.273778
0.27405
0.264276
0.254457
0.244615
0.239774
0.224887
0.214955
0.205
0.200091
0.185204
0.165294
0.150385
0.140498
0.130611
0.115701
0.110815
0.105905
0.0959729
0.0910181
0.0809955
0.0858824
0.0856561
0.0854073
0.080181
0.0850679
0.095181
0.0954978
0.100928
0.101471
0.112172
0.108032
0.10905
0.110385
0.11733
0.120181
0.123688
0.122534
0.126561
0.130611
0.129661
0.133484
0.142036
0.145249
0.143122
0.140566
0.142217
0.137805
0.13224
0.125792
0.123552
0.120747
0.112511
0.109118
0.100588
0.0971041
0.0887104
0.0803846
0.0773303
0.0745249
0.0720814
0.0599095
0.0530769
0.0515385
0.0502941
0.044276
0.0434163
0.0426923
0.0420814
0.0415837
0.0361086
0.0306787
0.0202262
0.00981901
0.0044344
0.00907241
0.0186878
0.0183032
0.0129638
0.00264707
-0.00264705
-0.00794116
-0.01319
-0.0134615
-0.00868777
-0.0139366
-0.0241629
-0.0293439
-0.0345249
-0.0396606
-0.049819
-0.0599095
-0.065
-0.0650679
-0.0651358
-0.065181
-0.060181
-0.0502036
-0.050181
-0.0551357
-0.0600679
-0.0649547
-0.0747964
-0.0795928
-0.0843213
-0.0739593
-0.0735747
-0.0731448
-0.0726923
-0.0721719
-0.0665611
-0.0658823
-0.0651357
-0.0693891
-0.0686199
-0.0678733
-0.0621267
-0.0564027
-0.0556787
-0.055
-0.0543665
-0.0487783
-0.0482805
-0.0478507
-0.0474661
-0.0471493
-0.0468778
-0.0416516
-0.0314706
-0.0313575
-0.016267
0.00875566
0.0337783
0.0387783
0.0288009
0.00382353
-0.0411312
-0.0860633
-0.111018
-0.13095
-0.160882
-0.195747
-0.225611
-0.280452
-0.395317
-0.580158
-0.724977
-0.809774
-0.884593
-0.919412
-0.944208
-0.914027
-0.878824
-0.838552
-0.788303
-0.733077
-0.632851
-0.552602
-0.462376
-0.392172
-0.301968
-0.221742
-0.156493
-0.106267
-0.0660181
-0.0357692
-0.00549773
0.0197285
0.0349095
0.0501584
0.0604525
0.0657919
0.071086
0.0813575
0.091629
0.101855
0.112081
0.117353
0.12767
0.138009
0.148326
0.14862
0.163891
0.169186
0.174457
0.174706
0.185
0.200385
0.200837
0.20129
0.201719
0.212149
0.217579
0.217964
0.218303
0.228665
0.239005
0.234276
0.239502
0.239729
0.249955
0.250181
0.250385
0.255588
0.255792
0.260996
0.256177
0.261357
0.261584
0.25681
0.257036
0.24724
0.247421
0.242557
0.237624
0.22267
0.212738
0.207828
0.197941
0.183054
0.163167
0.153281
0.138371
0.128439
0.113484
0.108507
0.103552
0.09362
0.0837331
0.0838462
0.0888914
0.0838236
0.0836652
0.0834163
0.0831222
0.0879865
0.0830543
0.0883032
0.0937104
0.099276
0.1
0.105928
0.112127
0.11862
0.11552
0.113077
0.116222
0.124842
0.133597
0.137602
0.141561
0.140317
0.138824
0.136991
0.144774
0.146742
0.142602
0.137443
0.136584
0.135023
0.127919
0.125362
0.117602
0.104729
0.106765
0.103778
0.0958597
0.0882579
0.085905
0.0838462
0.0770588
0.0706561
0.0645701
0.0637104
0.0580317
0.0524887
0.0470815
0.0517647
0.0565385
0.0413122
0.0311539
0.0209955
0.0208145
0.0206335
0.0204977
0.0303846
0.0252489
0.0151357
0.00502263
-4.52399e-05
0.0048869
0.00486428
0.00484166
-0.0101131
-0.0151131
-0.0151357
-0.020181
-0.0302036
-0.0451584
-0.0501583
-0.055181
-0.0602036
-0.0652036
-0.0602036
-0.0502489
-0.0502715
-0.0502715
-0.0452262
-0.0402262
-0.0452262
-0.0502036
-0.0601358
-0.0650453
-0.0699548
-0.0697964
-0.0695928
-0.0643439
-0.059095
-0.0587557
-0.0583032
-0.0628281
-0.0623303
-0.0618778
-0.0613575
-0.0507919
-0.0502489
-0.0447285
-0.0492082
-0.0536425
-0.0530996
-0.0526018
-0.0471946
-0.0418326
-0.0365611
-0.0363575
-0.0312443
-0.0361312
-0.0360407
-0.0410407
-0.0411086
-0.0261765
-0.00122172
0.023733
0.0437104
0.0536652
0.0186425
-0.0263348
-0.0663575
-0.0963575
-0.121335
-0.15629
-0.186267
-0.221244
-0.261176
-0.346086
-0.500973
-0.655882
-0.805815
-0.880701
-0.960543
-0.970362
-0.955204
-0.935045
-0.889887
-0.859729
-0.794548
-0.734367
-0.654186
-0.584005
-0.503778
-0.418529
-0.343281
-0.268009
-0.207738
-0.147511
-0.0922624
-0.0519909
-0.0217421
0.00350679
0.0287783
0.0390498
0.0443213
0.0545475
0.0697285
0.0798869
0.0900452
0.0902036
0.100362
0.105543
0.120769
0.12095
0.131041
0.141086
0.146109
0.146176
0.15129
0.166448
0.171606
0.176765
0.176946
0.187127
0.187353
0.187602
0.187851
0.203009
0.213077
0.218122
0.223122
0.2231
0.233009
0.237919
0.237851
0.242783
0.247692
0.257624
0.252602
0.257557
0.257489
0.262421
0.267376
0.262308
0.262217
0.257081
0.2569
0.246719
0.236516
0.23129
0.226086
0.210905
0.185724
0.175543
0.170339
0.170136
0.154932
0.139728
0.139547
0.129321
0.11914
0.103937
0.0986877
0.0933936
0.0930316
0.0926244
0.097104
0.101606
0.106199
0.101018
0.100995
0.111063
0.116222
0.116493
0.116991
0.112692
0.108665
0.115181
0.112489
0.110452
0.118665
0.122059
0.125543
0.128937
0.137149
0.14509
0.142805
0.14509
0.136742
0.13733
0.1419
0.13543
0.128167
0.120136
0.121652
0.112964
0.104118
0.0952715
0.0914027
0.0876697
0.0790724
0.0707466
0.0576923
0.0499774
0.0426018
0.0355204
0.028733
0.0271719
0.0258371
0.0196833
0.0186878
0.0128054
0.00701357
0.00631221
0.000588223
0.00486425
0.00916289
0.0135068
0.00782805
0.00217194
-0.0035068
-0.00416291
-0.00981901
-0.0154525
-0.00608598
-0.00667422
-0.00226245
-0.0128733
-0.0234842
-0.024095
-0.0296606
-0.0402263
-0.0557692
-0.0613122
-0.0668552
-0.0724208
-0.0730091
-0.0685747
-0.054095
-0.0495701
-0.0450226
-0.0504751
-0.0508824
-0.0562443
-0.0665158
-0.0717421
-0.0719005
-0.0720136
-0.0720588
-0.0670815
-0.0620362
-0.0569005
-0.0567195
-0.0564706
-0.0561765
-0.0558145
-0.0504299
-0.0550226
-0.0496154
-0.0442082
-0.0438236
-0.0434616
-0.0431448
-0.0429186
-0.0427376
-0.0426018
-0.0424887
-0.0424661
-0.0375114
-0.0275566
-0.0326471
-0.0327829
-0.0280091
-0.0183032
-0.0036652
0.0109728
0.0406334
0.0402941
0.0199773
-0.0252942
-0.0655657
-0.0858598
-0.111109
-0.136312
-0.171516
-0.19172
-0.226946
-0.327172
-0.492353
-0.672534
-0.772738
-0.852896
-0.903032
-0.908167
-0.903281
-0.873348
-0.858348
-0.803371
-0.748371
-0.668394
-0.598371
-0.518281
-0.418213
-0.328167
-0.238122
-0.178032
-0.122964
-0.0779186
-0.0428733
-0.00782808
0.0222398
0.0423077
0.0523755
0.057466
0.0675113
0.0775113
0.0874434
0.0973755
0.107285
0.122195
0.127127
0.132081
0.136991
0.141833
0.156697
0.161606
0.166561
0.171561
0.186584
0.191629
0.196674
0.201765
0.206878
0.216991
0.217059
0.217127
0.227149
0.237172
0.237195
0.242195
0.247217
0.25224
0.252217
0.252127
0.261991
0.266855
0.271697
0.266538
0.271403
0.271312
0.271244
0.276176
0.266063
0.26595
0.250837
0.240656
0.230452
0.225249
0.220068
0.209887
0.199706
0.179525
0.174367
0.164208
0.149027
0.133846
0.123688
0.118529
0.108303
0.0980317
0.0976923
0.0972624
0.09181
0.0864253
0.0862443
0.091267
0.0964706
0.10181
0.102308
0.102986
0.103824
0.104864
0.11138
0.123643
0.136697
0.140249
0.139276
0.14862
0.153032
0.152217
0.151063
0.15957
0.162738
0.160543
0.162828
0.164593
0.165814
0.161471
0.156267
0.15
0.147647
0.139593
0.131018
0.127081
0.117964
0.108756
0.0946154
0.0905204
0.0816516
0.0729638
0.0596154
0.0465385
0.0438009
0.0414706
0.0345023
0.0278959
0.0265385
0.0254299
0.0194796
0.0186425
0.0129412
0.00735293
0.00183257
-0.0136652
-0.00914028
-0.00461539
0.00493212
-0.000542991
0.00402714
0.00364253
-0.00669684
-0.0120588
-0.00739818
0.00226245
-0.00307692
-0.0183484
-0.0236199
-0.0288461
-0.0290724
-0.0392308
-0.0443891
-0.0595023
-0.0646154
-0.0697285
-0.0647511
-0.0547738
-0.0447737
-0.0397285
-0.0496154
-0.0544344
-0.0592081
-0.063914
-0.063552
-0.0631222
-0.0576471
-0.0620814
-0.061448
-0.060724
-0.0599548
-0.0541403
-0.0533032
-0.0473982
-0.0414027
-0.0404299
-0.044457
-0.0385294
-0.0376471
-0.03681
-0.0409955
-0.0402036
-0.0344344
-0.028733
-0.0281222
-0.0275792
-0.0220588
-0.021629
-0.0262896
-0.0210181
-0.0107692
0.00441175
0.0245475
0.0446606
0.0497738
0.0348416
-0.0101358
-0.0551131
-0.0950453
-0.124932
-0.159796
-0.194661
-0.219525
-0.269367
-0.374186
-0.533982
-0.698688
-0.793348
-0.883009
-0.922692
-0.937353
-0.906968
-0.876606
-0.841267
-0.785905
-0.730543
-0.640204
-0.559864
-0.459525
-0.36914
-0.278756
-0.208416
-0.148077
-0.0927149
-0.0573529
-0.0270136
0.0083258
0.0336425
0.0489367
0.0542081
0.0594796
0.0747511
0.0800453
0.0903394
0.0955656
0.105792
0.116063
0.126335
0.131629
0.131946
0.142308
0.15267
0.158077
0.163529
0.169005
0.17448
0.174842
0.185204
0.190566
0.205973
0.206357
0.206787
0.212262
0.222738
0.223213
0.22871
0.234253
0.234774
0.240226
0.235633
0.241018
0.241471
0.2469
0.242262
0.247511
0.252715
0.242896
0.243077
0.238326
0.238643
0.234005
0.219299
0.214502
0.204661
0.194819
0.180023
0.170249
0.160498
0.150701
0.135882
0.121041
0.116177
0.111312
0.0963801
0.0813801
0.0762896
0.0761991
0.0711765
0.0713349
0.071629
0.071991
0.0724208
0.0679412
0.0736426
0.0745023
0.0854978
0.08181
0.0887331
0.096448
0.104774
0.10862
0.11776
0.122104
0.131516
0.135928
0.145272
0.154321
0.157941
0.156041
0.153665
0.155814
0.157489
0.158665
0.154389
0.149548
0.148914
0.137262
0.134661
0.131471
0.127692
0.12362
0.109389
0.105249
0.101199
0.0972625
0.0935068
0.0899774
0.0868326
0.0840045
0.0715837
0.0645249
0.0678733
0.0614932
0.0553394
0.0493891
0.0485747
0.0478733
0.0472624
0.0467421
0.0412443
0.0407692
0.0352715
0.024819
0.0143665
0.0189366
0.0184842
0.00803167
0.00262443
-0.00776018
-0.0131222
-0.0235294
-0.0288914
-0.0392308
-0.0545475
-0.0648643
-0.0702036
-0.0605203
-0.0558597
-0.0511312
-0.0514027
-0.0516289
-0.0568552
-0.0670588
-0.0772398
-0.0823756
-0.0824887
-0.0825566
-0.0825792
-0.0825565
-0.077466
-0.0773303
-0.0921267
-0.0969004
-0.0866516
-0.0763574
-0.0709728
-0.0704977
-0.0650226
-0.0695023
-0.0739366
-0.0783484
-0.0727375
-0.0571719
-0.0515837
-0.0560181
-0.0654977
-0.0700452
-0.069638
-0.064276
-0.0590045
-0.0538009
-0.0486652
-0.0435294
-0.0284615
-0.00850679
0.0163801
0.0162443
-0.00391402
-0.0391176
-0.0693213
-0.0845475
-0.104774
-0.124977
-0.160226
-0.19043
-0.220611
-0.290747
-0.420928
-0.596086
-0.736199
-0.846267
-0.901335
-0.93138
-0.926403
-0.90638
-0.886357
-0.836312
-0.786267
-0.716199
-0.651131
-0.576086
-0.506041
-0.430973
-0.355905
-0.28086
-0.210837
-0.145814
-0.100814
-0.0657918
-0.0257918
-0.000814468
0.0191855
0.0291403
0.0391403
0.0491403
0.0641403
0.0691403
0.0741403
0.0841177
0.0940724
0.104027
0.103959
0.113959
0.123937
0.133914
0.138891
0.143869
0.158891
0.163914
0.173959
0.174005
0.184072
0.189118
0.194163
0.199253
0.209412
0.219593
0.219706
0.224796
0.224819
0.234796
0.234706
0.23957
0.239412
0.244231
0.254027
0.253846
0.25871
0.253597
0.258484
0.263348
0.26319
0.258032
0.257851
0.257624
0.252353
0.247059
0.241787
0.231516
0.221222
0.20595
0.195679
0.190362
0.189977
0.174638
0.159321
0.14405
0.133778
0.123529
0.108258
0.102964
0.092647
0.0873303
0.0770588
0.0718099
0.0715385
0.0712217
0.0708145
0.0702941
0.0796832
0.0790724
0.0785294
0.0731448
0.0829638
0.0930317
0.0932579
0.0936878
0.0992081
0.104774
0.105294
0.110814
0.111561
0.107851
0.114796
0.112195
0.109796
0.112579
0.120226
0.122353
0.118597
0.114095
0.113959
0.113394
0.107534
0.101357
0.0999095
0.0981674
0.101335
0.0943665
0.0873756
0.0853394
0.083371
0.0764932
0.0747738
0.0732127
0.0718326
0.0706561
0.0646833
0.0588688
0.0631674
0.0676018
0.0621267
0.0616968
0.0512443
0.0507918
0.050362
0.0499547
0.0495475
0.0541176
0.0587104
0.0483032
0.0478959
0.0374661
0.0370362
0.0316516
0.0262896
0.0259276
0.015543
0.0152262
0.0099095
0.00461538
-0.000723992
-0.00104073
-0.0113349
-0.0316516
-0.0419457
-0.0472398
-0.0424887
-0.0427602
-0.0380317
-0.0333258
-0.0285747
-0.0238236
-0.0290724
-0.0393439
-0.044638
-0.0548643
-0.0550679
-0.0552489
-0.0504299
-0.0455882
-0.0406787
-0.0457692
-0.0508597
-0.0509502
-0.0459728
-0.0409729
-0.0459729
-0.0459729
-0.0409955
-0.0409955
-0.0410181
-0.0460633
-0.0361086
-0.0361086
-0.0311312
-0.0361991
-0.0362896
-0.0364253
-0.0365611
-0.0367421
-0.0369457
-0.0321946
-0.0274661
-0.0277602
-0.0280995
-0.0284389
-0.0137783
0.0109276
0.0356335
0.0403394
0.0300453
-0.000248857
-0.0405204
-0.0807466
-0.095905
-0.116063
-0.136199
-0.166335
-0.191448
-0.221561
-0.286629
-0.426674
-0.591742
-0.726765
-0.80181
-0.871878
-0.911923
-0.926946
-0.906946
-0.881968
-0.851968
-0.811968
-0.776946
-0.701923
-0.621923
-0.5369
-0.466855
-0.386765
-0.311674
-0.236584
-0.176471
-0.126357
-0.0862217
-0.0460633
-0.010905
0.0142308
0.0343892
0.0445249
0.0546606
0.0648416
0.0700679
0.0802941
0.0955656
0.105837
0.111109
0.121357
0.126584
0.136765
0.141946
0.152172
0.162398
0.167647
0.177873
0.178054
0.18319
0.188326
0.198507
0.198665
0.203846
0.209005
0.219163
0.224344
0.224548
0.234729
0.234819
0.244864
0.244864
0.249842
0.254796
0.259774
0.259751
0.259774
0.264842
0.26991
0.279932
0.274932
0.26991
0.269887
0.264887
0.26491
0.254955
0.255023
0.250091
0.250091
0.235045
0.225
0.219977
0.21491
0.209819
0.194751
0.184683
0.179615
0.174525
0.16448
0.154457
0.14948
0.13948
0.139434
0.129389
0.124366
0.124344
0.124276
0.124208
0.119118
0.123959
0.123665
0.123348
0.113167
0.113303
0.123778
0.124457
0.125249
0.116041
0.116833
0.112579
0.113394
0.109434
0.116018
0.118213
0.12095
0.118982
0.117059
0.119548
0.116222
0.117081
0.117421
0.11224
0.111629
0.105656
0.104367
0.0928281
0.0909955
0.0839593
0.0767194
0.0745249
0.0674208
0.0605204
0.0537557
0.0472172
0.0408824
0.0347738
0.0338688
0.0231674
0.0176245
0.0171946
0.0219005
0.0166969
0.0165611
0.0114027
0.00624436
0.00110862
-0.00402713
-0.0141403
-0.0242308
-0.024276
-0.0193439
-0.0144117
-0.00450224
0.000429884
-0.00463799
-0.0147059
-0.0197285
-0.0247737
-0.0147737
-0.00979637
-0.014819
-0.0248416
-0.0298416
-0.0348416
-0.0348642
-0.0398869
-0.0498869
-0.0548869
-0.0599321
-0.0599548
-0.0599774
-0.0549321
-0.0448643
-0.0397964
-0.0396833
-0.0345475
-0.0393892
-0.0442308
-0.0490272
-0.0487783
-0.0484616
-0.0531222
-0.0527828
-0.0573756
-0.0569683
-0.0565159
-0.0560634
-0.0605656
-0.0500453
-0.0395023
-0.0339819
-0.0334842
-0.0279638
-0.0224208
-0.0219005
-0.0214254
-0.0210181
-0.0205883
-0.020181
-0.0248416
-0.0295475
-0.029276
-0.0190724
-0.018914
-0.0237783
-0.0236652
-0.013552
-0.00846155
0.00165158
0.0167421
0.0468778
0.0519909
0.0371041
-0.00780545
-0.0576923
-0.097534
-0.132376
-0.162172
-0.202014
-0.231855
-0.261719
-0.331561
-0.47138
-0.636154
-0.780928
-0.875679
-0.95043
-0.960181
-0.944932
-0.899683
-0.859412
-0.814118
-0.758846
-0.693529
-0.603167
-0.522783
-0.427443
-0.342127
-0.261833
-0.196538
-0.136244
-0.0959729
-0.0557014
-0.0253846
0.00490949
0.0301357
0.0453167
0.0504977
0.0556335
0.0707918
0.0759729
0.0811991
0.0863575
0.101471
0.111584
0.116719
0.121878
0.127036
0.137149
0.137262
0.147398
0.157557
0.16776
0.173032
0.178348
0.188597
0.188756
0.198891
0.199027
0.204208
0.209457
0.214706
0.21991
0.220068
0.230181
0.235317
0.24043
0.245475
0.255475
0.260498
0.26052
0.255498
0.250475
0.255498
0.25052
0.25052
0.24552
0.245498
0.240475
0.235407
0.230317
0.220226
0.215136
0.200023
0.194864
0.184706
0.17457
0.164412
0.154208
0.148982
0.13871
0.133371
0.122964
0.112624
0.112466
0.107466
0.112602
0.102805
0.103145
0.108643
0.109231
0.109955
0.116063
0.127919
0.125566
0.128778
0.132421
0.141312
0.140339
0.144299
0.143258
0.152217
0.155973
0.154412
0.152308
0.154638
0.156357
0.147534
0.14819
0.148303
0.147941
0.142149
0.130837
0.123733
0.120724
0.111923
0.102624
0.0929186
0.0881222
0.0783258
0.0686878
0.0592082
0.0548869
0.0407692
0.0219005
0.0133937
0.0102262
0.0124661
0.0100226
0.00294118
0.0011086
-0.000475116
-0.00692309
-0.0232579
-0.024457
-0.0155656
-0.0115611
-0.0125113
-0.0134389
-0.0243891
-0.0303167
-0.036267
-0.0271946
-0.0180996
-0.0240045
-0.0348643
-0.045724
-0.0515611
-0.0524434
-0.0633032
-0.0691629
-0.0699774
-0.0757466
-0.0814932
-0.0871719
-0.0778281
-0.0684389
-0.0690724
-0.074638
-0.0751584
-0.0856335
-0.0910407
-0.0914027
-0.0866516
-0.0818552
-0.0869683
-0.0869909
-0.0819004
-0.0767195
-0.0864706
-0.0861538
-0.0757919
-0.0704072
-0.0700226
-0.0645701
-0.059095
-0.0535973
-0.0530995
-0.0576018
-0.0521041
-0.046629
-0.0461765
-0.0507692
-0.0453846
-0.0400679
-0.039819
-0.0446154
-0.039457
-0.0343439
-0.0192987
0.000701338
0.0206561
0.0355656
0.0254298
-0.00977378
-0.0449548
-0.0751584
-0.0903394
-0.120588
-0.155837
-0.181063
-0.216312
-0.301538
-0.456765
-0.6319
-0.762059
-0.857217
-0.902376
-0.927511
-0.902647
-0.887783
-0.857919
-0.808032
-0.7531
-0.678213
-0.603371
-0.508507
-0.42362
-0.338756
-0.258891
-0.184027
-0.119163
-0.0743213
-0.0395249
-0.00470589
0.025181
0.0400679
0.0549095
0.0647059
0.0795023
0.089276
0.0940272
0.103801
0.11362
0.123416
0.133145
0.137851
0.142557
0.157353
0.157172
0.166991
0.17181
0.181652
0.196493
0.196312
0.206176
0.206131
0.211086
0.211018
0.220905
0.230747
0.240566
0.240385
0.240249
0.255204
0.255181
0.260136
0.260023
0.274887
0.279751
0.279548
0.279344
0.279163
0.283959
0.273733
0.273462
0.273258
0.278077
0.272896
0.262692
0.257489
0.247262
0.241991
0.221697
0.211425
0.201176
0.185905
0.165633
0.150385
0.145158
0.134887
0.124593
0.114321
0.109005
0.0986199
0.08819
0.0827149
0.0773077
0.0770588
0.0720136
0.0721493
0.0724661
0.0728959
0.0734389
0.0741403
0.0849548
0.0859502
0.087353
0.0895475
0.0974434
0.105928
0.109842
0.11905
0.123462
0.132715
0.131742
0.135407
0.138778
0.14681
0.149344
0.15138
0.157873
0.153869
0.159095
0.148281
0.146312
0.143439
0.139932
0.136063
0.126946
0.122805
0.11362
0.109525
0.0956109
0.0968778
0.0984389
0.0902941
0.0825566
0.0751358
0.0730769
0.0713122
0.0698869
0.0687104
0.067715
0.0568326
0.041086
0.0354525
0.0398417
0.0442987
0.0437783
0.0433032
0.0428281
0.0323077
0.0218552
0.0164254
0.0160407
0.0156561
0.0152941
-6.78599e-05
-0.00540722
-0.0107466
-0.011086
-0.0164027
-0.0216968
-0.0319457
-0.0422172
-0.052466
-0.0476923
-0.0429185
-0.0331448
-0.0333258
-0.0334163
-0.0384615
-0.0384842
-0.0485068
-0.0584615
-0.0633484
-0.0581674
-0.0579638
-0.0576697
-0.052285
-0.0568552
-0.0613801
-0.0608597
-0.0602715
-0.0546606
-0.0590045
-0.0533032
-0.0525565
-0.0517647
-0.0509728
-0.055181
-0.0494118
-0.0436199
-0.0428959
-0.0422172
-0.0415837
-0.0409955
-0.0404751
-0.0400452
-0.039638
-0.034276
-0.0290045
-0.0138009
0.00133485
0.016448
0.0315158
0.0215611
-0.0134163
-0.0633937
-0.0983937
-0.133394
-0.158394
-0.188416
-0.218416
-0.238394
-0.278326
-0.373258
-0.543167
-0.693054
-0.807919
-0.882738
-0.927579
-0.957376
-0.932127
-0.91681
-0.871516
-0.836222
-0.775882
-0.695543
-0.620204
-0.524864
-0.44948
-0.364095
-0.28871
-0.208348
-0.137986
-0.0925792
-0.0571719
-0.0267873
0.0035973
0.0290045
0.0393892
0.0497738
0.0651358
0.0755656
0.0860407
0.0914932
0.1069
0.112285
0.12767
0.1281
0.138552
0.14405
0.154548
0.16
0.165362
0.175724
0.176176
0.181719
0.187285
0.197873
0.213484
0.209072
0.214683
0.215317
0.225928
0.226538
0.232127
0.242624
0.243077
0.253484
0.253891
0.259321
0.264774
0.270204
0.275611
0.271018
0.276448
0.276878
0.27733
0.267783
0.268258
0.26371
0.264118
0.264457
0.249751
0.240045
0.235362
0.230679
0.215995
0.206357
0.196674
0.186946
0.177217
0.162511
0.152805
0.143054
0.138303
0.123552
0.113824
0.109072
0.104276
0.0945249
0.089819
0.0900679
0.0902262
0.0852715
0.0802489
0.085181
0.085181
0.0853167
0.0956561
0.101199
0.111946
0.107896
0.10905
0.110452
0.1119
0.113394
0.115136
0.117489
0.120475
0.128778
0.12733
0.125905
0.129412
0.132624
0.130226
0.126946
0.127783
0.122941
0.127443
0.121448
0.109932
0.0981448
0.0960634
0.0938009
0.0813801
0.0839593
0.0816968
0.0795701
0.0726923
0.0659955
0.0695701
0.0633937
0.0625113
0.0519004
0.0514706
0.0561765
0.0509728
0.0458371
0.0457692
0.0457014
0.0406561
0.0306335
0.0256335
0.0256561
0.0307014
0.0307692
0.0308371
0.0209276
0.0160181
0.00608598
0.00613123
0.0061991
0.011267
0.00633485
-0.00859728
-0.023552
-0.0284842
-0.0333937
-0.0382805
-0.0431448
-0.0580769
-0.0679864
-0.0628959
-0.0628054
-0.0577376
-0.0526471
-0.0474887
-0.0423529
-0.0422172
-0.0521267
-0.0620362
-0.0668778
-0.0716968
-0.0814706
-0.081267
-0.0759728
-0.0706787
-0.0704072
-0.0751357
-0.0748416
-0.0645249
-0.0591855
-0.0587783
-0.0633937
-0.0629864
-0.0625792
-0.0621493
-0.066742
-0.0613348
-0.0559502
-0.0555882
-0.0602488
-0.0549773
-0.0497285
-0.0445022
-0.0442986
-0.0491629
-0.0440498
-0.0389819
-0.0439819
-0.0490271
-0.039095
-0.0191402
0.0057919
0.0207014
0.0306109
0.015543
-0.0145022
-0.0545475
-0.0945475
-0.124502
-0.154412
-0.184366
-0.224321
-0.244253
-0.289163
-0.394072
-0.563982
-0.738869
-0.83371
-0.918529
-0.953371
-0.958235
-0.933054
-0.892873
-0.867715
-0.822579
-0.787421
-0.717285
-0.652149
-0.566991
-0.481855
-0.401742
-0.316606
-0.246493
-0.186425
-0.141312
-0.0961991
-0.056086
-0.0209728
0.00411766
0.0242534
0.0393665
0.0495023
0.0546154
0.0597512
0.0699321
0.0850905
0.0952036
0.105294
0.110407
0.12052
0.125611
0.130701
0.130814
0.140973
0.146086
0.156199
0.156267
0.171357
0.181425
0.186493
0.191584
0.196742
0.206923
0.212059
0.212149
0.212217
0.21724
0.22724
0.237172
0.237014
0.236833
0.246652
0.251493
0.251403
0.246358
0.251357
0.26138
0.27138
0.276335
0.266244
0.266131
0.260973
0.260792
0.245611
0.245453
0.250294
0.240113
0.23491
0.224683
0.21948
0.204299
0.194118
0.178937
0.173756
0.163552
0.153348
0.143122
0.137941
0.13276
0.127557
0.12733
0.122127
0.116878
0.116606
0.116267
0.110837
0.115385
0.125
0.124774
0.124729
0.11991
0.125249
0.125792
0.121561
0.122511
0.118507
0.11957
0.121018
0.118077
0.120747
0.128756
0.131878
0.130091
0.128167
0.130995
0.13319
0.12948
0.119819
0.119412
0.118281
0.116538
0.104389
0.101923
0.099276
0.0963801
0.088371
0.0852715
0.0872624
0.0743665
0.0667195
0.0593213
0.0521946
0.0553846
0.0538688
0.0476018
0.0464932
0.0455204
0.0396606
0.0389367
0.0332806
0.0326697
0.0271041
0.0215611
0.0160181
0.0104299
0.00988689
0.0143665
0.0188462
0.0133258
0.00780545
0.00233034
-0.00314478
-0.0086199
-0.0141176
-0.00457013
-0.00502262
-0.00545248
-0.0159276
-0.0213575
-0.0217421
-0.0271493
-0.0375565
-0.0479638
-0.0533258
-0.0586878
-0.0590724
-0.054457
-0.0548642
-0.0452036
-0.040543
-0.0458371
-0.0411312
-0.0463348
-0.0565158
-0.0617195
-0.0669005
-0.0670136
-0.0620136
-0.0619683
-0.0618552
-0.0617647
-0.0566063
-0.0614027
-0.0611538
-0.0609276
-0.0556335
-0.0502489
-0.0498869
-0.0445023
-0.0391402
-0.0387783
-0.0384615
-0.0431674
-0.0429412
-0.0377149
-0.0375566
-0.0374887
-0.0424887
-0.0374887
-0.0325113
-0.0325792
-0.032647
-0.0177149
-0.00782803
0.00705885
0.0219231
0.0317874
0.0216742
-0.0184163
-0.0635068
-0.103552
-0.118597
-0.13862
-0.173665
-0.20371
-0.228733
-0.273756
-0.398778
-0.573778
-0.738801
-0.843778
-0.898733
-0.958688
-0.948643
-0.938597
-0.903529
-0.873484
-0.838416
-0.768371
-0.693303
-0.593258
-0.508213
-0.413213
-0.33319
-0.253167
-0.183122
-0.128077
-0.078009
-0.0379185
-0.00785067
0.0222172
0.0422625
0.0572851
0.0623756
0.0675113
0.0776471
0.0927828
0.107896
0.112986
0.123077
0.133145
0.138213
0.143281
0.148371
0.163439
0.163484
0.173507
0.18362
0.193801
0.198982
0.19914
0.204321
0.209548
0.214774
0.215
0.220272
0.225543
0.235792
0.24095
0.241086
0.251222
0.256357
0.261448
0.261539
0.266652
0.271765
0.271855
0.281968
0.277081
0.28724
0.277421
0.277602
0.267805
0.267986
0.273122
0.263235
0.253326
0.238416
0.238507
0.228597
0.223665
0.208733
0.193824
0.183869
0.173914
0.158959
0.144027
0.139095
0.129186
0.124299
0.119412
0.11448
0.109502
0.109434
0.104276
0.109072
0.118914
0.123959
0.119186
0.119638
0.125249
0.126018
0.121946
0.128032
0.129276
0.13586
0.133145
0.13629
0.144977
0.148937
0.142941
0.141991
0.145905
0.154615
0.152986
0.150995
0.148665
0.150747
0.146923
0.146855
0.135656
0.133575
0.130905
0.122624
0.114072
0.105339
0.106584
0.0928507
0.0841403
0.0756335
0.0773982
0.0745927
0.0721493
0.0650679
0.0633032
0.0568552
0.0506787
0.0447059
0.043914
0.0383032
0.0328054
0.0324208
0.0320814
0.0217647
0.0114706
0.00617646
0.00590496
0.0106787
0.0104977
0.0102941
0.0100679
0.00986424
0.00468325
-0.0054525
-0.00561088
-0.005724
-0.000882369
-0.0160181
-0.0261312
-0.031267
-0.0313801
-0.0414706
-0.0565159
-0.0615611
-0.0666063
-0.0666516
-0.0666968
-0.0617195
-0.0517195
-0.0516742
-0.0516064
-0.056448
-0.056267
-0.066086
-0.0758371
-0.080543
-0.075181
-0.0747964
-0.0742986
-0.0738009
-0.0732127
-0.0776018
-0.0769231
-0.0762217
-0.0754751
-0.0746832
-0.073914
-0.0731448
-0.0674208
-0.0666968
-0.0609728
-0.0602715
-0.0596154
-0.0540271
-0.0535068
-0.0530317
-0.052647
-0.0473303
-0.0520588
-0.0518326
-0.0466289
-0.0364253
-0.0262896
-0.0111991
0.00891404
0.0239819
0.0140498
-0.0308597
-0.075724
-0.120566
-0.150407
-0.185249
-0.220091
-0.239932
-0.264729
-0.324502
-0.464253
-0.644005
-0.773756
-0.873484
-0.928213
-0.977964
-0.962715
-0.937421
-0.897104
-0.84681
-0.796493
-0.711222
-0.63595
-0.535701
-0.45043
-0.360204
-0.284977
-0.209751
-0.139548
-0.0893439
-0.0491629
-0.0239367
0.00624432
0.0314479
0.0466516
0.0518778
0.057104
0.0723303
0.0825339
0.0927375
0.102941
0.113145
0.123303
0.123507
0.128688
0.133869
0.144095
0.154344
0.15457
0.159751
0.164977
0.170226
0.175543
0.185905
0.20129
0.206674
0.207036
0.202376
0.212647
0.217896
0.2281
0.233326
0.238552
0.253801
0.25405
0.249276
0.24448
0.249615
0.254728
0.254819
0.259932
0.260045
0.265136
0.260249
0.255339
0.245452
0.245543
0.250633
0.235656
0.230633
0.220611
0.215611
0.200633
0.195633
0.185611
0.170566
0.155475
0.140407
0.130339
0.125271
0.120158
0.110023
0.104887
0.104774
0.0945701
0.094276
0.0888688
0.0884389
0.0931222
0.0929864
0.0980317
0.0982126
0.103552
0.103982
0.104547
0.100249
0.111109
0.117262
0.114072
0.121765
0.130249
0.139118
0.1381
0.131946
0.135611
0.144005
0.147104
0.144864
0.142308
0.139434
0.14095
0.136471
0.135792
0.134208
0.13181
0.123846
0.115339
0.101629
0.0978281
0.0940272
0.0802489
0.0815385
0.0780995
0.0749774
0.0672851
0.0649321
0.0629412
0.0612443
0.0598642
0.053733
0.0527828
0.0469909
0.046267
0.0356561
0.0301131
0.0296154
0.029095
0.0285746
0.0280769
0.0275792
0.0221041
0.0166742
0.0212443
0.0108145
0.0103393
0.00484162
-0.0056335
-0.011086
-0.0165159
-0.0169457
-0.0323982
-0.0378733
-0.0483937
-0.0588914
-0.0643665
-0.0647738
-0.060181
-0.0605883
-0.0560407
-0.0514932
-0.0419457
-0.0423982
-0.0577828
-0.0731448
-0.0784163
-0.0737104
-0.0790272
-0.0792986
-0.0795475
-0.0797511
-0.0849321
-0.085
-0.0750226
-0.0699774
-0.0649095
-0.0698416
-0.0697737
-0.0696606
-0.064457
-0.064276
-0.0690724
-0.0688914
-0.0737104
-0.068552
-0.0633937
-0.0582579
-0.05319
-0.05819
-0.0582579
-0.058371
-0.0484841
-0.0436425
-0.0438461
-0.044095
-0.0243213
0.000361998
0.0250226
0.0296606
0.00932129
-0.0309955
-0.0713122
-0.101606
-0.1319
-0.157149
-0.187421
-0.212692
-0.237964
-0.293167
-0.423326
-0.598529
-0.758688
-0.853824
-0.923914
-0.939027
-0.944186
-0.914321
-0.884412
-0.844525
-0.794661
-0.749796
-0.674932
-0.595045
-0.510181
-0.440294
-0.360385
-0.290475
-0.220588
-0.160724
-0.115882
-0.0760181
-0.0311539
0.00368777
0.0285973
0.0335294
0.0384615
0.0483937
0.0583484
0.0683258
0.0733032
0.0882353
0.0981448
0.103054
0.113009
0.117964
0.127873
0.132783
0.142692
0.147579
0.157466
0.167398
0.172353
0.17233
0.182285
0.192262
0.20224
0.212262
0.212308
0.217308
0.222285
0.22224
0.232149
0.241946
0.256697
0.256403
0.261086
0.260814
0.265566
0.265339
0.270136
0.279955
0.284796
0.294638
0.284502
0.284299
0.279005
0.283688
0.283416
0.268145
0.267851
0.262534
0.257217
0.236878
0.226538
0.216244
0.20595
0.200701
0.19043
0.180158
0.164864
0.154593
0.144344
0.139072
0.133778
0.123439
0.1181
0.112783
0.112421
0.111991
0.111471
0.110882
0.105317
0.10991
0.109729
0.114751
0.109887
0.120204
0.125747
0.126538
0.122443
0.123394
0.124457
0.125995
0.128145
0.125769
0.133665
0.136719
0.134796
0.132692
0.130271
0.137081
0.132964
0.132896
0.127104
0.125611
0.123665
0.116335
0.108756
0.11095
0.107964
0.0999321
0.0918778
0.0839819
0.0812896
0.0738462
0.066629
0.0647285
0.0630769
0.0617421
0.0556335
0.0496606
0.0488235
0.0431448
0.0326244
0.0271719
0.0266968
0.0211991
0.015724
0.0102715
0.00984162
0.0193891
0.0189593
0.0185747
0.00316741
0.00276017
0.00235293
-0.00300906
-0.00337104
0.00126696
0.000904971
-0.0094344
-0.0147511
-0.0250905
-0.0254525
-0.0257692
-0.0359955
-0.0461991
-0.0564027
-0.056629
-0.0568552
-0.0570588
-0.0472851
-0.0374661
-0.0325792
-0.0326244
-0.0376697
-0.0527149
-0.0576923
-0.0576244
-0.0625339
-0.0623982
-0.0621946
-0.0519231
-0.0565611
-0.0562217
-0.0508371
-0.0504072
-0.0549095
-0.0593665
-0.0538235
-0.0482353
-0.0476244
-0.0470136
-0.0464253
-0.0458597
-0.0403167
-0.044819
-0.0443439
-0.0438914
-0.0385068
-0.03819
-0.0429638
-0.0427828
-0.0376244
-0.0325113
-0.0274434
-0.0274208
-0.0123982
0.00760182
0.0226244
0.0376471
0.0326923
0.00771494
-0.0372398
-0.0821946
-0.107104
-0.127014
-0.151878
-0.181719
-0.201538
-0.231357
-0.296199
-0.441041
-0.605837
-0.740611
-0.825407
-0.890158
-0.919887
-0.904593
-0.889321
-0.849072
-0.818756
-0.768439
-0.7031
-0.617738
-0.532376
-0.451991
-0.366629
-0.286267
-0.20586
-0.14543
-0.095
-0.0546154
-0.0192534
0.0111312
0.0315385
0.0419457
0.0573529
0.0577602
0.0681901
0.0835747
0.0938914
0.104208
0.104525
0.114842
0.125136
0.13543
0.140701
0.145928
0.151131
0.161335
0.171629
0.171946
0.182285
0.192579
0.197919
0.198303
0.203643
0.213959
0.219276
0.224593
0.229842
0.240045
0.245204
0.245407
0.235656
0.24086
0.251041
0.256199
0.261335
0.261471
0.266561
0.266742
0.261968
0.262195
0.262421
0.267602
0.252715
0.247805
0.242873
0.237919
0.232964
0.223009
0.213077
0.2081
0.198122
0.183167
0.17319
0.163213
0.148235
0.138281
0.128348
0.123394
0.108416
0.103371
0.0982353
0.0980317
0.0977602
0.092534
0.0974434
0.0975792
0.107919
0.108394
0.109005
0.114796
0.115747
0.121855
0.118281
0.125407
0.123439
0.127195
0.126471
0.13095
0.135407
0.13957
0.138326
0.136765
0.139864
0.142647
0.13991
0.136652
0.142805
0.143281
0.13267
0.125973
0.123348
0.115158
0.106516
0.0925792
0.0885973
0.0845701
0.0706787
0.0618552
0.0532127
0.0398416
0.0368326
0.0291629
0.0268326
0.0198416
0.0131674
0.00680997
0.000656115
0.00468326
0.00386878
-0.00178732
-0.0123529
-0.0178733
-0.0183484
-0.0187557
-0.0242081
-0.0196606
-0.0100452
-0.0104072
-0.0157466
-0.0261086
-0.0264706
-0.0267873
-0.0271041
-0.0223982
-0.0226923
-0.0229412
-0.03319
-0.0384163
-0.0436652
-0.0488688
-0.0590272
-0.0691855
-0.0643439
-0.0594796
-0.0545249
-0.0545475
-0.0495249
-0.044457
-0.0443213
-0.0541403
-0.0639367
-0.063733
-0.0684842
-0.0731448
-0.0677602
-0.0672624
-0.0567195
-0.0661086
-0.0654299
-0.0597511
-0.0590271
-0.0532579
-0.0524208
-0.0516063
-0.0457918
-0.045
-0.0442308
-0.0434615
-0.0377149
-0.0319909
-0.0313122
-0.0306787
-0.0251357
-0.0296832
-0.034276
-0.0339593
-0.0336878
-0.0284615
-0.0232579
-0.0081448
0.0119231
0.0319457
0.0419457
0.0319683
0.00199095
-0.0429638
-0.0879638
-0.122919
-0.152851
-0.187783
-0.21767
-0.247579
-0.317443
-0.45733
-0.637172
-0.782036
-0.8819
-0.931765
-0.951629
-0.931471
-0.886312
-0.841154
-0.786041
-0.74095
-0.655837
-0.560724
-0.460611
-0.375475
-0.280339
-0.205226
-0.135113
-0.0949774
-0.0598642
-0.0247737
0.000316765
0.0254073
0.0354978
0.050543
0.0605882
0.0656335
0.0706335
0.0806335
0.0856335
0.0956561
0.105701
0.115724
0.130792
0.14086
0.145973
0.146131
0.156335
0.166561
0.166742
0.166923
0.177081
0.187195
0.187308
0.192466
0.19767
0.202896
0.2131
0.213303
0.223507
0.223733
0.228982
0.224208
0.234434
0.239638
0.244796
0.244955
0.245068
0.250136
0.250181
0.250226
0.240294
0.240362
0.235453
0.230543
0.225634
0.220724
0.215792
0.205792
0.200769
0.190724
0.185679
0.165656
0.155611
0.145588
0.130475
0.125317
0.115045
0.104683
0.0943665
0.0841629
0.0791176
0.0792534
0.0795023
0.0748643
0.0703394
0.0659955
0.0717873
0.0727602
0.0791176
0.0912217
0.094095
0.102466
0.106244
0.110226
0.114321
0.123348
0.132308
0.141222
0.15
0.14862
0.14681
0.149525
0.161629
0.163167
0.159208
0.159729
0.154751
0.159344
0.153597
0.152353
0.145317
0.14233
0.138597
0.129367
0.124864
0.115226
0.110611
0.101154
0.101878
0.102783
0.0938688
0.0853167
0.0771493
0.0743891
0.0719457
0.0649321
0.0582127
0.0517873
0.0504977
0.0493213
0.0383032
0.0373529
0.0364932
0.0356335
0.0298416
0.0240724
0.0232579
0.0224661
0.0166742
0.0109276
0.000180991
-0.000520365
-0.0162217
-0.0218552
-0.0274434
-0.0380543
-0.0536878
-0.0692987
-0.0648417
-0.0654073
-0.0609729
-0.0565158
-0.0520136
-0.0524887
-0.0629412
-0.0733484
-0.078733
-0.0790272
-0.0793213
-0.0845475
-0.0847285
-0.079819
-0.0798643
-0.0848416
-0.0797285
-0.0845475
-0.0792987
-0.0789819
-0.0835973
-0.0781674
-0.0776923
-0.0722172
-0.0767195
-0.0711991
-0.0656561
-0.0651131
-0.0695701
-0.0640498
-0.058552
-0.0580769
-0.0626471
-0.0622624
-0.0569457
-0.0516742
-0.0414706
-0.0313575
-0.00126696
0.0187783
0.013733
-0.0113575
-0.0464932
-0.0816516
-0.106833
-0.132014
-0.15724
-0.192489
-0.217738
-0.257964
-0.343213
-0.503439
-0.678597
-0.793733
-0.883846
-0.928982
-0.949118
-0.929231
-0.899321
-0.869367
-0.819389
-0.774366
-0.689344
-0.614367
-0.524366
-0.444344
-0.369299
-0.284276
-0.209253
-0.144253
-0.0992307
-0.0592081
-0.0241855
0.00583713
0.0258824
0.0359276
0.0459276
0.0559276
0.070905
0.0808824
0.0858371
0.100837
0.105882
0.110928
0.12095
0.130905
0.145815
0.145747
0.155679
0.160634
0.170588
0.180566
0.180566
0.190543
0.19552
0.205543
0.205588
0.210634
0.225701
0.225792
0.23595
0.231131
0.241335
0.241538
0.251742
0.251855
0.251923
0.261946
0.2669
0.27181
0.266674
0.271606
0.271561
0.276584
0.276652
0.271742
0.271833
0.266855
0.266833
0.25681
0.256787
0.251765
0.241697
0.226652
0.211629
0.206606
0.191538
0.181516
0.166471
0.151448
0.141403
0.131335
0.12129
0.111222
0.106176
0.0961086
0.086086
0.0810634
0.0760181
0.0759502
0.070905
0.0708824
0.0708371
0.0757014
0.0704977
0.070181
0.0748643
0.0795928
0.079457
0.0796606
0.0901584
0.0907692
0.0913348
0.0918778
0.0974208
0.0979864
0.103529
0.10414
0.100091
0.101674
0.108824
0.111018
0.107896
0.104231
0.105113
0.110543
0.110588
0.10543
0.105136
0.099819
0.0993213
0.0936878
0.0878959
0.0921041
0.0863122
0.0905204
0.0847737
0.0840724
0.0835294
0.0830995
0.0828054
0.0775566
0.0773756
0.0722398
0.0671719
0.0671267
0.0721041
0.0721041
0.0721041
0.0721041
0.0721041
0.0671041
0.0621493
0.0571719
0.0571719
0.0671719
0.0771946
0.0722398
0.0672851
0.0573303
0.0523982
0.0474434
0.0424887
0.0374887
0.0375339
0.0276018
0.0226923
0.0177602
0.00782803
0.00298641
-0.0119005
-0.0217421
-0.0316516
-0.0415611
-0.0414706
-0.0363348
-0.0312217
-0.0261312
-0.0209955
-0.0258597
-0.0307466
-0.0406561
-0.0455656
-0.0554525
-0.0603167
-0.060181
-0.0600679
-0.0549548
-0.0548416
-0.0597059
-0.0595928
-0.059457
-0.054276
-0.0591403
-0.0590498
-0.0590272
-0.0539593
-0.0589366
-0.0589366
-0.0589593
-0.0540045
-0.0540271
-0.0540724
-0.0491403
-0.0492534
-0.0493665
-0.0545023
-0.0496833
-0.0448642
-0.0450679
-0.0452262
-0.0453846
-0.040543
-0.0256787
-0.0107692
0.0191403
0.0240272
0.0239593
0.00391403
-0.0411086
-0.0861086
-0.116063
-0.131018
-0.160973
-0.195928
-0.225882
-0.245814
-0.285701
-0.395566
-0.56043
-0.725317
-0.820158
-0.91
-0.964842
-0.979706
-0.969548
-0.929344
-0.904095
-0.853869
-0.818665
-0.748462
-0.668235
-0.588032
-0.502828
-0.427579
-0.33733
-0.267059
-0.20181
-0.151584
-0.101335
-0.0660634
-0.0307692
-0.00549775
0.0197964
0.0350679
0.0503394
0.0556561
0.0609729
0.0713122
0.0866742
0.0970815
0.102511
0.107941
0.118394
0.128824
0.139231
0.144661
0.155091
0.15552
0.165928
0.166335
0.181719
0.192081
0.202421
0.202738
0.203077
0.208416
0.213756
0.21905
0.214276
0.224502
0.224729
0.234977
0.245181
0.245339
0.245498
0.250656
0.255814
0.25595
0.261063
0.271176
0.271267
0.27638
0.271493
0.271584
0.271674
0.271742
0.271742
0.266765
0.26181
0.256855
0.2519
0.236923
0.236968
0.231968
0.231923
0.216833
0.211765
0.206719
0.196674
0.186606
0.171561
0.166516
0.161471
0.161403
0.156335
0.151267
0.151199
0.146131
0.146063
0.135973
0.13086
0.130747
0.125611
0.12043
0.115249
0.120158
0.11509
0.115158
0.110339
0.105475
0.105543
0.105611
0.105769
0.105973
0.111176
0.106493
0.102262
0.0986652
0.0952715
0.101629
0.0976018
0.0982579
0.0935068
0.0933032
0.0879412
0.0823756
0.0717873
0.0709728
0.0749774
0.0688009
0.0625339
0.0612896
0.0550226
0.0488009
0.0426018
0.0415837
0.0407014
0.0449322
0.0392308
0.0336652
0.0281901
0.0278281
0.022534
0.0223303
0.0171494
0.00696836
0.0117874
0.00658374
0.00140275
-0.00875562
-0.0138914
-0.0190497
-0.0292307
-0.0293665
-0.0245022
-0.019638
-0.00979634
-0.0149321
-0.0151131
-0.0252715
-0.0254525
-0.0255882
-0.0256787
-0.0257918
-0.0309276
-0.041086
-0.0462217
-0.0413801
-0.0365611
-0.0417421
-0.0569004
-0.0720814
-0.0722851
-0.0724434
-0.0726471
-0.0678733
-0.0630543
-0.05319
-0.0433032
-0.0484163
-0.0484842
-0.063552
-0.068552
-0.0735747
-0.0785973
-0.0735973
-0.0585747
-0.0585068
-0.0634615
-0.068371
-0.0682579
-0.0631222
-0.0630317
-0.0578959
-0.0477375
-0.0375339
-0.0373529
-0.0472172
-0.0470588
-0.0419457
-0.0418552
-0.0418326
-0.04181
-0.0317873
-0.0317647
-0.0317647
-0.03681
-0.0318326
-0.0268778
-0.0219231
-0.0170136
-0.0170815
-0.00714932
0.0177376
0.0326018
0.0424661
0.0423756
0.0122851
-0.0328054
-0.0678959
-0.0980317
-0.128145
-0.163258
-0.203348
-0.238416
-0.293416
-0.413439
-0.593507
-0.748552
-0.858597
-0.938597
-0.963597
-0.963552
-0.918507
-0.898462
-0.843416
-0.798371
-0.723326
-0.633258
-0.558145
-0.468032
-0.392919
-0.307805
-0.232738
-0.16267
-0.112602
-0.0725339
-0.0324434
0.0026923
0.0228281
0.0379638
0.0480995
0.0582127
0.0632805
0.0733484
0.088371
0.0933484
0.103371
0.108416
0.118462
0.123439
0.133348
0.143258
0.143145
0.153054
0.162986
0.172964
0.178054
0.188145
0.193258
0.198371
0.203462
0.203507
0.218484
0.223462
0.228394
0.228281
0.238167
0.2481
0.243077
0.248054
0.252964
0.267805
0.267647
0.277489
0.28233
0.277172
0.272036
0.266946
0.271878
0.271765
0.271652
0.261471
0.261267
0.261018
0.255724
0.250475
0.240272
0.240068
0.224842
0.214593
0.204344
0.199072
0.188824
0.178597
0.168394
0.158213
0.162986
0.152647
0.152195
0.146719
0.146312
0.141086
0.136086
0.136267
0.136606
0.142104
0.137738
0.138507
0.139457
0.140814
0.132896
0.13586
0.144457
0.148643
0.148077
0.147579
0.146968
0.151018
0.149729
0.157941
0.155747
0.157986
0.154661
0.150701
0.141154
0.140973
0.144887
0.132715
0.124615
0.115837
0.106561
0.0920588
0.0824661
0.0780317
0.0686652
0.0594797
0.0454299
0.0366742
0.0283032
0.0202263
0.0125113
0.0101131
0.0130769
0.00631222
-0.000158366
-0.00144796
-0.00757918
-0.0135747
-0.0194344
-0.0252262
-0.0309955
-0.0267421
-0.0224661
-0.02319
-0.0188914
-0.0195475
-0.0252036
-0.0358371
-0.0414706
-0.0371267
-0.0277828
-0.0334163
-0.0390045
-0.0445928
-0.0451584
-0.0506787
-0.0661765
-0.0716516
-0.0771041
-0.0875339
-0.0829412
-0.0733032
-0.0586425
-0.058914
-0.054095
-0.0542308
-0.0593213
-0.0643439
-0.0692534
-0.0741403
-0.0739593
-0.0736878
-0.0732805
-0.0727828
-0.0722172
-0.0665611
-0.0658823
-0.0651583
-0.0594117
-0.0536425
-0.052828
-0.0519909
-0.0511991
-0.0454072
-0.0395928
-0.0437783
-0.0379864
-0.0372624
-0.0365385
-0.0358597
-0.0352489
-0.0247059
-0.0292081
-0.028733
-0.0233258
-0.0179864
-0.00771493
0.00757919
0.0328281
0.0430317
0.0282127
-0.0116063
-0.0614253
-0.091267
-0.126109
-0.160928
-0.195724
-0.22052
-0.255339
-0.340113
-0.494887
-0.689706
-0.819525
-0.924299
-0.96405
-0.968824
-0.94362
-0.898416
-0.86819
-0.792964
-0.732715
-0.637489
-0.547262
-0.447059
-0.3519
-0.266742
-0.186561
-0.126335
-0.0761312
-0.0358823
-0.00563348
0.0195928
0.0397738
0.0499095
0.0550453
0.070181
0.0853167
0.0954299
0.100543
0.110679
0.120769
0.125837
0.130928
0.146086
0.151244
0.16138
0.166561
0.176765
0.182014
0.187262
0.197511
0.202738
0.207964
0.213167
0.218326
0.223507
0.228733
0.233982
0.239208
0.254434
0.259706
0.265
0.265272
0.26552
0.270769
0.271018
0.276244
0.276403
0.281538
0.281629
0.281652
0.276697
0.271787
0.271946
0.257104
0.252285
0.242466
0.237624
0.222738
0.212828
0.202919
0.187986
0.173032
0.153077
0.148122
0.133145
0.123145
0.108054
0.0978507
0.0976244
0.0874434
0.0824661
0.0827376
0.0832127
0.0788462
0.074638
0.0755656
0.0816516
0.0828959
0.0795023
0.0867873
0.0949548
0.103733
0.102941
0.112376
0.121878
0.131312
0.135566
0.139729
0.153733
0.157511
0.160837
0.15862
0.160769
0.162376
0.158416
0.158937
0.154005
0.158688
0.148009
0.146787
0.144751
0.141697
0.132964
0.12371
0.119253
0.114729
0.105272
0.0959729
0.0867647
0.0828507
0.0791629
0.0758597
0.0729412
0.0754525
0.0633484
0.0565837
0.0501584
0.0439593
0.0279412
0.0220588
0.0212896
0.0206109
0.0250453
0.0245023
0.0189367
0.0134163
0.00796381
0.00253395
-0.00791854
-0.00334841
-0.00373302
-0.00909502
-0.0194796
-0.024819
-0.0251584
-0.0354525
-0.045724
-0.0610181
-0.066267
-0.0715158
-0.0717195
-0.0669004
-0.0570588
-0.0471719
-0.0472851
-0.0573529
-0.0673982
-0.0723529
-0.0772851
-0.0821267
-0.0769004
-0.0766063
-0.0762443
-0.0808371
-0.0803394
-0.0797964
-0.0791629
-0.0784841
-0.0727375
-0.0669457
-0.0661312
-0.0652941
-0.064457
-0.0635973
-0.0627828
-0.0619457
-0.0611539
-0.0553846
-0.0546833
-0.0590045
-0.0533711
-0.0478281
-0.047353
-0.0469683
-0.0416063
-0.0313122
-0.011086
0.0140498
0.0241176
0.0191855
-0.0258145
-0.0808371
-0.125837
-0.15586
-0.185905
-0.220995
-0.251063
-0.286086
-0.366109
-0.516154
-0.711177
-0.836131
-0.936063
-0.985996
-0.995928
-0.975814
-0.925701
-0.890543
-0.830362
-0.770113
-0.684864
-0.604638
-0.514457
-0.424299
-0.334095
-0.253914
-0.188733
-0.128575
-0.0833937
-0.0482127
-0.0230317
0.00712666
0.027285
0.0374434
0.0425791
0.0527149
0.0628506
0.073009
0.0831221
0.09319
0.103281
0.113394
0.118552
0.123733
0.133959
0.14414
0.149299
0.159457
0.169593
0.179706
0.184864
0.190068
0.185294
0.190566
0.200928
0.206312
0.206674
0.212014
0.222353
0.227647
0.227919
0.228145
0.238348
0.243529
0.248688
0.248869
0.249027
0.264185
0.259299
0.264389
0.264457
0.264525
0.264638
0.259796
0.264977
0.260113
0.260181
0.245226
0.245249
0.240226
0.230204
0.220226
0.205249
0.195249
0.180204
0.170181
0.155158
0.145113
0.135045
0.125
0.119977
0.109955
0.104932
0.0999095
0.0948869
0.0848416
0.0847059
0.0844344
0.084095
0.078733
0.0784389
0.0833258
0.0834163
0.0836878
0.084095
0.084638
0.0903846
0.0963801
0.102579
0.104072
0.111063
0.113665
0.111765
0.12009
0.123643
0.132149
0.130543
0.128665
0.131516
0.133801
0.135226
0.12552
0.124932
0.118575
0.121629
0.114321
0.116742
0.104027
0.096086
0.0880995
0.0851358
0.0873756
0.089819
0.0925113
0.0804751
0.0788009
0.0774208
0.076267
0.0753394
0.0645702
0.0639367
0.0683711
0.0679186
0.0625113
0.0621041
0.0616742
0.0612217
0.0507919
0.0553847
0.06
0.0546154
0.0492308
0.0388688
0.0335068
0.0281448
0.0278055
0.0274887
0.022172
0.0218778
0.0115611
-0.00373301
-0.0140498
-0.0193439
-0.0246606
-0.045
-0.0553167
-0.0556335
-0.0559502
-0.061267
-0.0615385
-0.0517873
-0.0420588
-0.0423529
-0.0476697
-0.0479638
-0.0532353
-0.0585068
-0.0687783
-0.0739819
-0.0741855
-0.0743665
-0.0745023
-0.079638
-0.0797285
-0.0747964
-0.0647964
-0.059819
-0.0647964
-0.0647738
-0.0596833
-0.0645475
-0.0694344
-0.0692987
-0.0641855
-0.059095
-0.0640724
-0.064095
-0.0591177
-0.0541855
-0.054276
-0.0544118
-0.0545475
-0.0547285
-0.0549321
-0.0551358
-0.0503846
-0.0306561
-0.000904994
0.0188461
0.0235746
0.00330314
-0.0319231
-0.0721494
-0.112376
-0.142602
-0.167783
-0.202964
-0.2381
-0.258213
-0.313281
-0.428326
-0.608326
-0.773303
-0.868326
-0.948303
-0.968303
-0.978258
-0.948235
-0.92319
-0.878122
-0.838054
-0.782987
-0.712941
-0.642873
-0.562828
-0.49276
-0.412692
-0.332579
-0.247489
-0.177443
-0.122421
-0.0823982
-0.0473303
-0.0122398
0.0178733
0.0279638
0.0430769
0.0582127
0.0683484
0.0785068
0.0836425
0.0938235
0.0990498
0.109276
0.119502
0.129706
0.144932
0.150136
0.155294
0.16052
0.170792
0.181063
0.18629
0.191493
0.196674
0.201855
0.207059
0.212285
0.217489
0.232692
0.237873
0.248032
0.24819
0.248371
0.258529
0.263552
0.268507
0.268439
0.273348
0.273235
0.273122
0.2781
0.283167
0.298235
0.298303
0.298348
0.298371
0.298371
0.298303
0.293235
0.29319
0.283145
0.283077
0.272986
0.262873
0.252783
0.252715
0.242647
0.227579
0.212534
0.197489
0.192398
0.177285
0.167172
0.162081
0.161991
0.161855
0.146719
0.146629
0.141561
0.141448
0.136312
0.136154
0.135928
0.130611
0.135204
0.129819
0.124615
0.124751
0.130204
0.125837
0.116516
0.122195
0.122851
0.123439
0.114118
0.115068
0.111584
0.11371
0.111312
0.109118
0.106606
0.103371
0.109253
0.104593
0.109321
0.103756
0.102851
0.0917647
0.0854299
0.0838688
0.0821041
0.075181
0.0681901
0.0661538
0.0641855
0.0573529
0.050724
0.0443213
0.0481674
0.0472398
0.0464706
0.0408145
0.0402715
0.0398416
0.0345249
0.0292308
0.0239366
0.0236878
0.0184389
0.0132127
0.0029638
-0.00228507
-0.00257919
-0.00785069
-0.00309955
-0.00834842
-0.00355205
-0.00375566
-0.0139367
-0.0191403
-0.0243213
-0.0194796
-0.024638
-0.0247738
-0.0299321
-0.0350679
-0.0402263
-0.0403846
-0.0405656
-0.0457014
-0.0557919
-0.0658824
-0.0759728
-0.076086
-0.0661538
-0.0612217
-0.056267
-0.0513122
-0.0513575
-0.0513575
-0.0614027
-0.0714253
-0.0714253
-0.0763122
-0.0711991
-0.0710633
-0.0708597
-0.0656109
-0.0702941
-0.075
-0.0746606
-0.0692986
-0.0688688
-0.0634389
-0.0630317
-0.0576018
-0.0521493
-0.0567194
-0.0613575
-0.0560407
-0.0507692
-0.0505204
-0.0502941
-0.0501357
-0.045
-0.0398869
-0.0397737
-0.0447059
-0.044638
-0.0345701
-0.0295022
-0.024457
-0.00941174
0.0106561
0.0307014
0.0307919
0.0108598
-0.0340497
-0.0839366
-0.118801
-0.148688
-0.183597
-0.218484
-0.243371
-0.293235
-0.378122
-0.537986
-0.707873
-0.83276
-0.932647
-0.977534
-0.997421
-0.967308
-0.942127
-0.886946
-0.84172
-0.776493
-0.706267
-0.626086
-0.530928
-0.445747
-0.355543
-0.270339
-0.190158
-0.124955
-0.0847285
-0.0495249
-0.0192986
0.0109276
0.0311765
0.0514706
0.06681
0.0771494
0.0874661
0.0928055
0.0980996
0.113371
0.11862
0.128869
0.134118
0.144367
0.15457
0.169729
0.174842
0.179955
0.190113
0.195272
0.200475
0.200724
0.21095
0.216199
0.221471
0.22681
0.227127
0.237421
0.237647
0.247805
0.252941
0.263077
0.268235
0.263416
0.273575
0.273688
0.278733
0.278801
0.283891
0.283982
0.284095
0.289231
0.279367
0.28948
0.289525
0.289525
0.27957
0.27957
0.27457
0.25957
0.24957
0.234593
0.234593
0.224593
0.209615
0.194638
0.184615
0.17957
0.164525
0.159525
0.154548
0.154525
0.149457
0.144344
0.144163
0.133891
0.13862
0.138462
0.143552
0.143891
0.139412
0.140068
0.135928
0.137014
0.138258
0.139751
0.1369
0.139955
0.138869
0.143303
0.137941
0.137489
0.141674
0.145543
0.144027
0.147127
0.149729
0.146878
0.143394
0.139163
0.138801
0.137262
0.129774
0.121493
0.112715
0.103643
0.0895701
0.0804751
0.0714932
0.0626471
0.0590498
0.0557466
0.0527376
0.0450905
0.0377828
0.0308598
0.0292987
0.0230317
0.0170136
0.0161312
0.00536202
-0.000316715
-0.000859698
-0.0113122
-0.0217194
-0.0270814
-0.0224208
-0.0277602
-0.0231221
-0.0235068
-0.0238461
-0.0241855
-0.0295022
-0.0348416
-0.0351583
-0.0304298
-0.0206561
-0.0258823
-0.0311086
-0.0363122
-0.0415158
-0.051742
-0.0569909
-0.0672172
-0.0773982
-0.0876018
-0.0877602
-0.0829185
-0.0730317
-0.0631448
-0.0632127
-0.06319
-0.0680995
-0.0779412
-0.0828054
-0.0825792
-0.0772851
-0.0819004
-0.076448
-0.0709502
-0.0704072
-0.069819
-0.0691629
-0.0635068
-0.0577375
-0.0569004
-0.0660407
-0.060181
-0.0543213
-0.0534389
-0.0526244
-0.0518778
-0.0511991
-0.0555204
-0.0598416
-0.0542534
-0.0437557
-0.0333258
-0.0329186
-0.0376244
-0.0373756
-0.0321493
-0.0269231
-0.0117195
0.00846154
0.0286425
0.0287783
0.00393665
-0.0459276
-0.0957692
-0.135566
-0.170362
-0.215136
-0.254955
-0.284751
-0.334548
-0.464344
-0.64414
-0.813937
-0.92871
-0.993484
-1.0183
-0.988168
-0.953009
-0.897851
-0.847715
-0.772579
-0.697443
-0.607308
-0.527195
-0.437104
-0.346991
-0.261878
-0.186787
-0.121719
-0.0766289
-0.0465384
-0.0164706
0.0135521
0.028552
0.0385294
0.0435068
0.0584842
0.0734842
0.0835068
0.0885068
0.0935068
0.108507
0.118507
0.128484
0.138484
0.148462
0.148462
0.148507
0.158529
0.163552
0.16862
0.178756
0.188891
0.199027
0.20414
0.209231
0.214299
0.224321
0.229344
0.229412
0.234548
0.239751
0.244932
0.250136
0.255317
0.265453
0.270543
0.275611
0.270633
0.280588
0.27552
0.275453
0.275407
0.27543
0.275498
0.260566
0.255634
0.245656
0.245588
0.235498
0.220407
0.205339
0.190249
0.185158
0.175091
0.165023
0.154955
0.144887
0.129819
0.114774
0.109638
0.0993665
0.0990498
0.0888235
0.088733
0.0938462
0.0941629
0.0946606
0.0852941
0.0910634
0.0969909
0.103077
0.10448
0.116448
0.124186
0.127624
0.131516
0.135724
0.14009
0.14457
0.148982
0.153235
0.162195
0.165701
0.158733
0.156222
0.153167
0.159502
0.155339
0.155679
0.155475
0.149321
0.147059
0.133801
0.129864
0.125498
0.125882
0.116335
0.111878
0.107624
0.103529
0.0997285
0.0912217
0.0880995
0.0852941
0.0778959
0.0758597
0.0741403
0.0727376
0.0615611
0.055543
0.0496154
0.0538009
0.0530769
0.0523982
0.0517421
0.051086
0.0454751
0.0349095
0.0343892
0.0288462
0.0283032
0.0227828
0.0222851
0.0168326
0.0113801
0.000995487
-0.00943438
-0.0148642
-0.0252941
-0.040724
-0.0511539
-0.0565159
-0.0518552
-0.047172
-0.0424887
-0.0378054
-0.0330996
-0.0383484
-0.0485747
-0.0588009
-0.0639819
-0.0641177
-0.0742308
-0.074276
-0.069276
-0.0691629
-0.0690045
-0.0687783
-0.0635068
-0.0681222
-0.0676697
-0.0671719
-0.0716289
-0.0710181
-0.0703394
-0.0696832
-0.0640271
-0.053371
-0.0527149
-0.0520814
-0.0515158
-0.0509954
-0.0455203
-0.0450679
-0.0446832
-0.0443891
-0.0441402
-0.0389593
-0.0388461
-0.0188235
0.00119912
0.0161765
0.00113124
-0.0289593
-0.0740498
-0.119095
-0.15914
-0.194185
-0.229299
-0.259389
-0.284434
-0.344457
-0.46948
-0.644457
-0.799389
-0.894299
-0.959186
-0.979095
-0.984005
-0.948891
-0.913778
-0.873665
-0.823507
-0.768303
-0.688145
-0.603032
-0.512919
-0.44276
-0.362579
-0.292421
-0.21224
-0.147081
-0.0969005
-0.0617873
-0.0316742
-0.00153849
0.0136425
0.0288009
0.0389593
0.0541403
0.0643212
0.0745249
0.0797059
0.0899095
0.0901357
0.100407
0.115701
0.120995
0.136312
0.146584
0.15681
0.161991
0.17224
0.177534
0.182828
0.188122
0.193394
0.198643
0.198891
0.20914
0.214389
0.224661
0.229932
0.230226
0.240543
0.235882
0.246222
0.246538
0.25681
0.261991
0.267059
0.262104
0.267081
0.272059
0.277081
0.282172
0.28233
0.282489
0.28267
0.282805
0.277873
0.272919
0.272964
0.262986
0.258009
0.243009
0.237986
0.227964
0.212964
0.197986
0.177964
0.167941
0.157919
0.142851
0.127783
0.117715
0.112624
0.102579
0.102579
0.0975566
0.0975114
0.0924887
0.0874435
0.0873982
0.0923303
0.10224
0.102081
0.10681
0.106493
0.111244
0.106244
0.106516
0.112059
0.11267
0.113303
0.108914
0.109434
0.10991
0.115385
0.116109
0.112443
0.114389
0.116561
0.118484
0.114864
0.110588
0.10586
0.110679
0.110204
0.104502
0.103756
0.102896
0.09681
0.0855656
0.0841403
0.0877149
0.0813348
0.0750226
0.0637104
0.0675565
0.0615611
0.0607918
0.0551584
0.059638
0.0591855
0.0538461
0.0486199
0.0484163
0.0482126
0.043009
0.042828
0.0376244
0.0374208
0.0322398
0.0270588
0.0118552
0.00662893
0.00647057
0.00128957
0.00115382
0.00601807
0.0109049
0.000814445
-0.00927605
-0.00936655
-0.00947967
-0.00457016
-0.00466066
-0.0147738
-0.0149095
-0.02
-0.0250679
-0.0301358
-0.0352036
-0.0452941
-0.055362
-0.0654751
-0.070543
