ekg
0
1.86265e-09
-0.005
-0.000714285
-0.00166667
0.00090909
-0.00923077
-0.009
-0.0141176
-0.0142105
-0.0102381
-0.00282609
-0.007
-0.017037
-0.0168965
-0.0198387
-0.0224242
-0.0252857
-0.0289189
-0.0283333
-0.025
-0.0205814
-0.00977778
0.01
0.0279592
0.0486275
0.0686792
0.0795455
0.0756141
0.0568644
0.0463934
0.0404762
0.0384615
0.0355224
0.0323188
0.0390141
0.0359589
0.0380667
0.0501948
0.0720253
0.0937037
0.0857831
0.0282941
-0.0541379
-0.126742
-0.179396
-0.222097
-0.274789
-0.33232
-0.384697
-0.421881
-0.428883
-0.415762
-0.367336
-0.313624
-0.25955
-0.195177
-0.125783
-0.0713675
-0.0518067
-0.0471901
-0.0424797
-0.0276
-0.00751968
0.0126357
0.0327863
0.042782
0.0477408
0.0577007
0.0626259
0.0621631
0.0615035
0.0555862
0.0543197
0.0578523
0.0565232
0.0602941
0.069
0.0777389
0.0814465
0.0852484
0.0743558
0.0687273
0.0582934
0.0582544
0.0584795
0.0637283
0.0740857
0.0746045
0.0801117
0.0856077
0.0910383
0.0914054
0.0968449
0.0973545
0.0927749
0.0981606
0.0935898
0.093934
0.0892211
0.089403
0.0844828
0.0843903
0.0849517
0.0816747
0.0795498
0.0734742
0.0727442
0.0717972
0.064863
0.056629
0.0476697
0.0484842
0.0491177
0.0496154
0.0499774
0.0502263
0.045362
0.0404525
0.0404751
0.0404525
0.0354299
0.0354299
0.0303846
0.0202715
0.0151358
0.00997742
0.00975118
0.0045023
0.0042308
0.00895932
0.0136878
0.0184163
0.0181448
0.017896
0.0176697
0.0174661
0.0173077
0.0221493
0.0419231
0.0515611
0.0561312
0.0656787
0.0752489
0.0848417
0.0994118
0.114005
0.118552
0.1281
0.117715
0.112489
0.107421
0.112353
0.117059
0.116403
0.11543
0.114231
0.117851
0.116222
0.114321
0.102217
0.0849774
0.0777376
0.0605882
0.0536878
0.0470362
0.0306561
0.0145701
-0.00617647
-0.0166516
-0.0219909
-0.0222624
-0.0224434
-0.0275339
-0.0375566
-0.0474661
-0.0472851
-0.0470362
-0.0467647
-0.0464706
-0.0461312
-0.0407919
-0.0404299
-0.0351131
-0.0348416
-0.0395701
-0.0443213
-0.0490271
-0.0486878
-0.0433032
-0.0379412
-0.0375792
-0.0372624
-0.0419683
-0.0417195
-0.0365158
-0.0313122
-0.0311538
-0.0260181
-0.0209502
-0.0159276
-0.0109276
-0.0059276
0.00909503
0.00914028
-0.0308371
-0.0858824
-0.150928
-0.210995
-0.271063
-0.341109
-0.401131
-0.446176
-0.466199
-0.471199
-0.466222
-0.441244
-0.386312
-0.321357
-0.246357
-0.186335
-0.14129
-0.106222
-0.081086
-0.0559276
-0.0357692
-0.0156335
-0.00549773
-0.00036199
0.00481901
0.0100226
0.0102036
0.010362
0.015543
0.0206561
0.025724
0.0257919
0.0358824
0.0359729
0.0360407
0.036086
0.0411312
0.0461765
0.0512444
0.0563122
0.0564027
0.0564932
0.0515385
0.0515611
0.0565837
0.0667195
0.0719005
0.0721041
0.0673756
0.0627149
0.0681222
0.073552
0.0839593
0.0893213
0.0897964
0.0804299
0.0712896
0.0674208
0.0638461
0.065543
0.0675339
0.0697285
0.0720814
0.0795249
0.0869683
0.0842986
0.0813575
0.0781222
0.0746154
0.0707692
0.0716516
0.0672851
0.0676923
0.0629864
0.0581448
0.0481901
0.0381674
0.0230996
0.0179864
0.0227828
0.0175113
0.0171493
0.0117873
0.0114027
0.0159955
0.0105656
0.0101131
0.00468326
0.00927602
0.018914
0.0235294
0.0281222
0.0226923
0.0222172
0.0217195
0.0311991
0.0356335
0.0350452
0.0344796
0.0339819
0.0435068
0.0430543
0.0576244
0.072172
0.0866968
0.101199
0.110701
0.115249
0.109819
0.109502
0.114208
0.123733
0.128032
0.127036
0.125792
0.114299
0.107489
0.105407
0.0980995
0.0907013
0.0883032
0.0809502
0.0787783
0.0668778
0.0502715
0.0340271
0.0180769
0.00233031
-0.0132579
-0.0187557
-0.0191629
-0.0144796
-0.0146154
-0.019638
-0.0345928
-0.0394796
-0.0343439
-0.0342534
-0.0392308
-0.0291629
-0.0290724
-0.0339593
-0.0438462
-0.0437104
-0.0435973
-0.038552
-0.033552
-0.0285747
-0.0285294
-0.0284163
-0.0332353
-0.0330543
-0.0229412
-0.0179186
-0.0129412
-0.0179638
-0.0179864
-0.0180091
-0.0230769
-0.0282127
-0.0334389
-0.023733
-0.00402715
0.010724
-0.00450227
-0.0497059
-0.104955
-0.170249
-0.230543
-0.285882
-0.351244
-0.396606
-0.431923
-0.447195
-0.447398
-0.422557
-0.372738
-0.322919
-0.268077
-0.208213
-0.153326
-0.103394
-0.0684389
-0.0584389
-0.0483937
-0.0333032
-0.0232127
-0.0131448
-0.00316742
0.0117647
0.0166742
0.0265837
0.026448
0.0312443
0.0360181
0.0407692
0.0455204
0.0453167
0.040181
0.0351131
0.0400905
0.0400453
0.04
0.0449095
0.049819
0.0597285
0.0746606
0.0796606
0.0746606
0.054638
0.0496154
0.0496154
0.0495701
0.0545701
0.0646606
0.0747964
0.0799548
0.0751358
0.0754751
0.0660407
0.0618552
0.0628733
0.059095
0.0605656
0.0572851
0.0542534
0.0563801
0.0585521
0.0657014
0.0676471
0.0643665
0.0608598
0.0470362
0.0429638
0.0435973
0.0390045
0.0342082
0.0342308
0.0340724
0.0387783
0.0434163
0.0430769
0.0227602
0.00746607
-0.00285066
-0.0132579
-0.0137104
-0.00416288
0.0103394
0.0047964
0.00427604
0.00373304
0.00312218
0.00742083
0.0116968
0.0259955
0.0353168
0.0446833
0.0340724
0.0235068
0.0129412
0.012353
0.0267421
0.0411539
0.0505204
0.0548643
0.0641855
0.0685294
0.0779186
0.0872851
0.101629
0.120928
0.125272
0.124706
0.124208
0.118688
0.117986
0.117036
0.110769
0.114253
0.117489
0.115453
0.103235
0.0908824
0.0784842
0.0711312
0.068914
0.0619231
0.0501131
0.0385747
0.0272851
0.0162217
0.00540724
-0.00515838
-0.0205882
-0.035905
-0.0461312
-0.0513349
-0.0465158
-0.0416742
-0.0317421
-0.0367873
-0.0267647
-0.0167873
-0.01181
-0.00183258
-0.00683258
-0.01681
-0.0367647
-0.0466968
-0.0466516
-0.0365837
-0.0315385
-0.0265385
-0.0265611
-0.0266063
-0.0216516
-0.0316968
-0.0317647
-0.0269231
-0.0272624
-0.0226697
-0.0130543
-0.00841629
-0.013733
-0.00895928
0.000837103
0.00565611
-0.0245928
-0.0798643
-0.135226
-0.175656
-0.211109
-0.261606
-0.317036
-0.372443
-0.417783
-0.433077
-0.428348
-0.388575
-0.343778
-0.293937
-0.22905
-0.174163
-0.119253
-0.0843213
-0.0544118
-0.0295475
-0.00468326
0.010181
0.0201131
0.0151584
0.0152715
0.0102941
0.0102262
0.0150905
0.0198869
0.0246606
0.034457
0.0392986
0.044095
0.0488914
0.0586878
0.0684842
0.073371
0.0682805
0.0682579
0.0632579
0.0633032
0.0533032
0.0532353
0.0531448
0.0580543
0.063009
0.0780317
0.0880995
0.08819
0.0832805
0.073371
0.0734615
0.0736425
0.079095
0.0798869
0.0809502
0.0822172
0.0737104
0.0704299
0.0723756
0.0794344
0.0765385
0.0786878
0.0757919
0.0728054
0.0695701
0.0660407
0.0571493
0.0530091
0.0536652
0.0641629
0.0594796
0.0646833
0.0697738
0.0647738
0.0447059
0.0245249
0.00923078
0.00382354
0.00834842
0.0128054
0.0173077
0.01181
0.0113575
0.00588235
0.0154525
0.0200679
0.0246606
0.024276
0.0238462
0.018371
0.00782806
0.00723982
0.00662896
0.0110181
0.0204299
0.0298643
0.0393213
0.0487783
0.0632806
0.0727376
0.0871946
0.106674
0.116109
0.110566
0.105045
0.0995701
0.0890724
0.0936199
0.0931901
0.10276
0.10724
0.116493
0.12552
0.129367
0.1331
0.116606
0.104864
0.0828507
0.0706109
0.0633484
0.0561539
0.0492308
0.032534
0.016086
-2.26097e-05
-0.0108823
-0.0164706
-0.0169004
-0.0121719
-0.0123303
-0.0123756
-0.0223529
-0.0422851
-0.0572398
-0.0572172
-0.0522172
-0.0472172
-0.0421719
-0.0370814
-0.0319457
-0.0267421
-0.0214932
-0.0211991
-0.0208823
-0.020543
-0.0352036
-0.0348642
-0.0345701
-0.0293213
-0.0291403
-0.0289819
-0.023914
-0.0288688
-0.0288688
-0.023914
-0.0239819
-0.0240271
-0.0239819
-0.0139366
-0.00891402
0.00104073
-0.00902714
-0.054095
-0.109186
-0.164299
-0.209434
-0.25957
-0.314728
-0.36491
-0.390045
-0.405136
-0.410204
-0.395249
-0.375271
-0.330294
-0.275294
-0.205272
-0.155226
-0.110136
-0.08
-0.0497964
-0.0345928
-0.0192987
-0.00893666
-0.00355205
0.0117647
0.0219909
0.0321493
0.0372624
0.0473756
0.0424887
0.0475792
0.0476697
0.0477375
0.0478054
0.0479412
0.0581448
0.0633937
0.0686425
0.068914
0.0641629
0.0643439
0.0695022
0.079638
0.0797737
0.0799321
0.0751357
0.0754072
0.0707466
0.0711765
0.0716742
0.0722172
0.082828
0.0834389
0.0889366
0.0843439
0.084819
0.0804751
0.0865158
0.0928959
0.084638
0.0816968
0.0790271
0.0815385
0.0741855
0.0769005
0.0795023
0.0868552
0.093914
0.0856561
0.0770362
0.0580769
0.0538688
0.0495249
0.0400679
0.0404977
0.0357919
0.0359729
0.031086
0.0311539
0.0311991
0.0312217
0.0311765
0.0310181
0.0357692
0.0354525
0.0351131
0.0297511
0.0244344
0.0191855
0.0139819
0.00884616
0.00373304
0.00359729
0.0084163
0.0181901
0.0228733
0.0275339
0.0371719
0.0468326
0.0515158
0.0612217
0.0659276
0.0755882
0.0902489
0.0999095
0.10957
0.0992534
0.0989367
0.0986425
0.103348
0.1081
0.107851
0.117421
0.121765
0.125882
0.124842
0.118597
0.117104
0.105385
0.0985747
0.0866742
0.0797511
0.0678959
0.0611539
0.049638
0.0384163
0.0225339
0.00692309
-0.00346153
-0.00868777
-0.0137556
-0.028733
-0.0386199
-0.0484615
-0.0533032
-0.0530543
-0.0527602
-0.0473982
-0.0419909
-0.0365158
-0.0260407
-0.0305656
-0.0250679
-0.0295701
-0.0340724
-0.0436199
-0.0481222
-0.0476018
-0.0520362
-0.051448
-0.045905
-0.0403846
-0.0348869
-0.0294118
-0.0239819
-0.0235973
-0.0282805
-0.0330317
-0.0378281
-0.0426471
-0.0374887
-0.0323529
-0.0221719
-0.00199095
0.0131674
-0.00669684
-0.0565837
-0.136471
-0.211312
-0.281109
-0.345973
-0.395882
-0.425815
-0.450747
-0.460701
-0.450634
-0.405498
-0.360294
-0.3
-0.224706
-0.154412
-0.104163
-0.0888914
-0.0785973
-0.0682805
-0.0479186
-0.0275566
-0.0121946
0.00316742
0.00850679
0.0138462
0.0191855
0.0245023
0.0297964
0.0451131
0.0554751
0.0658371
0.0611765
0.0514932
0.0467647
0.0370136
0.0372172
0.0423982
0.0526018
0.0628733
0.06819
0.0735294
0.0788914
0.0792986
0.0747511
0.0702489
0.0758145
0.0813801
0.0819683
0.0876018
0.0882579
0.0838688
0.0843665
0.089819
0.0953846
0.0962217
0.0873756
0.0837557
0.080362
0.0772624
0.0695475
0.0671267
0.0699095
0.0727376
0.0704977
0.0780995
0.0804299
0.0824887
0.0792534
0.075724
0.0669004
0.0628054
0.0534842
0.0489819
0.0443213
0.0395701
0.0347285
0.0297737
0.0297511
0.034638
0.0294796
0.0292986
0.0241176
0.0189366
0.0138009
0.00868778
0.0135973
0.00843892
0.00830317
0.00812217
0.0178959
0.0176244
0.0173303
0.0120362
0.00671945
0.0114253
0.0161538
0.0258823
0.0405882
0.0502941
0.06
0.0696833
0.0843439
0.0889593
0.0935747
0.0981674
0.102783
0.102421
0.102104
0.1119
0.111765
0.116584
0.111199
0.105475
0.0994118
0.103032
0.106357
0.104434
0.102353
0.0951584
0.0879638
0.0708597
0.0589819
0.0423077
0.0309276
0.0198869
0.0091629
-0.00128959
-0.0116516
-0.0269457
-0.0371946
-0.0423529
-0.0424434
-0.0475113
-0.0424887
-0.0423982
-0.0421719
-0.0368326
-0.031448
-0.0310407
-0.0405656
-0.0400905
-0.0396154
-0.0391629
-0.0337783
-0.0334163
-0.0281448
-0.0278959
-0.0326244
-0.0423077
-0.0419457
-0.0415837
-0.0412217
-0.0408371
-0.0404525
-0.0451131
-0.0498642
-0.044638
-0.039457
-0.0343439
-0.029276
-0.00925339
0.00570136
0.0156787
-0.00927602
-0.0641629
-0.12905
-0.179005
-0.218982
-0.278982
-0.359005
-0.424095
-0.474208
-0.484321
-0.479412
-0.449525
-0.399615
-0.344683
-0.289729
-0.229683
-0.17457
-0.124389
-0.0891629
-0.0639367
-0.0387104
-0.0235294
-0.0083258
0.00185519
0.00701356
0.0171946
0.0223982
0.0275565
0.0276923
0.0328054
0.0279185
0.0280317
0.0331448
0.0432805
0.0433936
0.0484841
0.0535746
0.0536651
0.0537556
0.0538235
0.0538461
0.0488461
0.0488914
0.0540045
0.0641855
0.069457
0.0747964
0.080181
0.0805882
0.0860407
0.0814932
0.0819231
0.0822624
0.0825113
0.0827602
0.0782127
0.0790271
0.0702036
0.0666063
0.06319
0.0649547
0.0669457
0.0691629
0.0764932
0.083914
0.0862217
0.0783484
0.0702262
0.0667647
0.0679638
0.0637556
0.0642986
0.0646833
0.0549774
0.050181
0.0452941
0.0452941
0.045181
0.05
0.0597964
0.0545475
0.0442986
0.0190271
-0.00126697
-0.00658371
-0.00687783
-0.00719457
0.00239819
0.0119457
0.0114706
0.0160181
0.0156335
0.0252715
0.0299774
0.0296832
0.0293665
0.0289593
0.0335294
0.0380769
0.0376018
0.0370815
0.0415158
0.055905
0.0652715
0.0797059
0.0941855
0.108733
0.118348
0.128054
0.122828
0.112647
0.102308
0.101697
0.105792
0.104661
0.103326
0.101674
0.104706
0.102511
0.100158
0.0928054
0.0904977
0.0883484
0.0814254
0.0747512
0.0483484
0.0271946
0.00131222
-0.0143213
-0.024819
-0.0302262
-0.0255656
-0.0358371
-0.0359955
-0.0360181
-0.0409502
-0.0408145
-0.0356561
-0.0304751
-0.0302941
-0.0350905
-0.0399095
-0.0447285
-0.0445023
-0.0442308
-0.0389819
-0.0387104
-0.0284616
-0.0282353
-0.0230317
-0.0178507
-0.0176697
-0.0225566
-0.0324887
-0.0374434
-0.0423982
-0.0473756
-0.0473982
-0.0424661
-0.0376018
-0.0327376
-0.0228959
0.00194571
0.0268326
0.0267195
-0.018371
-0.0884615
-0.168529
-0.213643
-0.258801
-0.304027
-0.359299
-0.404525
-0.424729
-0.444864
-0.419977
-0.385045
-0.335068
-0.27509
-0.210068
-0.135
-0.0899095
-0.0647964
-0.054638
-0.0445023
-0.0343439
-0.0241629
-0.00895927
0.00126698
0.00649322
0.0117421
0.0169457
0.0221267
0.0271719
0.0371267
0.0370588
0.0420136
0.0519909
0.0620136
0.0670814
0.0621267
0.0521493
0.0471719
0.0372172
0.0373077
0.0374434
0.0476018
0.0527602
0.0579412
0.0631674
0.0733937
0.0835973
0.0887783
0.0890045
0.0792534
0.0744796
0.0646832
0.0549547
0.0554525
0.056267
0.0573756
0.068733
0.0753394
0.0772398
0.0793891
0.0867195
0.099095
0.0914706
0.078733
0.0657466
0.0575113
0.0539819
0.0502036
0.0511765
0.0519231
0.0475339
0.0529864
0.0483258
0.0434842
0.0485294
0.0534842
0.063371
0.0632353
0.053009
0.0327602
0.0174661
0.0121267
0.0117647
0.0113801
0.0109955
0.0106335
0.0102715
0.00990949
0.00452488
0.00416289
0.00877827
0.00841628
0.0180317
0.0226923
0.0273529
0.0320136
0.0316742
0.041267
0.0508145
0.0602941
0.0697737
0.079276
0.0938009
0.108326
0.122828
0.127376
0.126946
0.126538
0.116222
0.115995
0.110747
0.105339
0.0996832
0.0987104
0.102557
0.111222
0.119661
0.107851
0.100814
0.0887104
0.0865158
0.0744344
0.0525113
0.0408371
0.0244796
0.0134389
0.00280543
-0.00260181
-0.0128733
-0.0180769
-0.0282127
-0.0383032
-0.043371
-0.0483937
-0.0433937
-0.038371
-0.0332806
-0.0381222
-0.0329186
-0.0326923
-0.0324208
-0.037172
-0.0419005
-0.0416063
-0.041267
-0.0359276
-0.0256561
-0.0255204
-0.0204525
-0.0254299
-0.0353846
-0.0403167
-0.0402036
-0.0400905
-0.045
-0.0449548
-0.0399548
-0.0299548
-0.0249548
-0.0199774
-6.78785e-05
0.0198416
0.0197285
-0.0204299
-0.080543
-0.150656
-0.215769
-0.28086
-0.345928
-0.395995
-0.436086
-0.446109
-0.446041
-0.416018
-0.361041
-0.306086
-0.246109
-0.191109
-0.136063
-0.0909502
-0.0657919
-0.0556335
-0.0504299
-0.0352262
-0.0250226
-0.014819
-0.00461539
0.00563349
0.015905
0.0211765
0.0314027
0.0365611
0.0416742
0.0517421
0.0568326
0.0519231
0.0469909
0.0420362
0.0420362
0.0369909
0.0419004
0.0418099
0.0467195
0.0467421
0.0468778
0.0521041
0.0573529
0.0725792
0.077828
0.0830995
0.0783937
0.0687104
0.0590498
0.0593891
0.0697059
0.0650679
0.0655882
0.0713575
0.0774208
0.0836878
0.0902262
0.0820136
0.0690271
0.0612443
0.0585973
0.0559728
0.0633258
0.0655204
0.0724434
0.069095
0.0704299
0.071448
0.0721493
0.0676018
0.0579638
0.0532353
0.0384389
0.0335294
0.0285068
0.0233937
0.0181901
0.0179186
0.0225792
0.0271946
0.0317873
0.0313801
0.0210181
0.0106561
0.00529411
0.00493212
0.00457013
0.00916289
0.00868778
0.01319
0.0126697
0.0171493
0.0266516
0.0462217
0.0557692
0.0553394
0.0498643
0.0443213
0.0437557
0.0481674
0.0575792
0.0719909
0.0914027
0.100792
0.105204
0.109638
0.114072
0.10862
0.103303
0.103032
0.0925792
0.0918552
0.0908145
0.0945022
0.0928959
0.0909955
0.0938688
0.0815611
0.0692308
0.0669231
0.0597738
0.0479185
0.0313348
0.0200452
0.00402714
-0.0117195
-0.0222624
-0.0276923
-0.0330996
-0.0385068
-0.0438462
-0.0391629
-0.0344118
-0.0345928
-0.039638
-0.0495701
-0.059457
-0.0592986
-0.0541403
-0.0439819
-0.0488009
-0.0486199
-0.0434842
-0.0383711
-0.0282806
-0.0231901
-0.0131448
-0.00807693
-0.00803168
-0.0229864
-0.0429864
-0.0580317
-0.0581222
-0.0532806
-0.0484615
-0.0436652
-0.0388914
-0.034095
-0.0293213
-0.0145475
0.00522624
0.0100226
-0.0202489
-0.0755656
-0.140882
-0.196199
-0.256493
-0.316787
-0.372127
-0.422466
-0.45276
-0.453032
-0.438303
-0.393552
-0.343778
-0.288937
-0.22905
-0.159095
-0.0990724
-0.0640272
-0.0539819
-0.0489593
-0.0439367
-0.0289367
-0.00893665
0.00104072
0.0159729
0.0208597
0.0257466
0.0306335
0.0305656
0.0355204
0.0304751
0.0353846
0.0302489
0.0351131
0.035
0.0448869
0.0547738
0.054638
0.0595249
0.0594118
0.0593439
0.0543213
0.0593892
0.0594796
0.0645701
0.0696154
0.0695928
0.0745701
0.0745701
0.0696154
0.0696833
0.0797964
0.0849321
0.0851584
0.0906335
0.0864254
0.0774661
0.0687557
0.0702941
0.0720815
0.0741177
0.0713122
0.0735973
0.0758371
0.0779638
0.0798643
0.0764932
0.0727828
0.0687557
0.0594118
0.0548416
0.0500905
0.0452036
0.0402036
0.0400453
0.0397738
0.0443892
0.048914
0.0484163
0.0529412
0.0475113
0.0421267
0.0216968
0.00619911
0.000610869
-4.52399e-05
0.00429865
0.00866516
0.0130543
0.0173982
0.0216968
0.0210181
0.0203846
0.019819
0.0242534
0.023733
0.0282127
0.0327149
0.0421267
0.051448
0.0656561
0.0848416
0.104027
0.113213
0.122443
0.111719
0.106063
0.0954299
0.0948869
0.0994344
0.109027
0.118484
0.12267
0.126561
0.125181
0.128552
0.126652
0.109502
0.0871267
0.074638
0.0671719
0.064819
0.0577376
0.045905
0.0293439
0.0130543
-0.00289593
-0.00855204
-0.0140498
-0.019457
-0.0248416
-0.035181
-0.0404525
-0.0406561
-0.0358145
-0.030905
-0.0309276
-0.025905
-0.0308371
-0.0307466
-0.0306561
-0.0306109
-0.030543
-0.0355204
-0.0404977
-0.0404751
-0.0353846
-0.0302262
-0.0300679
-0.0299095
-0.0347964
-0.0347285
-0.0347059
-0.0297059
-0.0297511
-0.0248643
-0.015
-0.0152036
-0.0154072
-0.0156109
-0.0058371
0.00395928
0.00877828
-0.00642534
-0.0566742
-0.1219
-0.182149
-0.242421
-0.297692
-0.362941
-0.418167
-0.453394
-0.468643
-0.458891
-0.434095
-0.379276
-0.329389
-0.26448
-0.19448
-0.129412
-0.0893439
-0.064276
-0.0442082
-0.0341177
-0.0140498
0.00101809
0.021086
0.0361765
0.0363122
0.026448
0.0216063
0.0167873
0.0269457
0.0370136
0.0470136
0.0519683
0.0519005
0.0518778
0.0569005
0.0619457
0.071991
0.0720362
0.0670362
0.0619909
0.0669231
0.0669005
0.0719231
0.0670362
0.0722398
0.0724887
0.0827376
0.0880317
0.093371
0.0987557
0.094095
0.0894344
0.079819
0.0804299
0.0763348
0.0774887
0.0738462
0.0754977
0.0824661
0.0847738
0.0922624
0.089819
0.0923529
0.0947285
0.0968552
0.0936199
0.0900679
0.0811991
0.0670815
0.0627149
0.0581674
0.0584842
0.0536652
0.0487104
0.0486878
0.0385973
0.0384615
0.0333032
0.0331222
0.0379186
0.0376923
0.0374434
0.0271493
0.02181
0.0164706
0.0111312
0.0157919
0.0204525
0.0200905
0.0247059
0.029276
0.0287783
0.0233032
0.0178733
0.0174887
0.0221041
0.0316968
0.0412443
0.0457692
0.0552941
0.0647964
0.0842986
0.0938235
0.108439
0.1131
0.112805
0.112511
0.107217
0.111946
0.121697
0.131403
0.130882
0.130091
0.124027
0.11267
0.106086
0.0992082
0.0971267
0.0948869
0.0926244
0.0804299
0.0733258
0.0565158
0.0449321
0.0186652
-0.00228506
-0.0129185
-0.0183258
-0.0236199
-0.0338009
-0.033914
-0.0339366
-0.0338688
-0.0337104
-0.0384615
-0.0381674
-0.0378959
-0.0476471
-0.0473982
-0.0471267
-0.0468326
-0.0415158
-0.0361765
-0.0408145
-0.0454525
-0.0450679
-0.0396606
-0.0342534
-0.0238688
-0.0135294
-0.00823529
-0.0129412
-0.0226697
-0.0373982
-0.0521719
-0.0519909
-0.0419004
-0.0368326
-0.0268099
-0.0168099
0.00319006
0.0131674
-0.00685519
-0.0619231
-0.136991
-0.192081
-0.232195
-0.287308
-0.347421
-0.417489
-0.452557
-0.467602
-0.457647
-0.42267
-0.38267
-0.32267
-0.26267
-0.197624
-0.142511
-0.0923303
-0.0621041
-0.0468552
-0.0315837
-0.0163348
-0.00613123
0.0040724
0.00925339
0.00945701
0.00466063
0.00486425
0.0100679
0.0202489
0.0354525
0.0456109
0.0507692
0.045905
0.0459955
0.0461312
0.051267
0.0564027
0.0615385
0.0716968
0.0668326
0.0619231
0.0570136
0.0570814
0.0621946
0.0673529
0.0725792
0.0728281
0.0831448
0.0835068
0.0839819
0.0745249
0.0650905
0.0555882
0.0560407
0.0665611
0.0722851
0.0733032
0.0695928
0.071086
0.0678054
0.069819
0.0770814
0.0745249
0.0770362
0.0695475
0.0719457
0.0641403
0.061086
0.0676923
0.0590045
0.0599548
0.0556561
0.056086
0.0513348
0.041448
0.041448
0.0364027
0.0313122
0.0311991
0.0261086
0.0260181
0.020905
0.0107466
0.00556561
0.00533937
2.26237e-05
0.00470588
0.00934389
0.0139593
0.013552
0.00812217
0.00766968
0.00721719
0.00680995
0.0164253
0.0210407
0.0256787
0.0303394
0.0350226
0.0396833
0.0442986
0.0488461
0.0633484
0.0828507
0.0973982
0.111946
0.121516
0.126109
0.125814
0.120611
0.120317
0.119774
0.118891
0.12276
0.116471
0.114932
0.108167
0.106063
0.103824
0.0965158
0.0892986
0.0822624
0.0804525
0.0739367
0.0576697
0.0317195
0.00104074
-0.0143665
-0.0246154
-0.0297964
-0.0299095
-0.0249321
-0.0248869
-0.0297964
-0.0346832
-0.0395701
-0.0394796
-0.0343665
-0.0292081
-0.0339819
-0.0336878
-0.0383258
-0.0379412
-0.0325792
-0.0372398
-0.0319004
-0.0315837
-0.0262896
-0.0259955
-0.0207013
-0.0154525
-0.0202036
-0.0149774
-0.0197738
-0.0195928
-0.024457
-0.0243891
-0.0293891
-0.0293891
-0.0344118
-0.039457
-0.0295023
-0.00957014
0.000339365
-0.0147964
-0.0648869
-0.125
-0.175136
-0.210226
-0.260317
-0.325407
-0.38552
-0.435588
-0.455679
-0.460769
-0.435882
-0.39095
-0.335995
-0.270995
-0.210928
-0.145905
-0.100837
-0.065724
-0.0454977
-0.0251584
-0.00481901
0.000520355
0.000814473
0.00604072
0.00124434
0.00140271
0.0065837
0.0117421
0.0168552
0.0269231
0.0369909
0.0370136
0.0470362
0.0521041
0.0622172
0.0723303
0.0723982
0.0674661
0.0575566
0.0576697
0.062828
0.0679864
0.0731448
0.0733484
0.0735973
0.073914
0.074276
0.0696606
0.0700679
0.0705204
0.0759276
0.0813348
0.0867873
0.0824434
0.0733937
0.074638
0.0761538
0.0778733
0.079819
0.0769909
0.0793213
0.0717873
0.0792534
0.0766968
0.0789593
0.0710181
0.0677828
0.0592534
0.0554072
0.0612896
0.0568778
0.0522398
0.0423756
0.0374208
0.0374208
0.0373982
0.0323303
0.0272172
0.0271041
0.0269457
0.0267647
0.0265385
0.021267
0.0159955
0.0107014
0.0103846
0.00504524
0.00468325
0.00434389
0.00902714
0.00868778
0.0183484
0.028009
0.0326471
0.0422851
0.0469231
0.0415837
0.0411991
0.0458145
0.055362
0.0698869
0.0893665
0.103869
0.113371
0.117896
0.122398
0.111855
0.106357
0.10095
0.110588
0.110136
0.11948
0.123575
0.107466
0.106222
0.0997738
0.103054
0.096086
0.0938914
0.0916063
0.0842986
0.0721267
0.055181
0.0385294
0.0271946
0.0261538
0.0154299
-9.05008e-05
-0.0254299
-0.0556561
-0.0657692
-0.0657919
-0.0607919
-0.0507466
-0.0456335
-0.0405204
-0.0454072
-0.0452941
-0.0451584
-0.0399774
-0.0397285
-0.0344344
-0.0291629
-0.0338688
-0.0385747
-0.0382127
-0.0328054
-0.0323982
-0.0370362
-0.0417647
-0.0415158
-0.036267
-0.0310407
-0.0358371
-0.0407014
-0.0505882
-0.0555204
-0.0554977
-0.045543
-0.0356561
-0.0107466
0.00416289
0.00411764
-0.0359276
-0.100995
-0.171131
-0.23129
-0.276448
-0.326584
-0.371674
-0.411765
-0.441833
-0.446923
-0.441946
-0.401968
-0.361991
-0.302036
-0.242104
-0.172149
-0.117172
-0.0670815
-0.0419683
-0.02181
-0.0166063
-0.0163801
-0.0161312
-0.00588236
0.00934389
0.00950226
0.014638
0.0147511
0.0198643
0.0300226
0.0352036
0.045362
0.0454977
0.0506335
0.0507466
0.0458597
0.0459955
0.0461765
0.0513348
0.0515158
0.0617195
0.0619231
0.0671493
0.0673756
0.0726018
0.0778507
0.08819
0.0936199
0.0991176
0.0947059
0.0903167
0.0859502
0.0865385
0.0920814
0.0926244
0.0933032
0.0942082
0.100385
0.0966968
0.0933258
0.0903394
0.0876697
0.0852489
0.0828959
0.0805656
0.0830543
0.0853394
0.087353
0.0840724
0.0804751
0.0715611
0.067353
0.0629412
0.0583937
0.0587104
0.0538688
0.0488688
0.0437104
0.0434615
0.0431674
0.0328733
0.0226471
0.0174661
0.0173077
0.0221267
0.0219231
0.0167195
0.0114932
0.011267
0.0160407
0.0208145
0.025543
0.0202036
0.0198416
0.0195023
0.0241629
0.0338235
0.0385068
0.04319
0.0528733
0.0625339
0.0771267
0.0816516
0.0911312
0.100611
0.110113
0.124638
0.119208
0.123891
0.118643
0.123439
0.123077
0.127443
0.131493
0.130249
0.123801
0.112104
0.105249
0.0982579
0.0911991
0.0791403
0.0721267
0.0702941
0.0636425
0.0622851
0.0461765
0.035362
0.0147964
0.00447964
-0.0106561
-0.0306787
-0.0406335
-0.0455656
-0.0454751
-0.0453167
-0.0350452
-0.0297738
-0.0244796
-0.0241855
-0.0338914
-0.0435747
-0.0432579
-0.0429186
-0.0425566
-0.0421267
-0.041629
-0.0461312
-0.0506109
-0.0451584
-0.0397285
-0.0343665
-0.0289819
-0.0236199
-0.0182579
-0.0229186
-0.0276018
-0.0423077
-0.0520136
-0.0517647
-0.0515837
-0.041448
-0.0363348
-0.0212443
-0.00615385
-0.0160407
-0.0509276
-0.105814
-0.155701
-0.185566
-0.245475
-0.325407
-0.410339
-0.465226
-0.485068
-0.484887
-0.449729
-0.40457
-0.344412
-0.284186
-0.223937
-0.168643
-0.118326
-0.0829864
-0.0526018
-0.0322172
-0.0118099
-0.00140271
0.00400453
0.0144118
0.0248416
0.0302715
0.0256335
0.0209502
0.021267
0.0215837
0.0268778
0.0271041
0.0372398
0.0373529
0.0425792
0.0479638
0.0534163
0.0638914
0.0693213
0.0697511
0.0701358
0.065543
0.0559729
0.0564027
0.0618326
0.0722625
0.0827149
0.09319
0.0937104
0.0892987
0.0849548
0.0906335
0.0913122
0.091991
0.0928733
0.0840272
0.0804751
0.077172
0.0791176
0.0863122
0.0887557
0.0963348
0.0890272
0.0817195
0.0693665
0.06681
0.0639593
0.0658597
0.0675113
0.0638914
0.07
0.0758597
0.0765385
0.0720588
0.0574434
0.0526923
0.0427828
0.0377828
0.0327376
0.0276697
0.0176244
0.0176244
0.0176471
0.0176697
0.0226697
0.0276018
0.0324434
0.0372398
0.0319683
0.0216516
0.00635747
0.00113123
-0.0040724
0.0107466
0.0205656
0.0353846
0.0402263
0.0450679
0.0499095
0.0547285
0.0645249
0.074276
0.083914
0.0984842
0.118077
0.12267
0.122353
0.122081
0.1219
0.121787
0.121629
0.121312
0.120747
0.12
0.124118
0.122941
0.116425
0.0995249
0.0823982
0.0702036
0.0680091
0.0659729
0.0641177
0.0475792
0.0363349
0.0204299
0.00481902
-0.00554297
-0.0207014
-0.025724
-0.0306787
-0.035543
-0.040362
-0.0451357
-0.0498416
-0.0494796
-0.044095
-0.0437104
-0.0483484
-0.0479864
-0.0376471
-0.0222851
-0.00690045
-0.00644796
-0.0309955
-0.0605204
-0.0700226
-0.0695249
-0.0640045
-0.0634842
-0.0529864
-0.0525339
-0.0471493
-0.0418552
-0.0366063
-0.0263801
-0.0211312
-0.0108597
-0.0155882
-0.0203394
-0.0251584
-0.0200452
-0.00490949
-0.00977375
-0.049638
-0.114502
-0.174412
-0.229389
-0.279366
-0.329344
-0.384253
-0.41914
-0.453982
-0.458846
-0.453778
-0.413756
-0.358733
-0.30871
-0.253643
-0.198507
-0.138303
-0.098009
-0.067647
-0.0522398
-0.0318099
-0.0164253
-0.00104071
0.00932128
0.0146606
0.0199774
0.0152489
0.0154751
0.0157014
0.020905
0.026086
0.0312896
0.0415158
0.0517647
0.0670815
0.077353
0.0725566
0.0576923
0.0478054
0.0378959
0.0430543
0.0482806
0.0485747
0.053914
0.059276
0.069638
0.0700227
0.0754299
0.0858598
0.0912896
0.08681
0.0873756
0.0779186
0.0734163
0.0690272
0.0698869
0.0710634
0.0724887
0.074095
0.0658824
0.0679186
0.075181
0.0725792
0.0750227
0.0723982
0.0695702
0.0715837
0.0733937
0.0799774
0.0713122
0.0673303
0.0531222
0.0436878
0.0390724
0.0292987
0.0293439
0.034276
0.0341177
0.0338914
0.0286426
0.0233711
0.018077
0.0177829
0.0124661
0.0121267
0.0117195
0.0163123
0.0159277
0.0106109
0.00533941
0.00504529
0.00461543
0.0040272
0.00839372
0.0127828
0.0172625
0.0217648
0.0313123
0.0408371
0.050362
0.0598643
0.0693666
0.0738915
0.0784163
0.0879865
0.092534
0.102036
0.111493
0.11095
0.110498
0.110023
0.109412
0.108529
0.117421
0.111109
0.10957
0.0977828
0.090724
0.0835068
0.0761539
0.0788235
0.0715158
0.0643891
0.0575113
0.0458371
0.0294344
0.00830314
-0.0074661
-0.0179865
-0.0283258
-0.0385973
-0.0437783
-0.0488688
-0.0538914
-0.0538914
-0.0538914
-0.0488462
-0.0488462
-0.0488235
-0.0438009
-0.0387783
-0.038733
-0.0386425
-0.0384616
-0.0482353
-0.0429186
-0.0375792
-0.0372625
-0.0370362
-0.0369005
-0.0368552
-0.0418552
-0.0418778
-0.0469457
-0.0469909
-0.0420588
-0.0421041
-0.0372172
-0.0323529
-0.0224887
-0.0276697
-0.0178507
-0.00800905
0.00180995
-0.0233937
-0.0786425
-0.148937
-0.204276
-0.244593
-0.284909
-0.340226
-0.385543
-0.415837
-0.431131
-0.43138
-0.401606
-0.37681
-0.331968
-0.282081
-0.227149
-0.172217
-0.132217
-0.0972398
-0.0722851
-0.0473303
-0.0223982
-0.00242081
0.0126018
0.0226697
0.0227602
0.0228507
0.0229412
0.0229864
0.0330091
0.0379864
0.0479186
0.0478281
0.0527376
0.0526244
0.0574435
0.0622625
0.0671493
0.0721041
0.0720815
0.0671041
0.0521493
0.0472172
0.0472851
0.0523756
0.0574887
0.0676244
0.0727602
0.0779186
0.0830769
0.0832127
0.0833258
0.0883937
0.0935747
0.0989819
0.0947059
0.0957692
0.0870815
0.0835747
0.0753167
0.0673756
0.069638
0.0770136
0.0843665
0.086629
0.0836878
0.0754525
0.0769457
0.0781222
0.0790045
0.0846606
0.0801131
0.0754299
0.0555656
0.0405656
0.0304525
0.0302715
0.03
0.0246606
0.024276
0.0288235
0.0333484
0.0278281
0.0322851
0.0266742
0.0260181
0.0304299
0.0299547
0.0245475
0.0141629
0.0137556
0.00828053
0.0128054
0.0123077
0.0167873
0.026267
0.035724
0.0501358
0.0595023
0.0688462
0.0680996
0.0773303
0.0815837
0.095905
0.105294
0.114729
0.129208
0.123665
0.11819
0.112738
0.11233
0.116787
0.125995
0.13491
0.128529
0.126968
0.115204
0.113213
0.111041
0.103801
0.0915837
0.0794118
0.0673982
0.0554751
0.0437557
0.0372625
0.0260181
0.00504526
-0.00570135
-0.0112896
-0.0167647
-0.0221041
-0.0323529
-0.0375339
-0.0476244
-0.0526018
-0.0575339
-0.0624434
-0.0573303
-0.0522172
-0.0470588
-0.0369004
-0.0317195
-0.0265611
-0.0214027
-0.0112896
-0.0161538
-0.0309728
-0.0457466
-0.0504977
-0.0552715
-0.0550905
-0.0550452
-0.0500905
-0.0452036
-0.040362
-0.0355656
-0.0257692
-0.0210181
-0.0162896
-0.00653845
0.00828055
0.0231448
0.00805431
-0.0320362
-0.102127
-0.177262
-0.232376
-0.272557
-0.327783
-0.3881
-0.438484
-0.463869
-0.469186
-0.454412
-0.414593
-0.354706
-0.289796
-0.224819
-0.164796
-0.119729
-0.0845701
-0.0693891
-0.0491403
-0.0339593
-0.0188461
-0.0137783
-0.00375565
0.00624436
0.0111991
0.0211539
0.0261765
0.036267
0.0463575
0.0614706
0.0715837
0.0616742
0.0417421
0.0267873
0.0217873
0.0267647
0.0317421
0.0367195
0.0467195
0.0517421
0.0517873
0.0569005
0.0670588
0.0722625
0.0774887
0.0927602
0.0980317
0.0983258
0.0836199
0.0739367
0.0692082
0.069457
0.0698416
0.0654299
0.0713349
0.0725113
0.078914
0.0805656
0.0775113
0.0897512
0.0921946
0.0997285
0.0972625
0.0946833
0.0818779
0.0637557
0.0552941
0.0515385
0.0574887
0.0581901
0.0586878
0.0590724
0.0543213
0.0443892
0.0443439
0.0442082
0.0390045
0.0437557
0.0484389
0.0430996
0.0277376
0.017353
0.0119457
0.00649323
0.00604074
0.00556562
0.0100905
0.014638
0.0191855
0.023733
0.0333032
0.0328733
0.0273982
0.0218552
0.0212217
0.025543
0.0298643
0.0442082
0.058552
0.0728959
0.0872398
0.101584
0.110973
0.125407
0.134864
0.134344
0.118869
0.108462
0.1031
0.107624
0.111968
0.116018
0.109774
0.113348
0.116765
0.124932
0.127851
0.12552
0.113077
0.0956109
0.0832805
0.0611765
0.0443439
0.0278281
0.0166063
0.00567873
-0.0100453
-0.0205882
-0.0410407
-0.0464027
-0.0466742
-0.0468552
-0.0369683
-0.0320362
-0.0270588
-0.0270588
-0.036991
-0.0468778
-0.0517195
-0.0515158
-0.056267
-0.0509955
-0.0408371
-0.0357692
-0.0307692
-0.0357919
-0.0357692
-0.040724
-0.0406787
-0.0456109
-0.045543
-0.0505204
-0.050543
-0.0455882
-0.040724
-0.0409276
-0.0411086
-0.0362443
-0.0313348
-0.0214253
-0.00158371
0.0132353
-0.00199094
-0.0522398
-0.127511
-0.192783
-0.243077
-0.293394
-0.348756
-0.404163
-0.45448
-0.474729
-0.484864
-0.459977
-0.410091
-0.345226
-0.28043
-0.225633
-0.170814
-0.125928
-0.0909728
-0.0709728
-0.050905
-0.0307919
-0.0157014
-0.000588231
0.00952489
0.0146154
0.0197511
0.0199095
0.0150453
0.0150905
0.0150453
0.0199321
0.0247511
0.0346154
0.0395249
0.0444796
0.0494796
0.0545023
0.0545249
0.0645928
0.0696606
0.0696606
0.074638
0.079638
0.0746833
0.0697738
0.0699321
0.0751131
0.0803168
0.0855656
0.0808824
0.0812217
0.0815837
0.0819457
0.0823077
0.0827149
0.0883711
0.0992987
0.100498
0.0969457
0.0886652
0.0756109
0.0727828
0.0751131
0.0725792
0.0800679
0.0824661
0.0845475
0.0712896
0.0626697
0.0636652
0.0593439
0.0597738
0.0550453
0.0551584
0.0500905
0.0449095
0.044638
0.0393213
0.0339593
0.0235747
0.0232127
0.0228507
0.0224887
0.0171041
0.0116742
0.0111765
0.0106335
0.0150905
0.0194796
0.0338688
0.0332579
0.0326244
0.0319683
0.0262444
0.0255882
0.0299548
0.0343439
0.0386878
0.0480091
0.0622398
0.076448
0.100656
0.119887
0.129186
0.123507
0.112828
0.0971041
0.101425
0.10086
0.110407
0.114932
0.114231
0.11819
0.121855
0.130294
0.138507
0.141448
0.129163
0.111674
0.0891403
0.0765611
0.069095
0.0568552
0.0499095
0.0382805
0.0269457
0.015905
9.05036e-05
-0.0105204
-0.0260181
-0.0414027
-0.0467195
-0.0519457
-0.0521041
-0.0522172
-0.0573077
-0.0573756
-0.0573982
-0.0524208
-0.0424208
-0.0324208
-0.0223982
-0.0323529
-0.0422624
-0.0471493
-0.0520136
-0.0518778
-0.0467195
-0.0465837
-0.0464253
-0.0362896
-0.0361991
-0.041086
-0.0459502
-0.0508823
-0.0508824
-0.0409502
-0.0310407
-0.0261538
-0.0262896
-0.0215158
-0.0117647
-0.00196833
-0.00217195
-0.0273529
-0.0925566
-0.15776
-0.212919
-0.263122
-0.318326
-0.373575
-0.418891
-0.449208
-0.469502
-0.469796
-0.450045
-0.390272
-0.33043
-0.260566
-0.195679
-0.140747
-0.100792
-0.0757692
-0.050724
-0.0256561
-0.0105656
-0.0104977
-0.00540724
0.00468326
0.00977375
0.014819
0.019819
0.0247738
0.0297059
0.0296154
0.0345249
0.039457
0.0393891
0.0493213
0.054276
0.064276
0.0742534
0.0842534
0.094276
0.079276
0.069276
0.0642986
0.0693665
0.0744344
0.0895475
0.0947285
0.0999548
0.100294
0.0857014
0.0811538
0.0865837
0.101923
0.102149
0.0973756
0.0877149
0.0783258
0.079276
0.0804525
0.0818778
0.0835973
0.0856787
0.0930543
0.0906109
0.0881901
0.0806561
0.0828733
0.0848643
0.0865837
0.0879638
0.0839593
0.0746154
0.065
0.0602489
0.050362
0.0453846
0.0402941
0.0451357
0.0398869
0.0395475
0.0391629
0.0387557
0.0383484
0.0279412
0.0225566
0.0171493
0.0167421
0.0163801
0.0160181
0.0155882
0.0150679
0.0145249
0.0189819
0.0184615
0.0229638
0.0274208
0.0369005
0.0464027
0.045905
0.0453394
0.0547738
0.0641855
0.0786199
0.0880996
0.0976018
0.107104
0.121584
0.126086
0.115611
0.115181
0.109729
0.114186
0.118371
0.117308
0.126041
0.119548
0.117828
0.11586
0.10871
0.101425
0.0940724
0.0867195
0.0794344
0.0624208
0.040724
0.0244118
0.0134389
0.00273757
-0.0127828
-0.0232127
-0.0285294
-0.038733
-0.0388235
-0.0438688
-0.0488461
-0.0537783
-0.0536651
-0.0435294
-0.033371
-0.02819
-0.028009
-0.032828
-0.037647
-0.0374434
-0.0322172
-0.0319457
-0.0266516
-0.0213348
-0.0259502
-0.030543
-0.0300905
-0.0297059
-0.0293439
-0.0340271
-0.028733
-0.0284615
-0.0281674
-0.0229185
-0.0227149
-0.0175566
-0.0174887
-0.0174887
-0.00746605
0.0025792
0.00760183
-0.0174208
-0.0675113
-0.13767
-0.187805
-0.237919
-0.298032
-0.368167
-0.423326
-0.458439
-0.473575
-0.463688
-0.428801
-0.388869
-0.333914
-0.268891
-0.188801
-0.123688
-0.0735747
-0.0534615
-0.0382805
-0.0280543
-0.0177828
-0.0175113
-0.00221718
0.0130317
0.0232353
0.0284389
0.0236652
0.0239367
0.0191855
0.0294118
0.0396154
0.0397964
0.0499548
0.0551131
0.0652715
0.0654299
0.0605882
0.0557692
0.0559276
0.0661086
0.0613122
0.0666064
0.0669683
0.0773756
0.0727828
0.0732353
0.068733
0.0692534
0.074819
0.0804072
0.0859955
0.0865837
0.0921267
0.0925566
0.0980543
0.0937783
0.0898643
0.081267
0.0728733
0.0747285
0.0718552
0.0742308
0.07181
0.0744344
0.0720136
0.0745023
0.0817873
0.0838914
0.0756787
0.0621041
0.0531674
0.0489819
0.0495928
0.055
0.0552715
0.0554525
0.0455204
0.035543
0.0255204
0.0254525
0.0203394
0.0202036
0.0200905
0.02
0.0249321
0.0248643
0.0297964
0.0297285
0.024638
0.0245023
0.0242986
0.0291177
0.0239593
0.0288009
0.0286425
0.0284615
0.0232805
0.0280769
0.0378507
0.0476244
0.0573982
0.0721267
0.0868778
0.0966516
0.101471
0.111312
0.111109
0.120928
0.125792
0.130701
0.135498
0.14009
0.134344
0.128371
0.127195
0.130769
0.134072
0.127172
0.125113
0.113009
0.100973
0.0891177
0.0824434
0.0660181
0.0499095
0.0391629
0.028733
0.018552
-0.00153846
-0.0215837
-0.0365611
-0.041448
-0.041267
-0.0359729
-0.0255656
-0.0251357
-0.0296833
-0.039276
-0.0438688
-0.0434389
-0.0429412
-0.0373982
-0.0319005
-0.0313801
-0.0308824
-0.0303394
-0.0297285
-0.029095
-0.0235068
-0.0229638
-0.0224434
-0.0319683
-0.0364932
-0.0460407
-0.0455882
-0.0452262
-0.0449321
-0.0347285
-0.0345928
-0.0294344
-0.019276
-0.00411764
0.0110407
0.0262217
0.0114253
-0.0433258
-0.118054
-0.182828
-0.22767
-0.272602
-0.337534
-0.392466
-0.43733
-0.452172
-0.446991
-0.431787
-0.391516
-0.356154
-0.300724
-0.240272
-0.174842
-0.129434
-0.0939819
-0.0635068
-0.0429864
-0.0274887
-0.0120136
-0.00156109
0.0038914
0.00932126
0.0147964
0.0202489
0.0257014
0.0311312
0.0315611
0.0319909
0.0274208
0.0228507
0.0283258
0.0438009
0.059276
0.0597738
0.0602941
0.0557692
0.051267
0.0567873
0.0573303
0.062828
0.0633484
0.0688688
0.0694118
0.08
0.0806561
0.0764027
0.0722172
0.068009
0.078733
0.0844796
0.0854977
0.0818778
0.083552
0.0804751
0.0876244
0.09
0.0876471
0.0854525
0.0784163
0.0713348
0.0741403
0.0717421
0.069095
0.0661991
0.0679864
0.0694796
0.0656335
0.0665385
0.0622398
0.057828
0.0582805
0.0635973
0.0587783
0.0488914
0.0339819
0.024095
0.0142081
0.0193439
0.019457
0.0245249
0.0245249
0.014457
0.00934389
0.00918553
0.0190498
0.0239367
0.0338235
0.0337104
0.0185973
0.0085068
0.0134163
0.0233484
0.0382353
0.0430996
0.0478959
0.0526471
0.0623756
0.0771041
0.0918552
0.106629
0.121448
0.121244
0.126041
0.13086
0.130724
0.130679
0.125724
0.120724
0.110498
0.114955
0.119095
0.128009
0.126742
0.120181
0.103394
0.091448
0.084457
0.0724887
0.0555656
0.0388462
0.0223303
0.00613124
-0.00475112
-0.0103167
-0.0256561
-0.0308145
-0.0358145
-0.0307013
-0.0254977
-0.0302262
-0.0399095
-0.0445701
-0.0542081
-0.0538235
-0.0534163
-0.0479864
-0.0475113
-0.0420362
-0.0415837
-0.0361538
-0.0457466
-0.0502941
-0.0497964
-0.0542534
-0.0537556
-0.0482805
-0.047828
-0.0524208
-0.0569909
-0.0516063
-0.051267
-0.0409955
-0.0357692
-0.0356108
-0.0354525
-0.0403393
-0.0452489
-0.0351357
-0.0100452
-0.0149095
-0.0647737
-0.139661
-0.199593
-0.249547
-0.294502
-0.349457
-0.414457
-0.44948
-0.479457
-0.464389
-0.444321
-0.399208
-0.354072
-0.308891
-0.248665
-0.188394
-0.128032
-0.087647
-0.0522398
-0.0368778
-0.0165158
-0.00613119
0.00432129
0.00479641
0.00524889
0.000633501
0.00595025
0.0112444
0.0165611
0.0218552
0.027172
0.0374887
0.0477602
0.0579638
0.0581448
0.0583032
0.0584616
0.0586878
0.0589593
0.0542082
0.0544797
0.054819
0.065181
0.0705883
0.0759729
0.0813801
0.0768326
0.0773077
0.0728281
0.0683711
0.0689593
0.0745023
0.0799322
0.0854525
0.0912218
0.0873303
0.0838009
0.0804978
0.0773982
0.0745249
0.0819231
0.0895249
0.0872625
0.09
0.0876245
0.0799321
0.0770136
0.0788236
0.0853394
0.0814932
0.0723303
0.0579186
0.0483258
0.0436199
0.0388009
0.0338462
0.0288009
0.0236652
0.0185068
0.0183484
0.0181675
0.0179412
0.0176697
0.017353
0.0170136
0.016629
0.0112896
0.0109276
0.0155656
0.0152036
0.014819
0.00936655
0.0138688
0.0183937
0.0279186
0.0324887
0.0320815
0.0366742
0.0361991
0.0456788
0.0601358
0.0745928
0.0890724
0.103552
0.112986
0.122421
0.121878
0.111357
0.110928
0.110588
0.115204
0.119615
0.12371
0.127534
0.121131
0.124525
0.13267
0.13052
0.113235
0.0908145
0.0784615
0.0661765
0.0540724
0.0371267
0.0203846
0.00898189
-0.0120362
-0.0226471
-0.0279864
-0.0231674
-0.0283258
-0.0334163
-0.0434616
-0.0534616
-0.0584615
-0.0584615
-0.0535294
-0.0585973
-0.0586199
-0.0535747
-0.0534842
-0.053371
-0.0532353
-0.0430543
-0.0378281
-0.0226018
-0.0173982
-0.0222172
-0.0320814
-0.041991
-0.0569457
-0.0669005
-0.0618778
-0.0568326
-0.0468099
-0.0468099
-0.0518552
-0.0469909
-0.0421719
-0.0323982
-0.0276923
-0.00298642
0.0217195
0.00644796
-0.0438009
-0.119005
-0.199253
-0.254525
-0.304796
-0.36509
-0.420385
-0.460634
-0.480814
-0.480995
-0.461154
-0.406335
-0.366584
-0.311878
-0.257172
-0.192376
-0.137466
-0.0973756
-0.0722172
-0.0570588
-0.0369231
-0.0218326
-0.00678732
0.00821269
0.0181901
0.0231222
0.0230091
0.0228733
0.0277376
0.0276471
0.0326018
0.0425792
0.0375566
0.0425339
0.047534
0.0475566
0.0575566
0.0625113
0.0673982
0.0622625
0.0571041
0.0469684
0.0469005
0.0469231
0.0570362
0.0621946
0.0723982
0.0726697
0.0779412
0.0832353
0.0935521
0.0938914
0.0842082
0.0745023
0.0648869
0.0705204
0.0764706
0.072715
0.0691856
0.0709503
0.0730091
0.0752941
0.0777602
0.0802941
0.0777376
0.0799095
0.0817647
0.0883485
0.0946833
0.105701
0.106403
0.09181
0.0670362
0.0370815
0.0170136
0.0169005
0.0267421
0.0315159
0.0311991
0.0308145
0.0303394
0.0297964
0.0392534
0.0437331
0.0381901
0.0276245
0.0220815
0.0215159
0.0259276
0.0253168
0.0247512
0.0241856
0.0286878
0.0332353
0.0427602
0.0522625
0.0566969
0.0560408
0.0602715
0.0644797
0.0736878
0.0829412
0.0972172
0.111493
0.120815
0.125136
0.134502
0.133869
0.138371
0.137986
0.137557
0.1319
0.135905
0.134525
0.127919
0.126131
0.119118
0.1119
0.0995022
0.0920136
0.0845023
0.0820814
0.0849095
0.0878959
0.0861765
0.0697285
0.0386425
-0.012172
-0.0428054
-0.0533032
-0.0537331
-0.0490045
-0.0442082
-0.0393439
-0.0393892
-0.0343892
-0.0243665
-0.0193439
-0.0193213
-0.0292987
-0.0392987
-0.044276
-0.0441855
-0.049095
-0.0539819
-0.0538688
-0.0488009
-0.0387104
-0.0285973
-0.0184616
-0.0083032
-0.00314482
-0.0130543
-0.0330317
-0.0480543
-0.0581222
-0.0582579
-0.0584163
-0.0435973
-0.0337783
-0.0239367
-0.0190498
-0.00416293
0.000701323
-0.0294797
-0.0847059
-0.154932
-0.215158
-0.260407
-0.320679
-0.38095
-0.436222
-0.471448
-0.476629
-0.456742
-0.411833
-0.361855
-0.311833
-0.26672
-0.206539
-0.151222
-0.100837
-0.0704978
-0.0502489
-0.0351358
-0.0301358
-0.0151584
-0.00515842
0.00988682
0.0149547
0.0250452
0.0351583
0.0352714
0.0354072
0.0355429
0.0406334
0.0406787
0.0457013
0.0507466
0.0558144
0.0558823
0.0609502
0.0610633
0.0562217
0.0564027
0.0515837
0.0568099
0.0620588
0.0772851
0.0875339
0.0928054
0.0930769
0.0883484
0.0836878
0.0790271
0.0843213
0.0846154
0.0900905
0.0859049
0.0870362
0.0834389
0.0850226
0.0868099
0.093914
0.0912669
0.0838009
0.0764027
0.0689818
0.07138
0.0735746
0.0805429
0.0822171
0.0835972
0.0896606
0.0805203
0.0762443
0.0617873
0.0571266
0.0571266
0.0519004
0.051561
0.0361764
0.0357918
0.0354524
0.030181
0.0299095
0.0296154
0.0293438
0.0290724
0.0337782
0.0383937
0.0379638
0.0325113
0.0270362
0.0264932
0.030905
0.0402941
0.0447059
0.0441855
0.043733
0.0333258
0.0279638
0.0326244
0.0472398
0.0567195
0.0761086
0.0954299
0.109729
0.113982
0.118326
0.11776
0.117308
0.1169
0.111561
0.111199
0.110656
0.114842
0.118688
0.117308
0.115724
0.113869
0.111787
0.0994796
0.0870814
0.0697285
0.0574887
0.0404299
0.0285973
0.0120136
0.000656113
-0.0204072
-0.0362217
-0.0418099
-0.0472851
-0.0476697
-0.0429638
-0.03819
-0.0333032
-0.0383484
-0.0433032
-0.0482579
-0.05319
-0.0530769
-0.0479638
-0.0428281
-0.0376923
-0.0375566
-0.0374434
-0.0423077
-0.0421267
-0.0419683
-0.0418326
-0.0516968
-0.0565611
-0.056448
-0.0463575
-0.0463122
-0.046267
-0.0412217
-0.0411538
-0.0411312
-0.0311538
-0.0212217
-0.0213348
-0.00647057
0.0133484
0.0181901
-0.0119909
-0.0871493
-0.15233
-0.212511
-0.252715
-0.302941
-0.368167
-0.423394
-0.468643
-0.483891
-0.48414
-0.449389
-0.414638
-0.369864
-0.310068
-0.245249
-0.170362
-0.120362
-0.0902941
-0.065181
-0.0500905
-0.025
-0.00488686
0.0102263
0.0203394
0.025362
0.0203846
0.0104073
0.0103846
0.0203394
0.0252941
0.0302715
0.0352489
0.0452715
0.0452941
0.0452941
0.0502941
0.0602715
0.0652489
0.0702263
0.0702489
0.0653168
0.0603846
0.0604525
0.0604751
0.0604977
0.0605656
0.070724
0.075905
0.0811312
0.0864253
0.0967647
0.0921041
0.0823982
0.0676471
0.0629864
0.0635747
0.0744344
0.0855204
0.0918552
0.0984389
0.0902941
0.0923756
0.0945702
0.0868326
0.0840498
0.0711765
0.0580769
0.0547285
0.0610634
0.0620136
0.0576471
0.0529864
0.0481222
0.0480543
0.0478281
0.052534
0.0521946
0.0468326
0.036448
0.0260408
0.0205883
0.0150905
0.0195475
0.0239819
0.0234163
0.0228507
0.0172625
0.0166742
0.0210407
0.0253846
0.0247059
0.0190272
0.0283484
0.0326471
0.0369457
0.0361765
0.0353846
0.0395928
0.0438235
0.0480317
0.0522398
0.0614706
0.0806787
0.0949095
0.104163
0.108484
0.107805
0.112217
0.111719
0.116244
0.115633
0.114661
0.113394
0.111855
0.115181
0.113281
0.116086
0.113665
0.101086
0.0884842
0.0758824
0.0734616
0.0661765
0.0641177
0.0573529
0.0408597
0.0197285
-0.00617647
-0.0219231
-0.0325339
-0.0380317
-0.0434163
-0.0486878
-0.0488688
-0.0439593
-0.0440272
-0.044095
-0.0392082
-0.0343439
-0.0344344
-0.0394796
-0.0394796
-0.044457
-0.0393891
-0.0343213
-0.039276
-0.0392082
-0.0391403
-0.0340724
-0.0340272
-0.0390045
-0.0390498
-0.0391403
-0.039276
-0.0445023
-0.0497964
-0.055181
-0.050543
-0.0409276
-0.0362896
-0.0316063
-0.0269005
-0.0122172
-0.00262443
-0.0231222
-0.0786425
-0.14414
-0.194593
-0.250023
-0.300385
-0.355747
-0.406154
-0.431561
-0.446968
-0.437443
-0.427896
-0.388281
-0.348597
-0.288801
-0.218937
-0.159027
-0.10914
-0.0742534
-0.0493665
-0.0294796
-0.0195928
-0.0146832
-0.0097285
0.000226255
0.0101358
0.025
0.0298416
0.0346606
0.0345023
0.0293665
0.0292534
0.0391177
0.0439367
0.0587104
0.0635068
0.0683711
0.0632579
0.0631222
0.0680317
0.0678959
0.0727602
0.0726244
0.0724887
0.0773982
0.0823756
0.0823982
0.0824661
0.0875792
0.0827602
0.0879412
0.0830769
0.0832127
0.0784389
0.0789367
0.0797285
0.0807919
0.0870588
0.0885521
0.0902941
0.0822625
0.0843892
0.0865611
0.0837331
0.0757919
0.0676244
0.0691629
0.065362
0.0711991
0.0667421
0.0621267
0.0674208
0.0626018
0.0626697
0.0575792
0.052353
0.0420362
0.0416742
0.036267
0.0307919
0.0203168
0.0198643
0.0143892
0.0138462
0.0183258
0.0178281
0.0123077
0.00676472
0.00617648
0.005543
0.00490952
0.00934391
0.00880092
0.0182806
0.0227149
0.0321041
0.0364706
0.0457692
0.0500679
0.0593665
0.0786878
0.0929638
0.112172
0.116312
0.125475
0.124729
0.119027
0.123416
0.122851
0.132353
0.136923
0.136425
0.130679
0.129661
0.133439
0.121991
0.125317
0.123394
0.121244
0.118982
0.121674
0.109412
0.0772172
0.0452036
0.0133484
0.00178733
-0.00943438
-0.0103394
-0.0159728
-0.0214027
-0.0216516
-0.0217873
-0.0218552
-0.0319004
-0.0369457
-0.0369683
-0.0369683
-0.0369231
-0.0369231
-0.0369005
-0.0369004
-0.0419005
-0.0369005
-0.0318326
-0.0217421
-0.0215611
-0.0313348
-0.036086
-0.0358371
-0.0355656
-0.0202941
-0.0150679
-0.0148642
-0.0147285
-0.0196833
-0.0296833
-0.0347511
-0.0398643
-0.0400226
-0.0351357
-0.0202715
-0.000407238
0.00445702
-0.015724
-0.0709276
-0.136176
-0.191425
-0.236674
-0.2869
-0.342127
-0.39233
-0.422534
-0.432692
-0.427805
-0.402941
-0.3631
-0.308303
-0.243439
-0.163462
-0.103326
-0.0681222
-0.0528959
-0.0426471
-0.0373982
-0.027172
-0.0119457
-0.0017421
0.00341628
0.00857465
0.0187104
0.0188235
0.0188914
0.0239593
0.0390045
0.0390724
0.0391629
0.0442534
0.0442986
0.0543213
0.0593665
0.0644344
0.0544796
0.0445249
0.0395475
0.0495701
0.0645928
0.0696154
0.0797059
0.0799095
0.0802262
0.0756561
0.0811765
0.0917194
0.102285
0.102851
0.093371
0.0888462
0.0743891
0.0701584
0.0711991
0.0674887
0.0639593
0.0656335
0.0625339
0.0597059
0.0570815
0.0595249
0.0619683
0.0642987
0.0664253
0.0633258
0.0649774
0.0612896
0.0622172
0.0678507
0.0632579
0.0585294
0.0487104
0.0388462
0.0289367
0.0139593
0.00895929
0.00393666
0.00389141
0.00880091
0.0136652
0.0185294
0.0233484
0.0381901
0.0380317
0.0428507
0.0376244
0.0373756
0.0321267
0.0318552
0.0265837
0.0213122
0.0209955
0.0156561
0.0102941
0.0149095
0.0245475
0.0342082
0.048914
0.0686652
0.0834389
0.10319
0.112919
0.122624
0.117308
0.116991
0.121719
0.116538
0.126403
0.126176
0.135701
0.134932
0.133914
0.132692
0.131267
0.124638
0.112783
0.100814
0.0888235
0.0868778
0.0800905
0.0785068
0.0621946
0.0311539
0.000520367
-0.019819
-0.0299774
-0.0300452
-0.0350679
-0.0300226
-0.0349321
-0.0347511
-0.0345475
-0.0343213
-0.0340724
-0.0337104
-0.0333258
-0.0329412
-0.0325339
-0.0370814
-0.0366289
-0.0361765
-0.0307013
-0.0302262
-0.0347059
-0.0391403
-0.033552
-0.0279412
-0.0223529
-0.0118326
-0.00633483
0.00418553
-0.00529411
-0.0197737
-0.0393213
-0.053914
-0.0535747
-0.0432579
-0.0279185
-0.0225566
-0.00219456
0.00812218
-0.0116063
-0.0564253
-0.11629
-0.161176
-0.196041
-0.24086
-0.295656
-0.355475
-0.395317
-0.420158
-0.414977
-0.389796
-0.344593
-0.294367
-0.234095
-0.168756
-0.113348
-0.0778733
-0.0573077
-0.0367195
-0.0261086
-0.0155204
-0.00995475
0.000588237
0.0061086
0.0115837
0.0170136
0.0174208
0.0228507
0.0233032
0.0337783
0.029276
0.0298643
0.0354751
0.0461312
0.0467647
0.0523756
0.0629864
0.0735973
0.0742082
0.0747964
0.0753846
0.0809502
0.0864706
0.0970588
0.0976697
0.0882806
0.078914
0.0696606
0.0655204
0.0664932
0.0675113
0.0734389
0.0791855
0.0849095
0.0858145
0.0819909
0.0835068
0.0852715
0.0873077
0.0895928
0.0921267
0.0898869
0.0828507
0.0857919
0.0835973
0.0811312
0.0784163
0.0704751
0.0672624
0.0638235
0.0700452
0.060905
0.056448
0.0518552
0.0472172
0.0476244
0.0380091
0.0383937
0.0337104
0.0389593
0.0391403
0.0392986
0.024457
0.0196154
0.019819
0.0200226
0.0252036
0.0253167
0.0253846
0.0254525
0.0255656
0.0256787
0.0207466
0.0207919
0.00581448
0.000837103
0.0108371
0.0258824
0.0359955
0.0411991
0.0513801
0.0664932
0.0765158
0.0864027
0.0962444
0.101086
0.105973
0.105928
0.106063
0.111312
0.116493
0.121493
0.126176
0.115633
0.0999095
0.0940045
0.0928733
0.0914706
0.0849548
0.078371
0.0768552
0.0704525
0.0642534
0.0482579
0.0325113
0.0121041
-0.00300905
-0.0179412
-0.0277828
-0.0375113
-0.0421719
-0.0467873
-0.0513575
-0.0608371
-0.0552489
-0.049638
-0.0440045
-0.0433484
-0.0426697
-0.0420362
-0.0414027
-0.0457918
-0.0501584
-0.0544796
-0.053733
-0.0479864
-0.0522398
-0.0514932
-0.0557466
-0.0550226
-0.054276
-0.0535294
-0.0477376
-0.0569457
-0.0511539
-0.0404299
-0.029819
-0.0343213
-0.0439367
-0.0486199
-0.0483258
-0.0180543
0.0172398
0.0225565
-0.0121041
-0.0767647
-0.141448
-0.196154
-0.24586
-0.300588
-0.355317
-0.405023
-0.449729
-0.449457
-0.429163
-0.378891
-0.333665
-0.283416
-0.228145
-0.177828
-0.117466
-0.0670362
-0.0266064
-0.0161312
-0.0156109
-0.0250679
-0.0245023
-0.0189819
-0.00848418
0.00699094
0.022466
0.0279185
0.028371
0.0287556
0.0191176
0.019457
0.024819
0.0352036
0.0455882
0.0459276
0.0412896
0.0416289
0.0469683
0.0473077
0.0577149
0.0630995
0.0734389
0.0737782
0.0641629
0.0546153
0.0500905
0.0505882
0.0511538
0.0667421
0.0773529
0.0879638
0.0935068
0.0839819
0.0644796
0.050181
0.0462217
0.0425565
0.0541629
0.0610633
0.06819
0.0654751
0.0628959
0.0653846
0.0528507
0.0451357
0.0372398
0.0391176
0.0407466
0.0470814
0.0530769
0.0437783
0.0342307
0.0295248
0.0297059
0.0248416
0.0198868
0.0198416
0.0147511
0.00461534
-0.00558829
-0.0057919
-0.00599553
-0.0112218
-0.0114706
-0.00174214
0.00798637
0.00766964
0.00235289
-0.00298648
-0.00834846
-0.00873309
-0.00409509
0.00549767
0.0150904
0.0196606
0.0142307
0.0138008
0.00837098
0.0129638
0.0224886
0.0370135
0.0515611
0.0661312
0.0806787
0.090181
0.0946832
0.0991855
0.0988461
0.0986878
0.098552
0.0982805
0.0977375
0.101923
0.10086
0.104547
0.102964
0.0961086
0.0890271
0.081742
0.0745248
0.072466
0.0756787
0.0641176
0.0477602
0.0316063
0.0156561
0.00504524
-0.00527151
-0.020362
-0.0354072
-0.0454525
-0.0505203
-0.0505656
-0.0455656
-0.045543
-0.0404977
-0.0354072
-0.0353167
-0.0352036
-0.0350679
-0.0299547
-0.0348642
-0.0347737
-0.034638
-0.024457
-0.0292534
-0.024095
-0.0239592
-0.0288461
-0.0437556
-0.0536425
-0.0485294
-0.0383936
-0.0333258
-0.038371
-0.0385068
-0.033733
-0.0340045
-0.0293212
-0.0245475
-0.0146832
0.00520364
0.0250905
0.0198869
-0.0254298
-0.0958145
-0.156199
-0.211606
-0.271968
-0.332285
-0.382534
-0.417783
-0.433032
-0.428258
-0.393507
-0.358756
-0.309005
-0.259208
-0.199344
-0.139412
-0.0893891
-0.0543891
-0.0343891
-0.0243891
-0.0243891
-0.0143891
0.000588246
0.00554299
0.0104525
0.0153167
0.0201358
0.0249548
0.0347964
0.0396154
0.0444118
0.0442308
0.0541176
0.0490045
0.0488461
0.0486652
0.0534615
0.0532805
0.0581222
0.0580317
0.0579864
0.0579638
0.0578959
0.0577828
0.0576244
0.0624887
0.0674208
0.0724208
0.0774887
0.0775566
0.0775792
0.0726018
0.0727828
0.0682579
0.0640724
0.0651584
0.0614932
0.0580769
0.0548642
0.0568099
0.0638688
0.0710181
0.0781222
0.0800452
0.0817195
0.0681448
0.054276
0.0451131
0.040724
0.0461086
0.056267
0.0612896
0.0461991
0.0311086
0.0209728
0.020724
0.020362
0.0149321
0.00945701
0.00393665
0.00843892
0.0178959
0.0223303
0.0266968
0.0210407
0.0154072
0.00979637
0.014276
0.0187556
0.0182579
0.0177602
0.0122624
0.0166742
0.0210633
0.0303846
0.0346154
0.0388009
0.0430091
0.0473077
0.0616742
0.0760407
0.0853393
0.0995701
0.108778
0.117964
0.112172
0.101425
0.105769
0.110249
0.119887
0.124502
0.123891
0.117964
0.116765
0.115339
0.108665
0.0967421
0.0895475
0.082172
0.0747059
0.0623077
0.0501358
0.0381901
0.0265159
0.0100905
-0.0010407
-0.0169004
-0.0225339
-0.033009
-0.038371
-0.0386878
-0.0440045
-0.0442534
-0.0394117
-0.0345475
-0.034638
-0.0347059
-0.0347511
-0.039819
-0.0398869
-0.0349321
-0.0299321
-0.0349095
-0.034819
-0.0297737
-0.0297737
-0.029819
-0.0348868
-0.0349547
-0.04
-0.0400452
-0.0401357
-0.0352715
-0.0254525
-0.0207013
-0.0209728
-0.0262896
-0.0266063
-0.026923
-0.0122398
0.0124435
0.0221041
-0.00828052
-0.0686878
-0.144095
-0.204502
-0.259864
-0.315271
-0.360701
-0.391176
-0.416652
-0.432036
-0.42233
-0.387511
-0.337624
-0.287692
-0.227783
-0.162919
-0.108032
-0.0681221
-0.0331221
-0.0180543
-0.0079864
-0.018009
-0.0181448
-0.00830314
0.00156111
0.00649323
0.0114027
0.021267
0.0211086
0.0309955
0.0409276
0.0608824
0.0658371
0.0607692
0.0557014
0.0406335
0.0355656
0.0304977
0.0304072
0.0402715
0.0550453
0.0648416
0.0797059
0.0946606
0.0896606
0.0747059
0.0597738
0.0548416
0.0599548
0.0700679
0.0851584
0.0952941
0.100588
0.101176
0.0970362
0.0880996
0.0793665
0.0658824
0.0677376
0.0748643
0.077172
0.079457
0.0766516
0.0736426
0.0704073
0.0819005
0.0880769
0.093914
0.0844797
0.069819
0.055
0.0450905
0.0401131
0.0350679
0.0349095
0.0346606
0.0343665
0.0290272
0.0286199
0.0281674
0.0226471
0.0171493
0.0167195
0.0113348
0.0109502
0.0105204
0.0200679
0.0295701
0.0290724
0.0235747
0.0180769
0.0125113
0.0169005
0.0263122
0.035724
0.045181
0.0446154
0.0440271
0.0433937
0.0527149
0.0620362
0.0713801
0.0857918
0.0902262
0.104706
0.10914
0.113575
0.117986
0.117466
0.122036
0.126652
0.131154
0.125407
0.119366
0.108077
0.111538
0.109751
0.11276
0.110633
0.0934389
0.076267
0.0541855
0.0372851
0.0256109
0.0141629
0.00798642
-0.00789594
-0.0185068
-0.033914
-0.0391855
-0.0344118
-0.0295928
-0.0197964
-0.0249321
-0.0299774
-0.0449774
-0.0449548
-0.0399321
-0.0398643
-0.0447964
-0.0446833
-0.0445249
-0.0392986
-0.0390724
-0.0438688
-0.0487104
-0.0436652
-0.0386652
-0.0337557
-0.0239367
-0.00909503
-0.00923077
-0.0192986
-0.0292986
-0.034276
-0.0393439
-0.0395475
-0.0348643
-0.0302262
-0.015543
-0.000791861
0.00407239
-0.0210407
-0.0761539
-0.14129
-0.196471
-0.236719
-0.287036
-0.352376
-0.407647
-0.447828
-0.447986
-0.428145
-0.383326
-0.338484
-0.288597
-0.223597
-0.153507
-0.098371
-0.0582353
-0.0331448
-0.0230996
-0.0180769
-0.0180769
-0.00312218
0.00183258
0.00680995
0.00683258
0.0169005
0.0270362
0.0371719
0.0322624
0.0222851
0.0172851
0.0172172
0.0271493
0.0321041
0.0371719
0.0373077
0.0424434
0.0475339
0.0575113
0.0674434
0.0673982
0.0674434
0.0575566
0.0577375
0.0629185
0.0680769
0.0782353
0.0783937
0.0785973
0.0738009
0.0740045
0.0641629
0.069457
0.0699321
0.0757014
0.0767421
0.083009
0.0845249
0.0813122
0.0783484
0.070543
0.0677828
0.0699548
0.0720362
0.0739367
0.0756561
0.0671493
0.0483484
0.0392081
0.0347964
0.0351584
0.0353846
0.0354977
0.0355656
0.030543
0.0254525
0.0302489
0.035
0.0347285
0.0294344
0.0141855
0.00389141
0.00359729
0.0032353
0.00787331
0.00751131
0.00712669
0.00674208
0.00638009
0.0110181
0.0156561
0.0152941
0.0198869
0.0294344
0.0339593
0.0484615
0.0679638
0.0724887
0.0820588
0.076629
0.0762217
0.0857919
0.100317
0.114796
0.124253
0.12871
0.12319
0.117805
0.107534
0.112353
0.117104
0.121652
0.125905
0.129842
0.133575
0.122059
0.105271
0.0882579
0.0811086
0.0789819
0.0769457
0.0651357
0.0485747
0.0322625
0.016267
0.0106335
0.000294128
-0.00484162
-0.00988687
-0.0149321
-0.0149321
-0.00988687
-0.00975112
-0.0145927
-0.0244118
-0.0392534
-0.0540498
-0.0538009
-0.0485068
-0.0382579
-0.0330769
-0.0229185
-0.0227149
-0.0274208
-0.0420362
-0.0466063
-0.0461991
-0.0407918
-0.0204072
-0.0150226
-0.014638
-0.0242986
-0.0290045
-0.0337783
-0.0335747
-0.028371
-0.02819
-0.0180317
-0.0179186
-0.00778281
0.00735294
0.0224887
0.00755656
-0.0273982
-0.0873982
-0.142421
-0.192443
-0.242421
-0.297376
-0.34733
-0.387285
-0.402285
-0.397285
-0.372285
-0.332308
-0.287308
-0.23724
-0.187104
-0.126991
-0.0868778
-0.0517421
-0.0315837
-0.0163801
-0.0111086
-0.00579186
-0.000452493
0.0099095
0.0152715
0.0255882
0.0358371
0.0360407
0.0411991
0.0363575
0.0365385
0.0367195
0.0418552
0.0469909
0.0421041
0.0372398
0.0373756
0.0425792
0.0428281
0.0480769
0.0533937
0.0637557
0.0741403
0.0795701
0.0850679
0.0905204
0.0909955
0.076448
0.0719231
0.0774661
0.0830769
0.0887104
0.0942986
0.0948416
0.0803846
0.0710633
0.0569457
0.0480769
0.039457
0.041086
0.0579864
0.0651131
0.0723756
0.0697285
0.0670362
0.0592081
0.0562217
0.0580543
0.0547059
0.046086
0.0421719
0.0379864
0.0285973
0.0190498
0.0143891
0.0196606
0.0298642
0.025
0.0150905
0.0101584
0.0102036
0.010181
0.0150905
0.0149095
0.0146154
0.0143439
0.019095
0.023914
0.0237557
0.0136425
0.0035294
-0.011629
-0.0168552
-0.0121267
-0.00739821
0.0023303
0.0121041
0.0218552
0.0315837
0.041267
0.0459728
0.0506787
0.0553846
0.0651131
0.0797964
0.0895023
0.0842082
0.0789367
0.0788009
0.0837557
0.0936878
0.103462
0.112964
0.112217
0.106244
0.100091
0.0936878
0.0870362
0.0851584
0.0782127
0.0762896
0.0795249
0.0729864
0.0566968
0.0306787
0.0149095
0.00441176
-0.0059276
-0.0111086
-0.0212217
-0.0362443
-0.0461765
-0.0560407
-0.0658145
-0.0605204
-0.0452262
-0.0299095
-0.0245475
-0.0292082
-0.0388462
-0.0434842
-0.0430317
-0.0275113
-0.0269683
-0.0214706
-0.0260634
-0.0257014
-0.0353168
-0.0398869
-0.0394118
-0.048914
-0.0484389
-0.0479864
-0.0425792
-0.0371719
-0.0217647
-0.0163122
-0.0158371
-0.0204072
-0.0250453
-0.0247059
-0.0144118
0.00581447
0.0209955
0.0161538
-0.018733
-0.0736652
-0.123643
-0.173665
-0.22371
-0.278756
-0.32371
-0.348688
-0.378688
-0.383733
-0.368778
-0.338801
-0.298778
-0.25871
-0.20862
-0.158552
-0.113507
-0.0834842
-0.0534389
-0.038371
-0.0282353
-0.0180317
-0.00776019
0.00246606
0.0126244
0.0177602
0.0278959
0.0330543
0.0382579
0.0484615
0.0436425
0.0437783
0.0389366
0.0390724
0.0392081
0.0393213
0.0444118
0.0444796
0.0495249
0.0495701
0.0545928
0.064638
0.0747285
0.0798869
0.0801584
0.0704977
0.0658597
0.0662217
0.0665837
0.0769909
0.0824661
0.0829864
0.0884389
0.0737783
0.0690271
0.059276
0.0597059
0.0604299
0.0614932
0.0628054
0.0543213
0.056086
0.0630543
0.0751584
0.0773982
0.079638
0.0718326
0.0638688
0.0556335
0.0470814
0.04319
0.0440045
0.0495475
0.0498869
0.0550905
0.050181
0.0351357
0.025
0.00979636
0.00454748
0.009276
0.0140271
0.0137783
0.0185068
0.0182353
0.0129185
-0.00742084
-0.0227828
-0.0230996
-0.00846156
0.00617646
0.0107466
0.00531673
-0.000113145
-0.0105656
-0.0109955
-0.00151585
0.0129185
0.0323303
0.0367194
0.0411312
0.0355882
0.0300679
0.0245249
0.0339366
0.0433032
0.0577149
0.0772624
0.0919231
0.0966289
0.091267
0.090724
0.0849095
0.0838688
0.0776244
0.0761538
0.0694118
0.0774661
0.0854525
0.088371
0.0813348
0.0644118
0.0476471
0.0360407
0.0246154
0.0183937
0.0173982
0.0166063
0.000927595
-0.0145928
-0.0350226
-0.0453394
-0.0505883
-0.0457919
-0.0409276
-0.0410407
-0.0411086
-0.0461312
-0.0511312
-0.051086
-0.0460181
-0.0359955
-0.0359729
-0.0259729
-0.0259955
-0.0310181
-0.0360407
-0.0460181
-0.0459729
-0.0408824
-0.0307919
-0.025724
-0.0256109
-0.0304977
-0.0454073
-0.0503846
-0.0504751
-0.0456561
-0.0409276
-0.041267
-0.0416063
-0.0419005
-0.0321719
-0.0123982
0.00728506
0.0119231
-0.0184842
-0.0738914
-0.139299
-0.194729
-0.245181
-0.305724
-0.356244
-0.391719
-0.422081
-0.427376
-0.417647
-0.377941
-0.323258
-0.268552
-0.218824
-0.169072
-0.119231
-0.0843213
-0.0593665
-0.0443665
-0.0293665
-0.0194118
-0.0145249
-0.0147059
-0.00493213
0.00488687
0.0197285
0.0296154
0.0245475
0.0245023
0.024457
0.0293213
0.034095
0.0438235
0.0485746
0.058371
0.0581674
0.0479412
0.0477375
0.0425339
0.0523756
0.0622624
0.0671946
0.0771946
0.0772172
0.0822851
0.0823529
0.0873756
0.0923303
0.0972851
0.0872172
0.0671719
0.0622398
0.0674887
0.0780317
0.0838235
0.0898643
0.0911086
0.0876018
0.0892986
0.0961765
0.0981222
0.090181
0.0771946
0.0640724
0.055724
0.0521267
0.0582353
0.0591176
0.0647059
0.0650905
0.0653393
0.0704977
0.0655203
0.0604072
0.0451584
0.0398416
0.0395023
0.0341855
0.0388914
0.0335747
0.0332579
0.0328959
0.0274661
0.0320136
0.0365611
0.0361538
0.035724
0.040362
0.0400226
0.039638
0.0342308
0.0287556
0.0232353
0.0227149
0.0322172
0.0317421
0.0412443
0.0507692
0.0652489
0.0797285
0.0941629
0.113575
0.127964
0.137376
0.131833
0.12629
0.120792
0.125385
0.130068
0.129751
0.129321
0.128665
0.132715
0.136538
0.145136
0.138484
0.131629
0.114638
0.0974887
0.0903394
0.0832353
0.0763575
0.0597511
0.0434163
0.0323077
0.0114253
0.000769238
-0.0097285
-0.0150905
-0.0203394
-0.0254751
-0.020543
-0.0206109
-0.0157014
-0.0207919
-0.0208371
-0.0307919
-0.0356561
-0.0405204
-0.0453846
-0.0452715
-0.0402036
-0.0301131
-0.02
-0.0148416
-0.00966063
-0.00950226
-0.0194344
-0.0294118
-0.0394118
-0.0393891
-0.0343213
-0.029276
-0.0292534
-0.0343213
-0.0394118
-0.0345475
-0.0246606
-0.0147285
0.000181002
0.0100226
0.00472852
-0.0205656
-0.0808145
-0.140995
-0.196131
-0.246244
-0.30138
-0.351584
-0.391787
-0.411968
-0.427104
-0.407217
-0.372308
-0.327353
-0.287376
-0.237376
-0.197353
-0.142308
-0.102195
-0.0720136
-0.0517647
-0.036448
-0.0211538
-0.010905
-0.00572398
-0.00561086
-0.00552037
-0.00549774
-0.000452489
-0.000407241
0.00470588
0.014819
0.0198869
0.0249774
0.0250905
0.0302036
0.0253394
0.0204977
0.0256335
0.0257692
0.030905
0.0410181
0.0460633
0.0510407
0.0510633
0.056086
0.0461765
0.0413348
0.0366063
0.0469683
0.0573982
0.0678733
0.0633258
0.0537783
0.0543439
0.0551357
0.0562217
0.0576018
0.0642081
0.0610633
0.0581222
0.060362
0.0576923
0.0600679
0.0574208
0.0545475
0.0514706
0.0580769
0.0543439
0.0553167
0.046086
0.0416968
0.0371719
0.0375339
0.0377828
0.0378507
0.0378281
0.0326923
0.0225339
0.0123756
0.00719457
0.011991
0.0167421
0.0265158
0.026267
0.0210181
0.010724
0.00538462
0.00500001
0.00957014
0.0241629
0.0237783
0.0284389
0.0230995
0.0277828
0.0324661
0.0421493
0.0517873
0.0513575
0.055905
0.0554525
0.0650226
0.0796154
0.0992081
0.108778
0.118326
0.117873
0.112421
0.122014
0.126674
0.136403
0.131131
0.125769
0.120158
0.114253
0.113122
0.116742
0.125136
0.123348
0.121425
0.109412
0.0923303
0.0703846
0.0436425
0.0271719
0.015905
0.0148643
0.00898191
-0.00165157
-0.0170814
-0.0323529
-0.0425113
-0.0426018
-0.0376018
-0.0375113
-0.0273982
-0.0223077
-0.0122851
-0.0122851
-0.0172851
-0.0322851
-0.0322624
-0.0271493
-0.0269909
-0.0268099
-0.026629
-0.031448
-0.0313122
-0.0262217
-0.0261086
-0.0309955
-0.030905
-0.0207692
-0.0056561
-0.00558823
-0.0055656
-0.0105656
-0.0156335
-0.0257918
-0.0310633
-0.0313348
-0.0216063
-0.00183257
0.00791856
-0.0223529
-0.0775792
-0.14776
-0.207896
-0.253077
-0.308281
-0.353529
-0.393756
-0.408937
-0.414118
-0.399276
-0.354412
-0.314502
-0.259548
-0.199502
-0.139389
-0.0992082
-0.0690272
-0.0538688
-0.043733
-0.0286199
-0.0085068
0.00162895
0.0167873
0.0169231
0.0120362
0.0121719
0.0223303
0.0325113
0.0326923
0.0328733
0.033009
0.0330543
0.0380995
0.0431448
0.0482127
0.0433032
0.0434389
0.0435747
0.0537104
0.0538235
0.0589819
0.0591855
0.0594344
0.0647059
0.0599547
0.0602262
0.0604751
0.060724
0.0610633
0.061448
0.0618326
0.0672624
0.0777828
0.0784842
0.0794344
0.0756109
0.0720362
0.068733
0.065724
0.0729186
0.0702263
0.0774887
0.0746833
0.0667421
0.0586199
0.0602941
0.0616742
0.0527376
0.0434616
0.0289367
0.0242534
0.0244796
0.0296154
0.0296606
0.0246154
0.019457
0.0141855
0.0138688
0.00850679
-0.00187782
-0.00228506
0.00235295
0.016991
0.0216742
0.0263801
0.0260407
0.0256335
0.0152036
0.00977376
0.00932127
0.00884616
0.0133937
0.0179186
0.0224661
0.0220136
0.0215611
0.0310407
0.0305204
0.0400453
0.0546154
0.0642082
0.0737783
0.0783032
0.0928054
0.112285
0.121787
0.13129
0.13086
0.130475
0.125113
0.114615
0.103891
0.0928733
0.101584
0.110113
0.113394
0.101493
0.0893665
0.0821493
0.0749095
0.0628054
0.0459502
0.0293213
0.0129864
-0.00807692
-0.0238235
-0.0343213
-0.034638
-0.0349095
-0.030181
-0.030362
-0.0354299
-0.0404072
-0.0403167
-0.0452262
-0.0601584
-0.0700905
-0.0699774
-0.0647964
-0.054638
-0.0444796
-0.0293665
-0.039276
-0.0441176
-0.048914
-0.0486652
-0.0434615
-0.0433258
-0.0382805
-0.0382127
-0.0431448
-0.0480543
-0.0479638
-0.0429412
-0.0379638
-0.0380543
-0.0331674
-0.0232805
-0.0284389
-0.0186199
-0.00886878
-0.00911765
-0.0293439
-0.0745249
-0.119706
-0.164864
-0.21
-0.275136
-0.345271
-0.39543
-0.425566
-0.415701
-0.395769
-0.355815
-0.315837
-0.270815
-0.215701
-0.16052
-0.105317
-0.0751131
-0.0549548
-0.0448416
-0.0246833
-0.00950227
0.000701353
0.0108823
0.0210407
0.0211991
0.0313575
0.0415385
0.0466742
0.04681
0.0519457
0.0521493
0.0473756
0.0526244
0.0528733
0.0581222
0.0633258
0.0684842
0.0736425
0.0688235
0.0690271
0.0642081
0.0693891
0.0695475
0.0796833
0.0798642
0.0800905
0.0854072
0.0807918
0.0861991
0.091629
0.0920136
0.0873982
0.0779186
0.0786425
0.0746154
0.0858145
0.0921719
0.0936878
0.0904299
0.0873982
0.0895249
0.0867873
0.0891403
0.0864706
0.0985973
0.105475
0.107059
0.0933937
0.0844796
0.0753167
0.0659729
0.0664706
0.0567647
0.0419457
0.0320362
0.0371041
0.0471267
0.0420815
0.0370362
0.0269683
0.0268552
0.0267195
0.0265611
0.0263575
0.0261312
0.020905
0.0256787
0.0254751
0.0352941
0.0401358
0.0299095
0.0246154
0.019276
0.0238914
0.0385747
0.0582805
0.0630317
0.0628054
0.0625566
0.0622625
0.0769231
0.0915611
0.101176
0.105792
0.105475
0.115272
0.120045
0.134864
0.134706
0.134548
0.134299
0.133824
0.128167
0.11733
0.111335
0.105068
0.103507
0.101742
0.0948416
0.0829864
0.0712217
0.054638
0.0332353
0.0120588
-0.00382353
-0.0193891
-0.0296833
-0.0348642
-0.0299774
-0.0400452
-0.04
-0.0448642
-0.0447059
-0.0445023
-0.0492081
-0.0488914
-0.0585068
-0.0580543
-0.0575566
-0.0520362
-0.0515158
-0.0510181
-0.0505656
-0.0501131
-0.0496833
-0.0492308
-0.0437557
-0.0432579
-0.0477376
-0.0472398
-0.0367647
-0.0313348
-0.0259502
-0.0205882
-0.0202036
-0.0298416
-0.0395249
-0.0392308
-0.0340045
-0.0288009
-0.0136199
0.00156109
-0.00828054
-0.0431674
-0.0880543
-0.137986
-0.172851
-0.21267
-0.272489
-0.33233
-0.377217
-0.397081
-0.406946
-0.396765
-0.361584
-0.316335
-0.256018
-0.205656
-0.160339
-0.120045
-0.0947285
-0.0743891
-0.0490045
-0.0386425
-0.0283258
-0.023009
-0.0126244
0.00782806
0.00828054
0.00868778
0.0140271
0.0193665
0.0197059
0.0150226
0.0102941
0.010543
0.0157692
0.0210407
0.0263348
0.0367195
0.0421267
0.0524661
0.0577828
0.0680543
0.0583258
0.0536652
0.0490724
0.0445023
0.0449321
0.0503846
0.0608597
0.0713801
0.0819231
0.0824208
0.0728733
0.0582805
0.0587557
0.0593439
0.065181
0.0662217
0.0674887
0.0739593
0.0706335
0.0675339
0.0596606
0.0569683
0.0543439
0.0517647
0.0541177
0.0563122
0.0582353
0.0599095
0.0612896
0.0573756
0.0481448
0.0337104
0.029095
0.0343439
0.0394796
0.0395701
0.0345928
0.0295701
0.0344796
0.0343439
0.0241855
0.0190045
0.0138235
0.00857468
0.00330318
-0.00201356
0.00269232
0.00744345
0.0122398
0.0170588
0.0218326
0.0215837
0.021267
0.0209502
0.0206561
0.0203394
0.0250453
0.029819
0.0446154
0.0493891
0.0541403
0.0588688
0.0685747
0.0782806
0.0880091
0.0977602
0.107511
0.107262
0.107059
0.106787
0.10638
0.110792
0.105023
0.0991403
0.0980995
0.0967647
0.100158
0.0933484
0.0864932
0.0746154
0.067828
0.0612443
0.0498642
0.0387783
0.0328733
0.0271267
0.0115611
-0.00382353
-0.0140498
-0.0190724
-0.0240272
-0.0339593
-0.0439367
-0.0488914
-0.053733
-0.0485068
-0.0432127
-0.0428733
-0.0425113
-0.0371719
-0.0269005
-0.0217195
-0.0215837
-0.0264253
-0.031267
-0.041086
-0.0408145
-0.0354751
-0.0351131
-0.0297738
-0.0244796
-0.0242986
-0.0191629
-0.0190724
-0.0190498
-0.0240724
-0.0291177
-0.0241629
-0.0142081
0.00576923
0.020724
0.0305882
0.0253846
0.00515837
-0.0350905
-0.0803394
-0.130566
-0.175814
-0.221041
-0.27629
-0.336538
-0.381833
-0.402149
-0.412489
-0.397873
-0.368281
-0.318665
-0.273959
-0.224118
-0.17914
-0.129118
-0.0991177
-0.0742308
-0.0544118
-0.0345701
-0.019638
-0.0146154
-0.00452489
0.00558823
0.0157014
0.0207692
0.020724
0.0206335
0.0255204
0.0303846
0.0402489
0.0400905
0.0299095
0.0197285
0.0145249
0.0243213
0.0291629
0.0440498
0.0490272
0.044095
0.0442308
0.0393891
0.0345249
0.034638
0.0447285
0.0547964
0.0599095
0.0550905
0.0452941
0.0404977
0.0406335
0.0457919
0.0611086
0.0666742
0.0725113
0.0685294
0.0647738
0.0563122
0.0481222
0.0452262
0.0524434
0.0547285
0.0569457
0.0490272
0.045905
0.0374887
0.0287783
0.0297285
0.0253846
0.0358371
0.0461765
0.0464253
0.0315385
0.0165385
-0.00357465
-0.00873302
-0.00395926
0.0107466
0.0153394
0.00986426
-0.00563347
-0.021086
-0.0264706
-0.02681
-0.0221493
-0.0124887
0.00217195
0.0118326
0.0114706
0.0160634
0.0156335
0.00513575
-0.00536199
-0.000859719
0.00861992
0.0280996
0.0426018
0.0470815
0.0515611
0.0610407
0.0705204
0.08
0.089457
0.098914
0.103416
0.108009
0.11767
0.117376
0.122104
0.126765
0.131244
0.125498
0.129548
0.128416
0.127104
0.120588
0.118801
0.116787
0.114638
0.117421
0.120271
0.113303
0.0916742
0.0603167
0.0292308
0.0133484
0.0076923
0.0171719
0.0267873
0.0264932
0.011267
-0.00886878
-0.0289593
-0.0389819
-0.0339366
-0.0238462
-0.00873303
-0.00364253
-0.00352941
-0.00337104
-0.00816742
-0.00794118
0.00228507
0.00746607
0.0175792
0.0226244
0.0176697
0.00771493
-0.0121719
-0.0320362
-0.0469457
-0.0519005
-0.0419683
-0.0321493
-0.0124208
-0.00271493
-0.00805429
-0.018371
-0.0136652
-0.00400452
0.0206787
0.025362
2.26302e-05
-0.0552941
-0.115633
-0.155905
-0.206154
-0.26638
-0.331674
-0.402014
-0.427353
-0.442624
-0.422873
-0.3981
-0.358348
-0.303575
-0.243778
-0.173982
-0.119095
-0.0841855
-0.0641629
-0.0490271
-0.0338688
-0.0237556
-0.00868778
-0.00368777
0.00626698
0.0112444
0.0262444
0.0361991
0.0361539
0.0310634
0.0209276
0.010724
0.0104977
0.0152941
0.0251357
0.0300679
0.0350679
0.0400679
0.0400679
0.0450679
0.0450226
0.0499321
0.0548416
0.0597738
0.0597964
0.0648643
0.07
0.0701584
0.070362
0.0656109
0.0658371
0.0710407
0.0711991
0.0713575
0.0716516
0.0722398
0.0631222
0.059276
0.0606787
0.0673077
0.0641629
0.0613122
0.0586425
0.0511086
0.0535068
0.0607919
0.0728507
0.0796606
0.0812217
0.0725566
0.0486878
0.0345249
0.0250905
0.0254072
0.0255656
0.0256335
0.0206561
0.0206787
0.0256787
0.0205656
0.0153394
0.01
0.00463801
0.00432127
0.00404977
0.00886878
0.00368778
-0.00149322
-0.00667422
-0.00190045
-0.00214932
-0.00237557
0.00239819
0.0121719
0.0219457
0.0266516
0.0263575
0.0259955
0.0305656
0.0400679
0.0595249
0.0790045
0.0984842
0.113054
0.13267
0.132262
0.121833
0.121425
0.111063
0.110792
0.120543
0.130158
0.13957
0.12871
0.11767
0.106425
0.109955
0.108235
0.101199
0.0890724
0.0818778
0.0747964
0.0678281
0.0560407
0.0395249
0.0283032
0.00744344
-0.0031448
-0.0185747
-0.033914
-0.0391855
-0.0443665
-0.049457
-0.0544344
-0.0493891
-0.0493213
-0.0392308
-0.0240498
-0.0288009
-0.0335294
-0.0382805
-0.0280769
-0.0229412
-0.0228507
-0.0227828
-0.0276471
-0.0324434
-0.0321946
-0.0269231
-0.0266742
-0.026448
-0.026267
-0.0211086
-0.0159729
-0.0158824
-0.0108597
-0.020905
-0.0209502
-0.0210181
-0.021086
-0.00617648
0.0087104
0.0286425
0.033552
0.00846153
-0.046629
-0.111697
-0.16681
-0.216968
-0.262149
-0.31733
-0.377489
-0.417647
-0.447805
-0.437964
-0.413054
-0.363054
-0.307986
-0.247805
-0.192602
-0.152376
-0.10724
-0.0771041
-0.0519683
-0.03181
-0.0166063
0.0036199
0.0138235
0.0190498
0.0292986
0.0345475
0.0397511
0.0349095
0.0300226
0.0301131
0.0252036
0.0303167
0.0304072
0.0304977
0.0355656
0.0406335
0.0456787
0.0507014
0.060724
0.0658145
0.0759955
0.0662217
0.0614706
0.0567647
0.0570814
0.0624434
0.0678959
0.0784389
0.0790498
0.0796606
0.0802715
0.0758145
0.0763575
0.0771041
0.0830769
0.0842986
0.0907692
0.0825339
0.084638
0.086991
0.0845023
0.0771041
0.0697511
0.0723077
0.0696606
0.0717195
0.0685068
0.0699547
0.0710633
0.0668778
0.0625113
0.0530317
0.0484389
0.048733
0.048914
0.0489819
0.0439819
0.033914
0.023733
0.0235068
0.0282805
0.0280543
0.0228733
0.0177376
0.0125792
0.0123756
0.0121267
0.0169005
0.0266968
0.0364706
0.0312443
0.0209728
0.0156561
0.0152941
0.0199095
0.0295701
0.039276
0.0490271
0.0588009
0.0735973
0.0883937
0.108167
0.112873
0.117511
0.117149
0.11681
0.121561
0.116425
0.121425
0.121448
0.12138
0.116063
0.11543
0.119548
0.123439
0.127104
0.11552
0.10871
0.101765
0.0896833
0.0726697
0.0557692
0.049095
0.0276697
0.0215837
0.00576922
0.00013574
-0.0153167
-0.0256335
-0.0308371
-0.040905
-0.0458371
-0.0456335
-0.050362
-0.0500679
-0.0547285
-0.0493665
-0.0439819
-0.0386199
-0.0333032
-0.0330091
-0.0327376
-0.0323982
-0.0370362
-0.0366742
-0.0313122
-0.0259502
-0.0205656
-0.0152036
-0.0198643
-0.0295475
-0.0341855
-0.0388914
-0.0486652
-0.0484615
-0.0483258
-0.0482353
-0.0481901
-0.0431222
-0.0280543
-0.00794119
0.00717193
-0.00276019
-0.0476697
-0.107624
-0.162557
-0.207511
-0.262443
-0.327421
-0.392398
-0.43733
-0.467285
-0.47224
-0.45224
-0.41224
-0.35724
-0.302195
-0.232081
-0.161878
-0.106561
-0.0812217
-0.0658597
-0.060543
-0.0452489
-0.0349548
-0.024638
-0.014276
-0.00391403
0.0164027
0.021629
0.02681
0.0269909
0.0271719
0.0323529
0.0325113
0.0376244
0.0427149
0.0477828
0.0478733
0.0530769
0.0533484
0.0586199
0.0638235
0.0740045
0.0841855
0.0743891
0.0646154
0.0548643
0.0551357
0.0554751
0.0558824
0.0663575
0.0719005
0.0873982
0.0878054
0.0831448
0.0785294
0.0691403
0.06
0.0611765
0.0575792
0.0592308
0.0661086
0.0682353
0.0704977
0.0778733
0.0803167
0.0726471
0.064819
0.0667873
0.0635068
0.0649095
0.0659955
0.0668326
0.0523982
0.047828
0.0481222
0.0533258
0.0534163
0.0534163
0.0433258
0.0281448
0.0179412
0.0127376
0.0125339
0.0123529
0.0121267
0.0118552
0.0115837
0.0163122
0.0210634
0.0208145
0.0105882
0.00538462
0.005181
0.00997739
0.0147738
0.0145475
0.0242987
0.039095
0.0488688
0.0486199
0.0533484
0.0630543
0.0626697
0.0772398
0.09181
0.10638
0.110973
0.110588
0.100271
0.1
0.104774
0.0994796
0.109027
0.108371
0.112511
0.111448
0.110158
0.108575
0.0966742
0.0946154
0.0824208
0.0802036
0.0780769
0.0711539
0.0595023
0.0381222
0.0170815
-0.00864254
-0.0191176
-0.0295023
-0.0297737
-0.0299547
-0.0299774
-0.0349321
-0.0448416
-0.0496833
-0.0495023
-0.0392534
-0.0289819
-0.0236425
-0.0232805
-0.0279412
-0.0275792
-0.0222398
-0.0169004
-0.0115611
-0.0112217
-0.0258823
-0.0305204
-0.0351584
-0.029819
-0.0295249
-0.0292534
-0.0289819
-0.0237783
-0.0186199
-0.0134842
-0.018371
-0.0182805
-0.0182579
-0.0132353
0.00176472
0.0268326
0.0418552
0.0318326
-0.0132127
-0.0733032
-0.138439
-0.188597
-0.243778
-0.298959
-0.354095
-0.379231
-0.399344
-0.409412
-0.394457
-0.364502
-0.32457
-0.27957
-0.224548
-0.169457
-0.119299
-0.079095
-0.053914
-0.0387104
-0.0234842
-0.0132353
-0.00296382
0.0123077
0.0225565
0.0227602
0.0229638
0.0181222
0.0132579
0.0183937
0.0335294
0.0386652
0.0438009
0.0439819
0.0441855
0.0393665
0.0344796
0.0295475
0.0296154
0.0346833
0.0447738
0.0548869
0.0500679
0.0503167
0.0455882
0.0458597
0.0461765
0.0565385
0.0668778
0.0672851
0.0677375
0.0632127
0.0636652
0.0640498
0.0745023
0.0802262
0.0862443
0.0774661
0.0638688
0.0555204
0.0574887
0.0546833
0.0571041
0.0645928
0.0570362
0.059276
0.0612443
0.0629186
0.0592986
0.0554299
0.0513122
0.0469909
0.0474434
0.0476697
0.0527375
0.0426923
0.0276244
0.00753393
0.00244343
0.00228505
-0.00296382
0.00174207
0.00642533
0.00613122
-0.00414029
-0.00938915
-0.00463802
-0.00493214
-0.000248872
0.00441176
0.0090724
0.0137783
0.0135068
0.0131901
0.0128281
0.0224434
0.0370588
0.0516742
0.0612896
0.065905
0.0655204
0.0601357
0.0647737
0.0693665
0.0839819
0.0935747
0.10319
0.102851
0.112602
0.117466
0.11733
0.117014
0.116425
0.120543
0.119412
0.118009
0.111335
0.109389
0.102398
0.0953394
0.0882579
0.076267
0.0694118
0.0527602
0.0413348
0.0251584
0.00923076
-0.00144797
-0.0119457
-0.0223077
-0.0276018
-0.0278507
-0.0330543
-0.03319
-0.0381901
-0.0430995
-0.0530091
-0.0478959
-0.0428281
-0.0428054
-0.0428281
-0.0428054
-0.0427602
-0.0476471
-0.0475113
-0.0423529
-0.0372172
-0.0321267
-0.0320815
-0.0271041
-0.0271493
-0.0322398
-0.0373303
-0.0374661
-0.0326018
-0.0327828
-0.0380091
-0.0382806
-0.033552
-0.0337783
-0.0289819
-0.0192308
-0.00954751
0.00513575
-0.020181
-0.0804299
-0.140611
-0.190769
-0.22095
-0.276222
-0.341516
-0.39181
-0.442127
-0.457421
-0.45767
-0.412896
-0.363054
-0.298145
-0.23319
-0.183213
-0.138213
-0.113235
-0.0833032
-0.058371
-0.0334163
-0.018371
-0.0132805
-0.00823528
-0.00828053
0.00158372
0.0114253
0.0162443
0.0211086
0.0260407
0.0309728
0.0308823
0.0307918
0.035724
0.0406335
0.0504977
0.0553167
0.0501584
0.0450679
0.0400226
0.045
0.0449547
0.0499547
0.05
0.0500679
0.0502036
0.0553394
0.0604751
0.0605882
0.0656561
0.0606561
0.0656787
0.0658371
0.0712217
0.0768778
0.067828
0.0590045
0.0554072
0.0570136
0.0588688
0.0658597
0.0729864
0.080181
0.0873077
0.0742987
0.0709955
0.0673756
0.0634163
0.0641403
0.059638
0.0549774
0.0552262
0.0553394
0.0503167
0.0501584
0.0448869
0.0445023
0.0490498
0.0486199
0.04319
0.0277602
0.0173077
0.0168099
0.011267
0.015724
0.020181
0.0345928
0.0389819
0.0383937
0.0277828
0.0221041
0.0164027
0.015724
0.0200905
0.0244796
0.0388462
0.0482353
0.0676471
0.0770362
0.0814253
0.0807919
0.0851584
0.094457
0.103688
0.112964
0.112262
0.106606
0.115995
0.125452
0.124955
0.12448
0.118891
0.108009
0.1069
0.100588
0.104163
0.0974887
0.0955204
0.0932806
0.0857919
0.0782805
0.0608145
0.0436199
0.0266968
0.0151131
0.00384615
-0.00721719
-0.00807692
-0.00382353
-0.00441176
-0.00986426
-0.0252036
-0.0454751
-0.0507014
-0.0508824
-0.0360407
-0.0311765
-0.0312896
-0.0363575
-0.0463801
-0.0463575
-0.0513348
-0.0563348
-0.0563575
-0.0513801
-0.0364027
-0.0214027
-0.0213801
-0.0314027
-0.0414932
-0.0466516
-0.0418326
-0.0420814
-0.0373756
-0.0277376
-0.0331674
-0.0285973
-0.0290045
-0.0293665
-0.0147285
0.0049095
0.0144796
-0.00597285
-0.0464253
-0.106855
-0.162217
-0.207602
-0.258054
-0.303575
-0.35914
-0.384729
-0.415317
-0.430837
-0.421267
-0.391561
-0.33181
-0.267014
-0.197195
-0.137376
-0.0924887
-0.0725566
-0.0625792
-0.0475339
-0.0324661
-0.0124661
0.00248869
0.0174208
0.0273303
0.0222172
0.0171041
0.016991
0.0168552
0.0216968
0.0215158
0.0263122
0.0311312
0.0409276
0.0458145
0.040724
0.0456335
0.0554977
0.0603167
0.0601131
0.0548869
0.0546606
0.0594344
0.059276
0.0541403
0.054095
0.049095
0.0541176
0.0591403
0.0741177
0.0840045
0.0738462
0.073733
0.0637557
0.0589819
0.054457
0.0551584
0.0660181
0.0670815
0.073371
0.064819
0.0613575
0.0579186
0.0594344
0.0608145
0.0720136
0.0779864
0.0686652
0.059095
0.044276
0.0342534
0.024095
0.0188462
0.0234842
0.0229638
0.0223982
0.0167647
0.0111086
0.0103846
0.00959276
0.00373303
-0.0021267
-0.00798643
-0.00382353
0.000339367
-0.00552036
-0.0114027
-0.0173303
-0.0132353
-0.0091629
-0.00513574
-0.00113122
0.00282806
0.00683258
0.00588236
0.00993213
0.0189593
0.0279412
0.0369683
0.0510181
0.0650679
0.0791403
0.0932579
0.0923303
0.091448
0.0856109
0.084819
0.089095
0.0984615
0.107896
0.10724
0.106448
0.0954072
0.0891629
0.0927376
0.101086
0.109253
0.112172
0.115
0.102715
0.0853846
0.0581448
0.0310633
0.0142534
0.00273755
-0.00343892
-0.0193439
-0.035
-0.0505204
-0.0659729
-0.0713575
-0.0616968
-0.0519457
-0.0521041
-0.0471493
-0.0371041
-0.0370362
-0.0419683
-0.0519005
-0.0568552
-0.05181
-0.0517647
-0.0517195
-0.041629
-0.0464932
-0.0463349
-0.0462217
-0.0461086
-0.0409729
-0.0408371
-0.0356787
-0.0305204
-0.0253394
-0.0251131
-0.0199095
-0.019819
-0.019819
-0.0199095
-0.0200226
-0.0050679
0.025
0.0451584
0.0452489
0.0153167
-0.0346833
-0.0797511
-0.119864
-0.155045
-0.200226
-0.255475
-0.300679
-0.320928
-0.331199
-0.316448
-0.291629
-0.251719
-0.201674
-0.141561
-0.0914254
-0.0512896
-0.0211991
-0.00615387
0.00384613
0.0188009
0.0438009
0.0538009
0.0738235
0.0788235
0.0888235
0.0888235
0.0838461
0.078914
0.0790271
0.0891629
0.0943213
0.0994344
0.0995022
0.0995022
0.0945023
0.0945701
0.0997285
0.104932
0.120158
0.125385
0.130633
0.130837
0.126063
0.126335
0.111674
0.112104
0.112624
0.113213
0.113846
0.119457
0.114977
0.105407
0.0958144
0.0963574
0.0972172
0.0933937
0.0947737
0.0862896
0.0829864
0.0748642
0.0720136
0.0744117
0.0719909
0.0745701
0.0720136
0.0692534
0.0662217
0.0578959
0.0542307
0.0552262
0.0559728
0.0515158
0.0519004
0.0420814
0.0321267
0.0271041
0.0270362
0.0319683
0.0319231
0.0268552
0.0167421
0.00660632
-0.0035068
-0.0085973
-0.00861992
-0.00364255
0.0013122
0.00124433
0.00610859
0.000859716
0.00058822
0.000271484
0.00493212
0.00961538
0.0143665
0.019276
0.0142081
0.00909501
0.00386877
-0.0013801
0.00339366
0.0232353
0.0430769
0.0579186
0.0678054
0.0577149
0.0477149
0.0378507
0.0430769
0.0482805
0.0533484
0.0632127
0.0678733
0.0823529
0.0916516
0.105769
0.0996832
0.0984615
0.0971945
0.0858371
0.0695249
0.0482579
0.0271267
0.0161538
0.000407225
-0.0100453
-0.0152036
-0.0151584
-0.0150905
-0.0100226
-0.0148869
-0.0145475
-0.0190498
-0.0183484
-0.0225566
-0.0217421
-0.0259503
-0.0402037
-0.0544797
-0.0638009
-0.0630996
-0.0473982
-0.0416742
-0.0308824
-0.0350452
-0.0442308
-0.0584615
-0.0626923
-0.0619004
-0.0560407
-0.0551357
-0.0442308
-0.0433258
-0.0424661
-0.0465837
-0.0557918
-0.0600452
-0.0593213
-0.0536878
-0.0330995
-0.0125113
0.00807693
0.00866516
-0.0207466
-0.0851584
-0.14457
-0.178959
-0.208348
-0.247805
-0.29733
-0.361923
-0.411538
-0.441154
-0.430792
-0.395385
-0.344955
-0.294548
-0.244163
-0.193824
-0.143507
-0.10319
-0.0678281
-0.0373303
-0.00662897
0.00920814
0.0100679
0.00592759
0.0017647
0.00755655
0.0233258
0.0340724
0.0447738
0.0504072
0.0459955
0.0265837
0.0172624
0.0179864
0.0287104
0.0444118
0.0700679
0.0856335
0.0911765
0.0967873
0.0924887
0.0782579
0.0490724
0.0449321
0.0607919
0.091629
0.102421
0.0981448
0.0888688
0.0896833
0.0905882
0.0815837
0.0776018
0.0735068
0.0742308
0.0748416
0.0804751
0.081267
0.0773982
0.0788914
0.0807692
0.0879638
0.0854977
0.0783484
0.0663122
0.0593892
0.0724887
0.0805656
0.0984616
0.111086
0.128371
0.140362
0.127036
0.103416
0.0895701
0.100566
0.111471
0.11233
0.0931674
0.0689819
0.0447738
0.0305656
0.0363122
0.0420362
0.0476697
0.0481674
0.0585068
0.0637783
0.0690272
0.0693892
0.0547964
0.0452489
0.0456561
0.0559729
0.0611991
0.0613349
0.0614706
0.0566516
0.0618778
0.062172
0.0674661
0.0627828
0.0680317
0.0782127
0.083371
0.103552
0.113756
0.11905
0.114412
0.104864
0.0953167
0.0956108
0.0956108
0.0852715
0.0847964
0.0891855
0.0984389
0.102511
0.101335
0.0999547
0.0984615
0.0870362
0.0757919
0.074819
0.074095
0.0736199
0.0733937
0.0734163
0.0636652
0.0290724
-0.0153394
-0.054638
-0.0688688
-0.0730543
-0.0672398
-0.0514706
-0.0457466
-0.0449774
-0.0441855
-0.0383258
-0.0373982
-0.041448
-0.0605882
-0.064819
-0.0590724
-0.0532579
-0.0373529
-0.0213348
-0.0152941
-0.0292308
-0.0431222
-0.0520362
-0.056086
-0.0603394
-0.0647059
-0.0640724
-0.058371
-0.0476244
-0.0419004
-0.0412217
-0.0406109
-0.0450679
-0.039638
-0.024276
0.00604072
0.0213122
0.0215611
-0.00819005
-0.0779412
-0.147692
-0.227466
-0.282262
-0.347036
-0.401833
-0.431674
-0.456493
-0.461312
-0.466041
-0.440724
-0.400339
-0.34491
-0.289434
-0.233869
-0.178281
-0.132692
-0.0971041
-0.0764027
-0.0606335
-0.0599321
-0.0543665
-0.053914
-0.0535294
-0.0481675
-0.0427828
-0.0273982
-0.0120362
0.00830314
0.0136651
0.019095
0.00959275
0.00511312
0.00558823
0.0110181
0.0214706
0.0269231
0.0423756
0.0428054
0.0382127
0.0286199
0.0240724
0.0245475
0.0200226
0.0304978
0.0359729
0.0364706
0.0320136
0.0326697
0.0333484
0.038914
0.0393892
0.0398869
0.0456788
0.0468552
0.0633484
0.0599774
0.0617421
0.0537557
0.0459502
0.0382579
0.0355882
0.0329412
0.0303168
0.0274887
0.0194344
0.016086
0.0124435
0.00852944
0.0044118
-0.00488685
-0.00434385
-0.0140271
-0.00898187
-0.00914022
-0.0194343
-0.0247963
-0.020181
-0.00556557
-0.000972807
0.00359732
-0.00180991
-0.0121719
-0.0225113
-0.0228733
-0.0133484
-0.00886875
-0.0144117
-0.0199547
-0.0203846
-0.0107013
-0.0109728
-0.0163122
-0.0167647
-0.00230771
0.0120588
0.0314027
0.045724
0.0600679
0.0594118
0.0587783
0.0581222
0.0724208
0.0866742
0.100882
0.110113
0.114457
0.123959
0.128575
0.133213
0.13276
0.126991
0.130905
0.134434
0.132715
0.130747
0.128552
0.106244
0.0938236
0.0814254
0.0740045
0.0716969
0.0695701
0.0727376
0.0611991
0.0399095
0.0138914
-0.00192311
-0.0175792
-0.0231901
-0.00880093
0.000520334
-0.000158407
-0.0107919
-0.0212896
-0.0216516
-0.0169684
-0.00723986
-0.00253398
0.00221716
-0.0080091
-0.0181901
-0.0233937
-0.0286426
-0.0289141
-0.0341856
-0.0244571
-0.0197738
-0.0150679
-0.0104073
-0.0157919
-0.021267
-0.0268326
-0.0224661
-0.0282127
-0.0239593
-0.0197512
-0.0255657
-0.0314254
-0.0272851
0.00183254
0.0159728
0.000113085
-0.0757693
-0.161629
-0.232511
-0.273348
-0.304231
-0.355068
-0.38586
-0.406606
-0.41233
-0.418077
-0.423824
-0.38957
-0.350272
-0.28595
-0.221629
-0.162285
-0.117964
-0.0786425
-0.0543665
-0.0400453
-0.0257466
-0.0214254
-0.00708146
0.00219456
0.0114253
0.0256561
0.0349321
0.0392307
0.0335746
0.0278959
0.0221719
0.0214027
0.0256109
0.0298417
0.0390951
0.0433258
0.0325113
0.0216516
0.0158597
0.0151131
0.0243892
0.0336878
0.0480543
0.0474661
0.0469684
0.0415611
0.0462218
0.0508824
0.060543
0.0701584
0.0797964
0.0845475
0.0845475
0.0749095
0.0705656
0.0614706
0.0575792
0.0489141
0.0504525
0.0521041
0.0588462
0.0606109
0.0522625
0.0487331
0.0449095
0.045724
0.0361765
0.0363575
0.0363349
0.0361539
0.0258598
0.0154978
0.0150905
0.00957017
0.00889144
0.00807696
0.0171494
0.0311539
0.0452037
0.0492987
0.0383937
0.00742084
-0.0186199
-0.0246832
-0.0207918
-0.0018778
0.00703623
0.00597288
-0.000158343
-0.00640268
-0.00269228
0.000972886
0.00463804
0.013258
0.0269457
0.0356335
0.0443666
0.0481222
0.0568552
0.070543
0.0841856
0.102828
0.111425
0.125091
0.128778
0.132489
0.131222
0.134977
0.133869
0.132783
0.136629
0.135113
0.138235
0.141041
0.143665
0.131176
0.108439
0.0855882
0.0676471
0.0647059
0.0567647
0.0488235
0.0310634
0.0134842
0.00624435
-0.00567873
-0.00726244
-0.0135973
-0.0147059
-0.0256561
-0.0314932
-0.0322624
-0.0380317
-0.0337557
-0.0294344
-0.0250452
-0.0205656
-0.0210181
-0.026448
-0.0269005
-0.0273756
-0.0279186
-0.0234615
-0.0190045
-0.0195023
-0.0199548
-0.0153846
-0.00590498
-0.0115385
-0.0222398
-0.0329864
-0.038733
-0.0395023
-0.0352489
-0.0360181
-0.04181
-0.0426471
-0.0434615
-0.0442534
-0.0350226
-0.0257466
-0.0364706
-0.077172
-0.147896
-0.208688
-0.25448
-0.295339
-0.341199
-0.387104
-0.417964
-0.433801
-0.43457
-0.410226
-0.370837
-0.30638
-0.2469
-0.177353
-0.127805
-0.08819
-0.053552
-0.0288688
-0.00920814
-0.00957013
-0.0049095
0.00472851
0.0193891
0.0290724
0.0388009
0.0436199
0.0435068
0.0433937
0.04819
0.0528281
0.0573077
0.0717647
0.0762444
0.0807919
0.0803846
0.0849548
0.0995023
0.104005
0.108529
0.108054
0.112624
0.107262
0.111991
0.10681
0.106674
0.106561
0.111448
0.116357
0.121222
0.126086
0.116018
0.116154
0.106516
0.0971267
0.0979638
0.0990498
0.110407
0.112036
0.118914
0.115928
0.117986
0.120068
0.117081
0.123891
0.12043
0.121652
0.117557
0.113235
0.108756
0.104163
0.104434
0.0945928
0.0896606
0.0746154
0.0645249
0.0544118
0.044276
0.034095
0.0338688
0.0386199
0.0433032
0.0429638
0.0376018
0.0322398
0.0269231
0.0266516
0.0263801
0.026086
0.0357466
0.035362
0.0399547
0.0345701
0.0341855
0.0338235
0.0434842
0.0582127
0.0679186
0.0776018
0.0872172
0.10181
0.11138
0.115973
0.120566
0.125136
0.124729
0.124299
0.128869
0.128507
0.138213
0.137873
0.142398
0.146606
0.140543
0.144299
0.137873
0.136267
0.124457
0.117511
0.10552
0.078552
0.0567195
0.0350905
0.0237557
0.00769231
-0.00303166
-0.0185068
-0.0237556
-0.0338462
-0.0388462
-0.0437557
-0.0486425
-0.0484389
-0.0531674
-0.0577828
-0.0573529
-0.0619004
-0.0614027
-0.055905
-0.0454072
-0.0399321
-0.0294344
-0.028914
-0.0283484
-0.0227602
-0.0221493
-0.0165158
-0.0158824
-0.010181
-0.00952488
-0.00386878
-0.00825792
-0.0126471
-0.0170588
-0.0264932
-0.0259955
-0.0255882
-0.0152036
-0.00486426
0.0204751
0.0408371
0.0362443
0.00665157
-0.0379412
-0.0875792
-0.137262
-0.186991
-0.246742
-0.306471
-0.356154
-0.385747
-0.390294
-0.389819
-0.369276
-0.33371
-0.293054
-0.242376
-0.186652
-0.135905
-0.105136
-0.0843439
-0.0685521
-0.0577602
-0.041991
-0.0262217
-0.0155204
-0.0148643
-0.00925339
-0.0087104
-0.00319004
0.00235295
0.0129412
0.023552
0.0341629
0.0397511
0.0352941
0.0258145
0.0213349
0.0268778
0.0374208
0.0480091
0.0586199
0.059276
0.0599095
0.055543
0.0561539
0.05181
0.0525113
0.0482579
0.0540272
0.0548416
0.0607014
0.0616063
0.0624435
0.0632579
0.0591177
0.0651131
0.0663349
0.0627376
0.0593213
0.0611086
0.0531222
0.0553846
0.0578281
0.055362
0.0579412
0.0555204
0.0580317
0.0604073
0.0575792
0.0544344
0.0509276
0.0471041
0.0480769
0.048914
0.044638
0.0402489
0.0307692
0.0312217
0.0366063
0.0369457
0.0322398
0.0174887
0.0126923
0.00285068
0.00298643
0.00812218
0.00321267
0.00328054
0.00334842
0.0134389
0.0135294
0.0136652
0.0188009
0.0189367
0.0191176
0.0142534
0.0193891
0.0194796
0.0345701
0.039638
0.0497285
0.0547964
0.054819
0.0648416
0.074819
0.094819
0.099819
0.114887
0.120023
0.120271
0.115656
0.106041
0.10629
0.106335
0.106154
0.115747
0.120136
0.124253
0.1131
0.0967421
0.0802715
0.0737783
0.0572851
0.0458824
0.029638
0.0185973
0.00780543
-0.00271493
-0.013009
-0.0231448
-0.02819
-0.0281448
-0.0330769
-0.0379412
-0.0377602
-0.0375339
-0.0372851
-0.031991
-0.0366742
-0.0413575
-0.0460181
-0.0455882
-0.0450679
-0.0444796
-0.0388462
-0.0382579
-0.0377376
-0.0422624
-0.04181
-0.0413575
-0.0458824
-0.0503846
-0.0498869
-0.0494344
-0.0440498
-0.043733
-0.0385068
-0.038371
-0.0333032
-0.0332127
-0.0281448
-0.0280769
-0.00803167
0.00199096
-0.00300905
-0.033009
-0.0829186
-0.117783
-0.15767
-0.192602
-0.242534
-0.292511
-0.327466
-0.352398
-0.357353
-0.362285
-0.347172
-0.326991
-0.286719
-0.226403
-0.171041
-0.120724
-0.0954525
-0.0752036
-0.0649774
-0.0497059
-0.0443439
-0.0339593
-0.0285294
-0.0230995
-0.0176923
-0.0123529
-0.0020362
0.00328054
0.00357466
0.00384616
0.00914027
0.0143665
0.0195701
0.0247738
0.03
0.0302489
0.0304977
0.0307692
0.0260407
0.0363122
0.0415611
0.05181
0.0570362
0.0623077
0.0626244
0.0630091
0.0684389
0.0638688
0.0642986
0.0597059
0.0601131
0.0554977
0.0511086
0.0520362
0.0432127
0.0395023
0.040905
0.0424887
0.044276
0.0461991
0.0432805
0.0454751
0.0476923
0.0447964
0.041629
0.0431674
0.0443439
0.0450905
0.0455656
0.0408597
0.036086
0.0313122
0.0314932
0.0265611
0.0264932
0.0213575
0.0261991
0.0260181
0.0308597
0.030724
0.0255656
0.0203846
0.0152036
0.0199774
0.0197059
0.00938914
-0.000927605
-0.00624434
-0.0115611
-0.00685521
-0.00219457
0.00246607
0.0120588
0.021629
0.0262217
0.0307919
0.030362
0.0399321
0.0494796
0.0640045
0.0784842
0.0980317
0.107579
0.107172
0.111765
0.11638
0.120995
0.125701
0.130452
0.125181
0.109796
0.0991855
0.0984389
0.102511
0.101448
0.100158
0.0936425
0.086991
0.0852263
0.0784615
0.0616742
0.0449774
0.023371
0.0069457
-0.00918552
-0.00506787
-0.000701357
0.00377828
0.00837104
-0.00696833
-0.0321946
-0.0473756
-0.0575113
-0.0526018
-0.0476697
-0.0376923
-0.0477149
-0.0527149
-0.0576923
-0.0526471
-0.0526018
-0.0425339
-0.0374661
-0.0374208
-0.0323756
-0.0373303
-0.0372851
-0.0372624
-0.0372398
-0.0373077
-0.0373756
-0.0324887
-0.0276471
-0.022828
-0.0280317
-0.0332353
-0.0384389
-0.0385973
-0.0287783
-0.0139819
0.00576924
0.0154977
-0.0197737
-0.0850452
-0.140294
-0.170611
-0.205928
-0.246222
-0.291516
-0.321765
-0.346991
-0.367172
-0.367262
-0.352285
-0.307285
-0.257262
-0.182195
-0.102104
-0.0519683
-0.0267873
-0.0215837
-0.0313801
-0.0311991
-0.0160181
0.00411766
0.0142534
0.0193892
0.0195475
0.00972852
0.00493214
0.010181
0.0154073
0.0205882
0.025724
0.0308597
0.0359955
0.036086
0.0361312
0.0361539
0.0361765
0.0462217
0.0462896
0.0563575
0.0614706
0.056629
0.0567873
0.0519683
0.0521267
0.0573303
0.0676018
0.0779186
0.0682353
0.0686199
0.0641855
0.065
0.0660634
0.0672851
0.0686878
0.070362
0.0723982
0.0697059
0.0721267
0.0695475
0.0719005
0.0691403
0.0711765
0.0729412
0.0693439
0.0703846
0.0662217
0.0669231
0.0624887
0.0629412
0.0632353
0.0583937
0.0584616
0.0535068
0.0535294
0.0485521
0.0435747
0.0334842
0.0282579
0.0279412
0.022534
0.0221493
0.0167647
0.021448
0.026086
0.025724
0.0203394
0.0199548
0.0195928
0.0242534
0.0339367
0.0385973
0.0433032
0.0429638
0.0476244
0.0472851
0.0619457
0.0715837
0.0861991
0.105837
0.11552
0.125249
0.124955
0.124638
0.119299
0.118937
0.123597
0.128326
0.133167
0.128054
0.122783
0.117262
0.121538
0.115701
0.109728
0.108575
0.0971945
0.0906787
0.074095
0.0524661
0.0358371
0.0242986
0.0129638
0.00187783
-0.00386878
-0.0142534
-0.0243891
-0.0343891
-0.0393439
-0.0393665
-0.0394118
-0.0343665
-0.0342081
-0.0389367
-0.0385973
-0.0432579
-0.0429864
-0.0527828
-0.0525792
-0.0473529
-0.0421041
-0.0368326
-0.0365158
-0.0361765
-0.0358597
-0.0355882
-0.0404072
-0.0402489
-0.0400452
-0.034819
-0.0345475
-0.0342534
-0.0290724
-0.0289819
-0.0240045
-0.024095
-0.0291855
-0.0242308
-0.00923077
-0.00423076
-0.0341855
-0.0891403
-0.139095
-0.16905
-0.204027
-0.259005
-0.334005
-0.398982
-0.438937
-0.448846
-0.43371
-0.403575
-0.358394
-0.298167
-0.222851
-0.147466
-0.102014
-0.0764932
-0.0609729
-0.0504977
-0.0350452
-0.019638
-0.0142081
-0.00371041
0.0068552
0.0124661
0.0180769
0.0285973
0.0340272
0.0394118
0.0497738
0.0501131
0.0554977
0.0509276
0.0514027
0.0469005
0.0473529
0.0526697
0.0478959
0.0531222
0.0534389
0.0588914
0.054457
0.0600453
0.0605882
0.0611086
0.0615837
0.0670815
0.0726471
0.0733258
0.0690724
0.0647964
0.0655204
0.0663122
0.0673077
0.0735068
0.0799774
0.08181
0.079095
0.0817873
0.0847059
0.0777149
0.0706787
0.068552
0.0661991
0.0686878
0.0760407
0.0781901
0.0700453
0.0615611
0.0626923
0.0585294
0.0591855
0.0547059
0.0551584
0.0556109
0.0510181
0.0463349
0.0415159
0.0466063
0.0516968
0.04681
0.0419457
0.0270814
0.0171493
0.0171946
0.0221719
0.0320814
0.0369457
0.0368552
0.0368326
0.0368099
0.0318099
0.0317873
0.0366968
0.0465837
0.0664706
0.0713801
0.0713348
0.0663122
0.0663122
0.066267
0.0861312
0.105928
0.125656
0.140407
0.145204
0.145
0.144819
0.134683
0.124547
0.119276
0.118733
0.117941
0.122036
0.120973
0.124661
0.118009
0.106086
0.0940271
0.0769231
0.0749321
0.0580769
0.046448
0.0250905
0.00407241
-0.0115611
-0.0319004
-0.0320814
-0.0271493
-0.0221719
-0.0121267
-0.0220362
-0.0369231
-0.0567421
-0.066448
-0.0710634
-0.0556335
-0.0452036
-0.0397964
-0.0343891
-0.033914
-0.043371
-0.0577376
-0.0620588
-0.0613801
-0.0507692
-0.025181
-0.00463802
-0.00414029
-0.0186652
-0.0382127
-0.0577376
-0.0573303
-0.0469457
-0.0366742
-0.0265158
-0.016448
-0.021448
-0.031448
-0.0264253
-0.0114253
-0.00142535
-0.016448
-0.0614932
-0.111606
-0.171765
-0.246923
-0.342081
-0.42724
-0.482398
-0.507579
-0.502828
-0.478054
-0.433235
-0.403348
-0.373394
-0.338348
-0.278213
-0.218054
-0.152896
-0.102715
-0.0725566
-0.052353
-0.0471493
-0.0519005
-0.051629
-0.0414027
-0.0212217
-0.00608599
-0.00595023
-0.0108145
-0.010724
-0.0106335
-0.000610873
0.00436651
0.0144117
0.0295023
0.0296154
0.0197059
0.00977375
0.0148416
0.0148869
0.0199321
0.035
0.0400905
0.0402262
0.0304525
0.0206787
0.0158823
0.016086
0.0262896
0.0465158
0.0668326
0.0821719
0.0825113
0.0729412
0.0686199
0.0696154
0.0759502
0.0825339
0.0843213
0.0913801
0.0986426
0.0961086
0.0986199
0.101199
0.10371
0.100973
0.0929412
0.0945023
0.0856561
0.0864932
0.0820362
0.0824208
0.0826471
0.0727149
0.0526244
0.0423756
0.0320362
0.0316516
0.0312443
0.0358823
0.0354525
0.0299321
0.0142986
-0.00138011
-0.00710409
0.00221719
0.0115611
0.015905
0.0102489
-0.00540727
-0.0211086
-0.0368779
-0.0376697
-0.0284842
-0.0242534
-0.00993219
-0.00554305
0.00382347
0.00812211
0.00733027
0.0164027
0.0254751
0.0495701
0.0736877
0.0928054
0.111923
0.115995
0.11
0.10905
0.10319
0.107398
0.111538
0.125452
0.13914
0.142534
0.140633
0.133348
0.130724
0.132851
0.134887
0.116946
0.0991176
0.0765158
0.0590724
0.04181
0.0197285
0.00294119
-0.00857465
-0.0147737
-0.0157692
-0.0266289
-0.0323982
-0.0431222
-0.0488235
-0.0445023
-0.0401131
-0.0356335
-0.0311086
-0.0265611
-0.0220362
-0.0275113
-0.028009
-0.0284389
-0.0438688
-0.049276
-0.044638
-0.0350453
-0.030543
-0.0311086
-0.0266742
-0.0322851
-0.0378959
-0.0385294
-0.0392082
-0.0399774
-0.0358824
-0.0318778
-0.0379186
-0.0389593
-0.0449548
-0.0458145
-0.0316063
-0.012353
-0.0181448
-0.0690272
-0.139932
-0.21586
-0.281719
-0.337557
-0.403348
-0.449095
-0.494774
-0.50043
-0.516063
-0.496652
-0.447172
-0.392624
-0.313032
-0.238371
-0.16871
-0.119027
-0.0943439
-0.0796607
-0.0649548
-0.0452941
-0.0307014
-0.0111538
0.00334842
0.0128281
0.0122398
0.0166742
0.021086
0.0254977
0.0248643
0.0292308
0.0336199
0.0380543
0.0425339
0.046991
0.0464253
0.0457692
0.0450679
0.0442987
0.0485294
0.0478054
0.0521041
0.0564932
0.0608824
0.0603167
0.0597738
0.0692308
0.068733
0.0732353
0.0778281
0.0874661
0.0971267
0.101946
0.107014
0.10233
0.0978959
0.0936199
0.0945249
0.100724
0.102217
0.108959
0.10086
0.0927828
0.0846606
0.0863575
0.0828507
0.0840498
0.0848416
0.0803168
0.0754978
0.0655204
0.0604073
0.0551358
0.0547059
0.0491855
0.0535973
0.0529864
0.0522851
0.0465611
0.0357466
0.0299321
0.0241177
0.0233258
0.0275339
0.0217421
0.0209276
0.0201131
0.024276
0.0184389
0.0226018
0.0266968
0.0307692
0.0398416
0.048914
0.0530317
0.0571493
0.0662896
0.0704072
0.0895023
0.103575
0.122624
0.141697
0.150769
0.154842
0.153891
0.152964
0.142036
0.146131
0.150317
0.159593
0.168846
0.167851
0.171538
0.159887
0.157941
0.145747
0.138258
0.125588
0.112692
0.104796
0.0918326
0.0739819
0.0513801
0.0290272
0.0120588
0.000407234
-0.00592759
-0.0120362
-0.0129864
-0.0188461
-0.0195927
-0.0252036
-0.0257013
-0.0261086
-0.0214479
-0.00674206
-0.0070588
-0.00233028
-0.00757916
-0.0127828
-0.0279638
-0.0380995
-0.0382126
-0.0383258
-0.0284163
-0.0285068
-0.0236199
-0.028733
-0.0288688
-0.0290045
-0.0291629
-0.0293891
-0.0346832
-0.03
-0.0303846
-0.0308371
-0.0313348
-0.03181
-0.0223077
-0.0178054
-0.00328055
0.0112896
-0.0040724
-0.0544344
-0.114751
-0.17009
-0.210452
-0.245814
-0.306131
-0.356357
-0.396538
-0.426652
-0.431787
-0.426946
-0.387104
-0.337217
-0.267262
-0.19224
-0.137172
-0.0920588
-0.0719231
-0.05681
-0.0416968
-0.0215611
-0.0114027
-0.00126697
0.00386877
0.0140271
0.0141855
0.0242986
0.0193665
0.0244117
0.024457
0.0294796
0.0345249
0.0445249
0.0495022
0.0494796
0.0495022
0.0495701
0.0496606
0.0497737
0.0549095
0.0650905
0.0603167
0.0605656
0.0608597
0.0611991
0.061561
0.0670135
0.0725113
0.0680769
0.0736877
0.0792534
0.0797963
0.0754298
0.0713122
0.067466
0.0638914
0.065543
0.067466
0.0747059
0.0772172
0.0799095
0.0826244
0.0853393
0.0879185
0.0852941
0.0923755
0.089095
0.0904751
0.0865837
0.0824661
0.0831674
0.0786652
0.0840271
0.084276
0.084457
0.0745475
0.069638
0.0596832
0.0497285
0.0397511
0.0397285
0.0396833
0.0396606
0.0447059
0.0397285
0.0397738
0.0347737
0.0297511
0.0246606
0.0245022
0.0293439
0.0291855
0.0340724
0.0389366
0.0388009
0.0436652
0.0435068
0.0533484
0.0681674
0.0879864
0.0977828
0.117579
0.132398
0.142217
0.147081
0.151946
0.156855
0.156765
0.156719
0.151742
0.156697
0.151471
0.150995
0.150271
0.144367
0.133303
0.116946
0.105317
0.0934842
0.0865384
0.0796154
0.0678054
0.0562669
0.035
0.0190724
0.00850674
-0.00678738
-0.0168779
-0.0218553
-0.0267421
-0.0365611
-0.0412896
-0.0409503
-0.0355656
-0.0401358
-0.0396607
-0.0341856
-0.0336652
-0.0331675
-0.0376471
-0.0321267
-0.0315838
-0.0260408
-0.0204752
-0.0198869
-0.0242534
-0.0385973
-0.0379186
-0.0372399
-0.0366064
-0.0359729
-0.0353394
-0.0347738
-0.0392534
-0.0388009
-0.0384389
-0.0381448
-0.0328733
-0.0275792
-0.0173077
0.00296379
0.0132579
-0.00644798
-0.0611765
-0.130928
-0.185679
-0.230475
-0.280249
-0.340023
-0.399774
-0.434457
-0.449095
-0.44871
-0.428303
-0.387828
-0.332308
-0.261719
-0.191041
-0.140294
-0.104502
-0.0837104
-0.0578733
-0.0420588
-0.0262443
-0.0154299
0.000361998
0.00113123
0.00690046
0.00764707
0.00837105
0.0190272
0.0246606
0.0252715
0.0258597
0.031448
0.0320136
0.0376244
0.0382353
0.0388235
0.0443665
0.0448869
0.0454072
0.045905
0.0514253
0.056991
0.0525566
0.0581448
0.058733
0.0643439
0.0650226
0.0657919
0.0715837
0.0673756
0.0681448
0.0589593
0.0599547
0.0612896
0.0679412
0.074819
0.0769231
0.0792308
0.07181
0.0695249
0.0723982
0.0752941
0.0781222
0.0857466
0.0980995
0.105136
0.1019
0.093371
0.0745928
0.0556335
0.0465611
0.0423077
0.0378959
0.033371
0.033733
0.0290271
0.024276
0.0244796
0.0246154
0.0197059
0.0197737
0.0148416
0.0148869
0.0149321
0.015
0.0150452
0.0150905
0.0150679
0.0150452
0.02
0.0249547
0.0249095
0.0148416
0.00977376
0.00468326
0.00461538
0.0145475
0.0194796
0.0294118
0.0393439
0.049276
0.0641629
0.0840498
0.098914
0.108778
0.108643
0.108529
0.113484
0.113552
0.113688
0.11371
0.113507
0.107986
0.112217
0.106222
0.105023
0.103575
0.0868552
0.075
0.0680543
0.0611312
0.044276
0.0275792
0.0161312
-0.00997737
-0.0257014
-0.0411312
-0.0463801
-0.0565385
-0.0565837
-0.0515385
-0.0514253
-0.0462443
-0.0509955
-0.055724
-0.0604299
-0.0651357
-0.0598643
-0.0545475
-0.0492081
-0.0438914
-0.038552
-0.03819
-0.0478507
-0.0525113
-0.0521946
-0.0469231
-0.0416742
-0.0364253
-0.0311991
-0.0309955
-0.0358145
-0.0356561
-0.0356109
-0.0355882
-0.0306335
-0.0307014
-0.0307466
-0.0257919
-0.0058371
0.0140498
0.013914
-0.0213122
-0.0915385
-0.156742
-0.2069
-0.256968
-0.307014
-0.361991
-0.396991
-0.431968
-0.436923
-0.426855
-0.391719
-0.346493
-0.286176
-0.235792
-0.175362
-0.124955
-0.0946154
-0.0793439
-0.0591177
-0.0388914
-0.0236652
-0.0134389
-0.00821267
-0.00303168
0.0021267
0.00726244
0.0123756
0.0174434
0.0225113
0.0225339
0.0225792
0.0226244
0.0276697
0.0276923
0.0376923
0.0426697
0.0476244
0.0526018
0.0576018
0.0626244
0.0576244
0.0476244
0.0426471
0.0426697
0.0427376
0.0428054
0.0429186
0.0430543
0.04819
0.0483484
0.0535973
0.054095
0.0598869
0.0609502
0.0572172
0.0536878
0.0504072
0.0573529
0.0545023
0.0567195
0.0589819
0.0662217
0.0632806
0.0601584
0.06181
0.0580996
0.0640498
0.0597285
0.0652262
0.0705882
0.0708145
0.0659276
0.0508597
0.0356787
0.0304072
0.0300679
0.029638
0.0241855
0.023733
0.0182579
0.0178281
0.0123756
0.0119005
0.0114027
0.015905
0.0153846
0.0148643
0.0193665
0.0138688
0.0134163
0.0179412
0.0224208
0.0268552
0.036267
0.0457014
0.0451358
0.0496154
0.054095
0.0635973
0.0730769
0.0925566
0.102014
0.116425
0.125837
0.120204
0.119593
0.124027
0.133597
0.138258
0.147896
0.147376
0.141516
0.135385
0.119027
0.112443
0.0956561
0.0886426
0.0764932
0.0691629
0.0618099
0.0445023
0.0273756
0.0154525
0.00382354
-0.0125566
-0.0186425
-0.0245023
-0.0302036
-0.0308145
-0.0363122
-0.0417195
-0.0470362
-0.0472851
-0.0424887
-0.0426697
-0.0377828
-0.0328959
-0.0279864
-0.0280543
-0.0230769
-0.0280996
-0.0281222
-0.0281448
-0.0231674
-0.0182353
-0.0133032
-0.00839367
-0.00850679
-0.00861991
-0.0137557
-0.0189593
-0.0242534
-0.034638
-0.0350905
-0.0355656
-0.0310181
-0.0314932
-0.026991
-0.0175566
-0.0081448
-0.00875566
-0.0492986
-0.104774
-0.165204
-0.210588
-0.250973
-0.306335
-0.356674
-0.401946
-0.417195
-0.432421
-0.422602
-0.387692
-0.347692
-0.297647
-0.232557
-0.167466
-0.112353
-0.0772625
-0.0621493
-0.0469683
-0.0317647
-0.0165611
-0.00642534
-0.00135747
0.00868778
0.0187104
0.023733
0.028733
0.0337556
0.0287783
0.0288235
0.0288462
0.0288462
0.0238688
0.033914
0.0389593
0.0389819
0.0440271
0.039095
0.0441855
0.0442986
0.0494118
0.0545249
0.0546606
0.0598416
0.0550226
0.0602262
0.0554299
0.0556109
0.0557466
0.0609276
0.071267
0.0769683
0.0880543
0.0843891
0.080905
0.0727376
0.0748869
0.0823077
0.0849095
0.0925339
0.0901131
0.0924887
0.0945701
0.0913348
0.0877376
0.0838688
0.0897738
0.0905204
0.0911538
0.0866516
0.0870136
0.0823077
0.0775113
0.0726018
0.0726244
0.0675792
0.0624661
0.0573529
0.0572172
0.0520362
0.04681
0.0415837
0.0413801
0.0311539
0.0359502
0.0357466
0.0355656
0.0303846
0.0302489
0.0300905
0.0299321
0.0347511
0.0445701
0.0543891
0.0642081
0.0740498
0.078914
0.0888009
0.108643
0.123416
0.133145
0.142805
0.147421
0.142036
0.146674
0.151357
0.166086
0.175905
0.180814
0.170747
0.155498
0.15
0.139253
0.133303
0.122195
0.110837
0.0992534
0.0874661
0.0806109
0.0686652
0.0517647
0.0250453
0.00852942
-0.00271493
-0.00861991
-0.00918553
-0.00945702
-0.00957015
-0.0196154
-0.0245701
-0.0294344
-0.0292082
-0.028914
-0.0285747
-0.0231901
-0.0227376
-0.0222625
-0.0267421
-0.0311991
-0.0356561
-0.0351131
-0.0295701
-0.0340272
-0.0335068
-0.0329412
-0.027353
-0.0267421
-0.0361312
-0.0405656
-0.04
-0.0344796
-0.0289819
-0.023552
-0.0231901
-0.0228733
-0.0226244
-0.0173756
-0.00214932
0.0180543
0.0282805
0.00352941
-0.0611765
-0.13586
-0.195498
-0.235136
-0.299774
-0.359434
-0.41405
-0.44362
-0.44819
-0.442738
-0.402285
-0.35181
-0.286312
-0.220814
-0.165249
-0.124615
-0.0938914
-0.0731222
-0.0573303
-0.0415158
-0.0357014
-0.0248642
-0.0140498
-0.00325791
0.00753395
0.0182806
0.0190272
0.0197511
0.0255204
0.0312896
0.0320362
0.0327602
0.0384615
0.039095
0.0447285
0.045362
0.0459955
0.041629
0.0422851
0.0429412
0.0485973
0.0542534
0.0599322
0.0656109
0.0663349
0.0621041
0.0579186
0.0638009
0.0747512
0.0807466
0.0867195
0.0976923
0.0985973
0.0995249
0.0906561
0.0871041
0.0788462
0.0708371
0.0680996
0.0706335
0.0734163
0.0713349
0.0743213
0.0723303
0.0752263
0.0779412
0.0803394
0.0824208
0.0891856
0.0906788
0.0869231
0.0829186
0.0737331
0.0644118
0.0550227
0.0455656
0.0460634
0.0465159
0.0418779
0.037172
0.0324435
0.0276923
0.0229412
0.0231901
0.0184389
0.0186878
0.013914
0.0141177
0.00929865
0.00945703
0.0096154
0.00979639
0.00995476
0.0100905
0.0102036
0.00529414
0.0103846
0.0154299
0.0204751
0.030543
0.0406335
0.0607466
0.0758371
0.0909503
0.101063
0.106154
0.106267
0.111448
0.106697
0.106991
0.107172
0.107036
0.106584
0.10086
0.0949774
0.0888462
0.0774661
0.0708371
0.0690724
0.0672625
0.0604751
0.0538914
0.0475792
0.0416063
0.0209276
0.000497729
-0.0147511
-0.0248416
-0.029819
-0.0397285
-0.0395475
-0.0493213
-0.0490045
-0.0486199
-0.0481901
-0.042715
-0.0471946
-0.0466516
-0.0560634
-0.0604525
-0.059819
-0.0591855
-0.0535294
-0.0478507
-0.0421946
-0.0416064
-0.0410634
-0.0455656
-0.0500679
-0.0495702
-0.049095
-0.0436199
-0.0381222
-0.0276471
-0.0272398
-0.0268778
-0.0316064
-0.0364254
-0.0312896
-0.0261765
-0.0110407
-0.000882365
0.0192986
0.00945701
-0.0303846
-0.0952715
-0.145158
-0.190091
-0.245068
-0.315068
-0.385113
-0.420158
-0.445204
-0.455204
-0.440181
-0.410091
-0.349932
-0.289751
-0.224502
-0.174208
-0.133891
-0.103552
-0.0781674
-0.0577149
-0.0472172
-0.031629
-0.0210633
-0.0104977
2.26274e-05
0.0104977
0.0109276
0.0163122
0.0166516
0.0169231
0.0221946
0.0224208
0.0276471
0.0278507
0.0280543
0.0282353
0.0284163
0.0285973
0.028733
0.0338688
0.0390271
0.0492081
0.0493891
0.0496154
0.0448869
0.040181
0.0405204
0.0408371
0.0511538
0.0465158
0.0469683
0.0524434
0.0529638
0.0536425
0.0596154
0.0608597
0.0623529
0.0689819
0.0657692
0.0677828
0.0650226
0.0573756
0.0547738
0.0571041
0.059276
0.0662217
0.0679864
0.0645249
0.0557692
0.0467421
0.0475113
0.0480769
0.0484389
0.0436878
0.0388236
0.0388462
0.0338009
0.0287557
0.0186426
0.0134842
0.0132806
0.0130317
0.0128055
0.00760184
-0.00257917
-0.00280541
-0.0030769
-0.00339364
-0.00875562
-0.00909498
-0.004457
0.0152036
0.0248643
0.0345249
0.0291855
0.0288009
0.0334616
0.0380996
0.0377376
0.0473756
0.0670362
0.0766968
0.0913801
0.106041
0.120656
0.135271
0.134909
0.134638
0.139434
0.144321
0.144186
0.143869
0.138258
0.137421
0.13638
0.13509
0.143484
0.141538
0.13448
0.12233
0.110158
0.0930543
0.0761086
0.0694344
0.0530316
0.0469004
0.0409728
0.0302262
0.0146606
-0.010724
-0.0309729
-0.0611539
-0.066267
-0.0663575
-0.0564027
-0.0514027
-0.0463801
-0.0413349
-0.036267
-0.0262217
-0.0262444
-0.021267
-0.0213349
-0.0214027
-0.021448
-0.0214932
-0.0215385
-0.021629
-0.0117195
-0.0118778
-0.0171494
-0.0225114
-0.0279186
-0.033439
-0.0390046
-0.0396381
-0.0403168
-0.0259729
-0.00665164
-0.00233036
-0.00812223
-0.00393671
-0.00972856
-0.0454752
-0.106154
-0.171787
-0.227376
-0.257919
-0.293371
-0.343778
-0.399118
-0.429389
-0.444615
-0.439751
-0.409774
-0.359751
-0.319706
-0.274638
-0.214548
-0.159457
-0.119367
-0.0942761
-0.069163
-0.0590272
-0.0439141
-0.0238236
-0.0187557
-0.0187105
-0.0136652
-0.0036426
0.00638002
0.01638
0.0163574
0.00633477
0.00128952
0.00122166
0.00613116
0.0160407
0.0259276
0.0257466
0.035543
0.0353393
0.0352036
0.0350905
0.0300226
0.0349547
0.0248642
0.0297511
0.034638
0.0395475
0.044457
0.0443439
0.0391855
0.0391629
0.0444344
0.0501357
0.0512217
0.0475339
0.0440498
0.0459276
0.0431674
0.0456787
0.0482579
0.0507918
0.0532127
0.0554525
0.0574434
0.0641176
0.0554072
0.0513575
0.0471041
0.0477376
0.0432579
0.0436878
0.044095
0.0494118
0.054638
0.0547285
0.0445928
0.0291855
0.018552
0.0128506
0.012104
0.0164479
0.0158145
0.0151583
0.019457
0.0137556
0.0130769
0.0173982
0.0317421
0.0360407
0.0453167
0.0495475
0.0437104
0.0428054
0.0418326
0.0508371
0.0498643
0.0640272
0.0932353
0.117489
0.136765
0.161018
0.170249
0.17948
0.183801
0.178145
0.182647
0.192308
0.211968
0.216516
0.216018
0.20552
0.189887
0.18405
0.172964
0.161652
0.145136
0.128371
0.111312
0.0890271
0.0666742
0.0393213
0.0121041
9.04799e-05
-0.00169685
-0.00839368
-0.0199774
-0.0312443
-0.0421946
-0.0428733
-0.048371
-0.053733
-0.0540724
-0.0543665
-0.0495701
-0.0497511
-0.0549095
-0.0600679
-0.065181
-0.0602715
-0.0553846
-0.0556109
-0.0560181
-0.0614932
-0.0569683
-0.0573756
-0.0526697
-0.0428733
-0.0380769
-0.0332353
-0.0284389
-0.0236652
-0.0239367
-0.0292986
-0.0247059
-0.0152036
-0.010724
-0.0162443
-0.00669683
0.0179412
0.0376471
0.0223982
-0.0278281
-0.107986
-0.178077
-0.228122
-0.273167
-0.34819
-0.423167
-0.4831
-0.497964
-0.492828
-0.467692
-0.427534
-0.37233
-0.292059
-0.206719
-0.136357
-0.10095
-0.085543
-0.0751357
-0.0697738
-0.0694118
-0.064095
-0.0487556
-0.023371
0.0170362
0.0623982
0.0877149
0.083009
0.0632579
0.0384842
0.0337104
0.048914
0.064095
0.0693213
0.0695475
0.0747511
0.0799321
0.0901584
0.10043
0.110747
0.126109
0.141448
0.156765
0.162059
0.157353
0.137602
0.127896
0.113303
0.103801
0.104299
0.104819
0.100407
0.0812217
0.0773529
0.0587783
0.0454525
0.0524208
0.0747738
0.0924661
0.0904525
0.0884842
0.0764706
0.0693213
0.0669909
0.0843891
0.106425
0.123077
0.119344
0.105339
0.0911086
0.0666742
0.0520362
0.0522624
0.0723755
0.0924208
0.0823982
0.0672851
0.0470814
0.0318552
0.0265837
0.0312896
0.0359955
0.035724
0.0354751
0.0302262
0.0349547
0.034638
0.0392986
0.0539366
0.078552
0.108145
0.117715
0.117308
0.106946
0.0916289
0.0813122
0.0809955
0.0806787
0.090362
0.0950452
0.104728
0.119434
0.134118
0.143824
0.153552
0.158281
0.147964
0.132692
0.117557
0.102511
0.0973982
0.0870362
0.0763122
0.0652941
0.0590497
0.0476244
0.0358597
0.0187782
0.00147057
-0.000882365
-0.00319005
-0.0103846
-0.022353
-0.0390271
-0.0502941
-0.0661538
-0.0816742
-0.0870362
-0.0873303
-0.0825792
-0.0828281
-0.0730769
-0.0733258
-0.0785068
-0.0835747
-0.0834615
-0.0881448
-0.0927375
-0.0873303
-0.0820362
-0.0768326
-0.0716063
-0.0662896
-0.070905
-0.075543
-0.0702262
-0.0599547
-0.0546833
-0.0593891
-0.0590724
-0.0637104
-0.0633484
-0.0579864
-0.0526244
-0.0423529
-0.0321945
-0.0271719
-0.0221493
-0.0171267
0.00285069
0.0228281
0.0177828
-0.0222851
-0.0874887
-0.157738
-0.208032
-0.263348
-0.328552
-0.398643
-0.46362
-0.483643
-0.488733
-0.463891
-0.434072
-0.384231
-0.319299
-0.249186
-0.178959
-0.13871
-0.108507
-0.0883484
-0.0682579
-0.0482126
-0.0230995
-0.0128733
-0.00755653
0.00271496
0.012896
0.0179186
0.0228281
0.0227149
0.0226471
0.0176244
0.0176245
0.0176018
0.017534
0.0224661
0.0223982
0.032353
0.042353
0.0474435
0.0526697
0.0429412
0.0382127
0.0284163
0.0335068
0.0435294
0.0485294
0.0535747
0.0587104
0.0638914
0.0590724
0.0592534
0.0595928
0.065181
0.0711086
0.0773077
0.0786652
0.075181
0.0768552
0.0786878
0.0856109
0.0876018
0.0845475
0.0863122
0.0828507
0.0840724
0.0800226
0.0706787
0.0661086
0.0614253
0.0615837
0.0515837
0.0414027
0.0310407
0.0255656
0.02
0.0193212
0.0185972
0.0178733
0.0221719
0.0214705
0.0258371
0.0252036
0.0245248
0.0238009
0.0230769
0.0273303
0.021561
0.0258144
0.0201131
0.00945698
0.0038235
0.00316739
0.0124208
0.0216063
0.0358145
0.0400905
0.0444344
0.048733
0.0479864
0.0621719
0.0763122
0.0904298
0.114502
0.13362
0.142783
0.131991
0.116199
0.115407
0.114638
0.118937
0.118235
0.127398
0.131312
0.119977
0.108507
0.0868552
0.08
0.0678959
0.0705204
0.0779865
0.0753394
0.0677376
0.0552489
0.0480317
0.0261313
0.0145475
0.00332583
-0.00269227
-0.008552
-0.0193212
-0.0250226
-0.0406787
-0.0461991
-0.0466289
-0.0470136
-0.0423077
-0.0275339
-0.0177375
-0.0179638
-0.0232353
-0.028552
-0.0338914
-0.0292534
-0.024638
-0.0200452
-0.0204525
-0.0208823
-0.0162896
-0.0116516
-0.0120136
-0.0123755
-0.012828
-0.00839365
0.000904996
0.00511314
0.00932128
-0.00149319
-0.0122624
-0.0180317
-0.00880089
0.00540726
-0.0153393
-0.0610407
-0.126674
-0.18224
-0.227805
-0.278394
-0.32905
-0.379751
-0.405475
-0.431222
-0.431923
-0.402579
-0.358077
-0.298416
-0.248665
-0.198982
-0.164412
-0.139864
-0.105362
-0.0758145
-0.0462443
-0.0216742
-0.00710406
-0.00255654
0.00699097
0.0115159
0.0109955
0.0104525
0.00995476
0.00447964
0.00404977
0.00864254
0.0132579
0.0129186
0.0125566
0.0121719
0.0116968
0.00624434
0.000791851
0.000339363
0.0099095
0.0244796
0.0340498
0.0336199
0.0282127
0.0177828
0.0223756
0.031991
0.041629
0.0513348
0.0610407
0.0757466
0.0755882
0.0756561
0.0709955
0.0766063
0.0823982
0.0983937
0.104548
0.100928
0.0924887
0.0842534
0.0711312
0.0529638
0.0395928
0.0209502
0.00701357
0.00271493
0.0180543
0.03819
0.0532127
0.0581674
0.0480317
0.0428507
0.0425339
0.0320814
0.0265611
0.0209728
0.020362
0.0246833
0.0339819
0.0282127
0.0174434
0.0116742
0.00085973
-0.00497737
-0.00581448
0.00339367
0.0126471
0.0219005
0.0211538
0.0253394
0.0295023
0.0336199
0.0377602
0.0418778
0.0460181
0.0451584
0.0492986
0.0534163
0.0625113
0.0815837
0.100656
0.124774
0.133869
0.142986
0.137059
0.141131
0.145204
0.144367
0.13362
0.122783
0.111742
0.100339
0.103688
0.106833
0.114774
0.122557
0.125181
0.132715
0.120113
0.102511
0.0650905
0.0229185
0.00104072
0.00936651
0.0228507
0.021448
0.0252036
0.0141403
-0.00174209
-0.0124887
-0.0230996
-0.0236425
-0.0291629
-0.0246154
-0.0150226
-0.0104073
-0.0157692
-0.0211086
-0.026448
-0.0317647
-0.0370588
-0.047353
-0.0426697
-0.0330543
-0.0184842
-0.0189367
-0.0243892
-0.0348869
-0.0454525
-0.0460181
-0.036629
-0.0272851
-0.0180317
-0.00884616
-0.00972852
-0.0105656
-0.0163122
-0.016991
-0.00260182
0.0118099
0.00624433
-0.0244118
-0.0751131
-0.145928
-0.201833
-0.247738
-0.283529
-0.32914
-0.36957
-0.404864
-0.425113
-0.425362
-0.390634
-0.350905
-0.291199
-0.221561
-0.136946
-0.0822625
-0.0574661
-0.0475339
-0.0375339
-0.0325566
-0.0226244
-0.00269231
0.00219456
0.0120588
0.0118778
0.0166968
0.0165158
0.0163575
0.0111765
0.0109502
0.0207013
0.0303846
0.0450679
0.0447511
0.0344796
0.0292534
0.024095
0.033914
0.0437556
0.0586425
0.0585294
0.0634615
0.0583937
0.063371
0.068371
0.0734163
0.0785068
0.0836199
0.088733
0.0888235
0.0990498
0.0995023
0.100317
0.0913801
0.0876697
0.0791629
0.0758371
0.0776018
0.0794344
0.0963122
0.0982127
0.100158
0.096991
0.0836425
0.0700679
0.066267
0.0722851
0.0730543
0.0636425
0.0539819
0.0490498
0.0539593
0.0688235
0.078733
0.0685973
0.0634615
0.0532579
0.0529864
0.0476471
0.0472172
0.0467873
0.0413122
0.0358824
0.0304525
0.025
0.0195249
0.0140498
0.00859728
0.00816742
0.0127602
0.0173303
0.0319683
0.041629
0.0463122
0.0409276
0.0454751
0.0599547
0.0693439
0.093733
0.113167
0.13267
0.14224
0.146833
0.141403
0.13095
0.125475
0.12
0.124593
0.134208
0.153778
0.163213
0.182443
0.206403
0.210136
0.19871
0.162127
0.115362
0.0734389
0.0514027
0.0342986
0.0171946
0.000316724
-0.0163801
-0.0178055
-0.0188914
-0.0195475
-0.0249548
-0.0402263
-0.0504073
-0.0554751
-0.0504751
-0.0504525
-0.0503847
-0.0503846
-0.0454073
-0.0454525
-0.0404525
-0.0354073
-0.035362
-0.0353394
-0.0353168
-0.0302489
-0.0351358
-0.0349774
-0.0347738
-0.0345928
-0.0394118
-0.0342761
-0.0341177
-0.0389593
-0.0337557
-0.0385747
-0.0334389
-0.0383711
-0.0433484
-0.0482806
-0.0531901
-0.0481222
-0.0281448
-0.00321268
-0.00832582
-0.0483711
-0.118371
-0.178348
-0.223348
-0.263416
-0.303529
-0.33362
-0.358643
-0.378552
-0.393348
-0.3981
-0.367805
-0.317489
-0.257195
-0.2019
-0.151561
-0.106131
-0.0806561
-0.060181
-0.0397285
-0.0242987
-0.00384616
0.00165159
0.0121719
0.0176244
0.0230543
0.0234615
0.0288688
0.039276
0.0397059
0.0451358
0.0405204
0.0508371
0.061086
0.0612896
0.0565159
0.0467421
0.0369231
0.0270814
0.0222851
0.0125113
0.0178054
0.0281674
0.0435294
0.0538688
0.0592081
0.0696154
0.0700452
0.0705656
0.066086
0.0616063
0.0672398
0.0730769
0.0791855
0.0805882
0.0821946
0.0839593
0.0959276
0.103122
0.105543
0.1031
0.0958371
0.0936651
0.0864027
0.0888914
0.0860407
0.0827828
0.0741176
0.0701357
0.0709049
0.0565158
0.0570135
0.0573755
0.0526697
0.0428507
0.0429638
0.038009
0.0279864
0.0129185
0.00280539
0.00766965
0.0175113
0.0373303
0.0521493
0.0569909
0.0518325
0.0416968
0.0416289
0.0415837
0.0415384
0.0414932
0.0414479
0.0463574
0.0362443
0.0311312
0.0260181
0.030905
0.0358145
0.0457013
0.0504977
0.0552715
0.07
0.0797285
0.094457
0.0891629
0.0888688
0.0985973
0.123371
0.138213
0.148122
0.143032
0.13276
0.127217
0.12138
0.130317
0.129072
0.117647
0.101109
0.074457
0.0627602
0.0510407
0.0393665
0.0278506
0.0165837
0.000588212
-0.0152036
-0.0307693
-0.0411313
-0.0513349
-0.0564027
-0.0563349
-0.0561991
-0.0509955
-0.0457466
-0.0404751
-0.0401584
-0.0447738
-0.0443665
-0.0489367
-0.0535068
-0.0530543
-0.0475566
-0.0370589
-0.0265611
-0.0210634
-0.0306109
-0.035181
-0.029819
-0.0245476
-0.0293666
-0.0292534
-0.0292082
-0.0341856
-0.0291177
-0.0290498
-0.0239593
-0.0238914
-0.0188236
-0.0138009
0.00617644
0.0261312
0.0110633
-0.0289367
-0.0939367
-0.168891
-0.218824
-0.258733
-0.298643
-0.338529
-0.368371
-0.388213
-0.408077
-0.403009
-0.377964
-0.332919
-0.292783
-0.247579
-0.19733
-0.147036
-0.106719
-0.0863349
-0.0760181
-0.060724
-0.0454299
-0.0201584
-0.00490951
0.00529411
0.00547511
0.00558823
0.0106561
0.0206787
0.0257014
0.0307919
0.0309729
0.0312217
0.0314706
0.0316742
0.0218326
0.016991
0.017172
0.0173529
0.0225566
0.0277602
0.0330091
0.0332353
0.0334389
0.0285973
0.0287557
0.033914
0.0490724
0.059276
0.064457
0.0696606
0.0649095
0.0653394
0.0609728
0.0518552
0.0479864
0.0543665
0.0659502
0.0627602
0.0646832
0.0566968
0.063733
0.070724
0.0726471
0.0743213
0.0707014
0.0717647
0.0624887
0.0529864
0.0383484
0.0336425
0.0289366
0.0291855
0.0393213
0.0393213
0.0392081
0.0290045
0.0187104
0.00837103
0.00798642
0.0125792
0.00714931
0.0117421
0.00635746
-0.00400453
-0.00938915
-0.00975114
-0.000135753
-0.00556562
-0.0109955
-0.016448
-0.00687784
0.0026923
0.0122851
0.0118552
0.0164253
0.0260181
0.0356109
0.0452036
0.0497737
0.0593439
0.0588688
0.0734389
0.0779864
0.0875339
0.0970588
0.106561
0.116086
0.115724
0.115498
0.105226
0.109751
0.104005
0.0979186
0.091629
0.0901357
0.0934615
0.0866063
0.0846606
0.0826697
0.0856109
0.0836199
0.0717421
0.0500679
0.028552
0.0122398
-0.00884615
-0.0196832
-0.0352715
-0.035724
-0.0310633
-0.0313122
-0.0315158
-0.0366516
-0.0267194
-0.0267421
-0.0217647
-0.0267647
-0.0267421
-0.0216968
-0.0266742
-0.0266516
-0.0266516
-0.021629
-0.0165837
-0.0165385
-0.0165385
-0.0216063
-0.0217195
-0.0269231
-0.027172
-0.0324661
-0.0377828
-0.0381448
-0.0335294
-0.0289819
-0.0245023
-0.0150226
-0.0204977
-0.010905
-0.00126697
-0.00158371
-0.0269231
-0.0772851
-0.13267
-0.178167
-0.208688
-0.239163
-0.279502
-0.309751
-0.339909
-0.350091
-0.345226
-0.320294
-0.265362
-0.210385
-0.155407
-0.105339
-0.0652262
-0.0451131
-0.04
-0.0499095
-0.049819
-0.0397511
-0.0246606
-0.0145475
-0.00441176
0.00572399
0.0107919
0.0207919
0.0257466
0.0357014
0.0356109
0.0355204
0.0304072
0.0302715
0.0251358
0.025
0.0298869
0.0297059
0.0395023
0.0442534
0.0540724
0.0539593
0.048914
0.043914
0.0439367
0.0490045
0.0440724
0.0491629
0.0492534
0.0543665
0.049457
0.0547059
0.060181
0.0659276
0.0769457
0.0781448
0.0745249
0.066086
0.0628733
0.0697737
0.0667421
0.0686425
0.0654525
0.0721267
0.0736425
0.0749548
0.0660407
0.0569457
0.0527149
0.0434163
0.0440498
0.0445927
0.0499321
0.0500452
0.05
0.0448416
0.0295928
0.0192534
0.00386878
-0.00149321
0.00312218
0.0127376
0.0123303
0.0119231
0.0115158
0.00610861
0.00567874
0.0102263
0.0197964
0.0243213
0.0288235
0.0233032
0.0178054
0.0173529
0.0168778
0.0263801
0.0358145
0.0552489
0.069638
0.0840045
0.0933937
0.102783
0.107172
0.116561
0.130928
0.135249
0.139593
0.133937
0.128348
0.122828
0.12233
0.126765
0.12595
0.139887
0.138597
0.132195
0.110679
0.0840272
0.0622625
0.0553846
0.0484615
0.0365385
0.0347059
0.0231222
0.0167873
-0.00429864
-0.0251131
-0.0357013
-0.0511991
-0.0516289
-0.0571041
-0.0525566
-0.0479638
-0.0532805
-0.0585068
-0.0686878
-0.0637783
-0.0588688
-0.048914
-0.0439367
-0.0389367
-0.0339593
-0.0340045
-0.0391176
-0.0442308
-0.0443439
-0.039457
-0.0295701
-0.0297285
-0.0248869
-0.0300679
-0.0352941
-0.0405656
-0.0509502
-0.0514027
-0.0518778
-0.0423303
-0.0378054
-0.0332805
-0.0287556
-0.0242308
-0.0447059
-0.0901584
-0.140566
-0.19095
-0.221267
-0.251561
-0.291833
-0.342081
-0.377353
-0.387557
-0.377783
-0.362964
-0.338145
-0.303258
-0.253281
-0.208235
-0.16819
-0.13819
-0.11819
-0.103235
-0.0932353
-0.0681674
-0.038009
-0.0177828
-0.0125339
-0.00226244
0.00291855
0.0130317
0.0130317
0.018009
0.018009
