425.000000 1.227675 235.000000 235.000000 152.000000 -0.092682 173.000000 0.039481 202.000000 -0.119671 217.000000 -0.120470 15.000000 -0.210851 89.000000 0.229152 127.000000 -0.063779
9203.000000 1.261028 236.000000 228.000000 145.000000 -0.082441 168.000000 0.033104 191.000000 -0.065046 209.000000 -0.133588 13.000000 -0.291477 84.000000 0.261492 122.000000 -0.061673
14848.000000 1.171519 209.000000 228.000000 144.000000 -0.051744 169.000000 0.014431 198.000000 -0.162354 211.000000 -0.095816 13.000000 -0.232635 80.000000 0.248272 120.000000 -0.047513
15552.000000 1.274603 235.000000 229.000000 133.000000 -0.050299 167.000000 0.063792 186.000000 -0.031490 212.000000 -0.113670 13.000000 -0.340915 83.000000 0.222770 114.000000 -0.017697
17145.000000 1.214400 234.000000 236.000000 139.000000 -0.067382 170.000000 0.018545 193.000000 -0.077724 221.000000 -0.165449 14.000000 -0.274220 87.000000 0.251912 115.000000 -0.032318
23502.000000 1.222416 210.000000 229.000000 135.000000 -0.056535 163.000000 0.029720 184.000000 -0.064466 216.000000 -0.153522 12.000000 -0.331191 85.000000 0.224074 119.000000 -0.031363
24169.000000 1.193741 210.000000 249.000000 152.000000 -0.056470 186.000000 0.020175 194.000000 -0.014841 233.000000 -0.107598 13.000000 -0.277201 78.000000 0.234447 116.000000 -0.055030
25496.000000 1.202539 182.000000 241.000000 150.000000 -0.067743 179.000000 0.003057 196.000000 -0.051159 224.000000 -0.109150 11.000000 -0.264218 70.000000 0.220673 111.000000 -0.059813
25968.000000 1.151392 231.000000 240.000000 129.000000 -0.067709 169.000000 0.031522 192.000000 -0.050672 223.000000 -0.126157 17.000000 -0.154345 79.000000 0.205783 86.000000 0.164874
26671.000000 1.319438 227.000000 221.000000 107.000000 0.014722 161.000000 0.046320 182.000000 -0.039825 205.000000 -0.099060 12.000000 -0.196283 78.000000 0.245284 107.000000 0.014722
27762.000000 1.208312 208.000000 224.000000 129.000000 -0.084530 162.000000 0.009281 178.000000 -0.064279 209.000000 -0.124934 15.000000 -0.163005 78.000000 0.210473 117.000000 -0.071349
28902.000000 1.140113 223.000000 230.000000 144.000000 -0.027041 168.000000 0.034277 186.000000 -0.066977 217.000000 -0.149216 13.000000 -0.284026 86.000000 0.220221 119.000000 -0.031726
32788.000000 1.149285 242.000000 241.000000 156.000000 -0.065448 176.000000 0.022041 196.000000 -0.059118 222.000000 -0.105549 14.000000 -0.205590 81.000000 0.256664 120.000000 -0.079336
34621.000000 1.133029 231.000000 236.000000 156.000000 -0.054856 174.000000 0.004625 188.000000 -0.090563 220.000000 -0.134626 16.000000 -0.171690 84.000000 0.213684 124.000000 -0.066050
48656.000000 1.249279 228.000000 228.000000 146.000000 -0.076694 168.000000 0.050360 191.000000 -0.044216 213.000000 -0.135784 13.000000 -0.290691 79.000000 0.233605 114.000000 -0.037023
53410.000000 1.191677 177.000000 240.000000 167.000000 -0.040140 195.000000 0.164814 202.000000 -0.004858 225.000000 -0.032585 15.000000 -0.068291 76.000000 0.320503 101.000000 -0.010045
53650.000000 1.206677 240.000000 221.000000 141.000000 -0.085801 159.000000 0.069875 178.000000 -0.101880 203.000000 -0.308509 15.000000 -0.181049 82.000000 0.192131 118.000000 -0.054578
57214.000000 1.247458 228.000000 222.000000 144.000000 -0.091331 162.000000 0.048591 176.000000 -0.045013 203.000000 -0.143821 14.000000 -0.202651 83.000000 0.231974 109.000000 -0.091691
60344.000000 1.077668 223.000000 237.000000 123.000000 -0.079951 179.000000 0.015018 195.000000 -0.054356 218.000000 -0.142694 14.000000 -0.262819 71.000000 0.200941 79.000000 0.140455
61055.000000 1.093716 237.000000 236.000000 153.000000 -0.040531 177.000000 0.006395 192.000000 -0.082429 221.000000 -0.126800 14.000000 -0.178888 88.000000 0.245045 115.000000 -0.062587
65018.000000 1.250077 235.000000 240.000000 156.000000 0.003716 175.000000 0.104013 195.000000 -0.082429 224.000000 -0.157194 13.000000 -0.257618 84.000000 0.286817 124.000000 0.008793
65955.000000 1.156534 226.000000 220.000000 129.000000 -0.103086 157.000000 0.039388 176.000000 -0.094403 209.000000 -0.166047 13.000000 -0.189673 79.000000 0.244280 101.000000 -0.065343
70920.000000 1.194785 207.000000 228.000000 139.000000 -0.069910 164.000000 0.049372 181.000000 -0.067132 210.000000 -0.132661 14.000000 -0.210717 81.000000 0.240673 115.000000 -0.042669
80747.000000 1.238467 215.000000 217.000000 144.000000 -0.084450 165.000000 0.047996 178.000000 -0.072648 198.000000 -0.081315 12.000000 -0.416000 85.000000 0.203280 119.000000 -0.086141
81602.000000 1.198214 214.000000 207.000000 116.000000 -0.048447 147.000000 0.017539 163.000000 -0.047431 191.000000 -0.129749 12.000000 -0.333465 75.000000 0.213058 104.000000 -0.030844
82265.000000 1.163622 234.000000 228.000000 125.000000 -0.022493 145.000000 0.092163 153.000000 -0.106958 210.000000 -0.109042 16.000000 -0.169012 81.000000 0.246348 112.000000 -0.036223
82932.000000 1.215187 213.000000 219.000000 138.000000 -0.019375 156.000000 0.077835 188.000000 -0.176867 200.000000 -0.184014 18.000000 -0.157320 81.000000 0.275814 108.000000 0.020297
84663.000000 1.228060 221.000000 229.000000 118.000000 -0.057759 158.000000 0.064545 183.000000 -0.017493 213.000000 -0.129189 14.000000 -0.269918 86.000000 0.217757 118.000000 -0.057759
85547.000000 1.196772 210.000000 202.000000 119.000000 -0.096128 160.000000 0.033807 174.000000 -0.144720 186.000000 -0.108168 15.000000 -0.246394 74.000000 0.226743 119.000000 -0.096128
86643.000000 1.317396 229.000000 232.000000 143.000000 -0.143854 169.000000 0.059375 185.000000 -0.013760 214.000000 -0.054999 14.000000 -0.346176 75.000000 0.261489 111.000000 -0.075217
86875.000000 1.495723 232.000000 219.000000 140.000000 -0.079625 161.000000 0.050563 175.000000 -0.063245 201.000000 -0.172976 12.000000 -0.328039 78.000000 0.222555 116.000000 -0.083544
87962.000000 1.414706 217.000000 219.000000 139.000000 -0.030282 163.000000 0.299435 195.000000 -0.035314 200.000000 -0.085534 12.000000 -0.345013 81.000000 0.183075 103.000000 -0.002225
89298.000000 1.225520 228.000000 224.000000 177.000000 -0.299058 199.000000 -0.072051 205.000000 -0.091002 208.000000 -0.112804 13.000000 -0.223243 82.000000 0.272443 146.000000 -0.310299
90365.000000 1.425300 202.000000 213.000000 112.000000 -0.248182 140.000000 -0.092084 145.000000 -0.341505 196.000000 -0.424436 10.000000 -0.249340 71.000000 0.476976 119.000000 -0.286803
90793.000000 1.483228 215.000000 225.000000 111.000000 -0.268809 156.000000 0.081898 181.000000 -0.249718 211.000000 -0.136679 14.000000 -0.290220 102.000000 0.435250 111.000000 -0.268809
91018.000000 1.326941 225.000000 222.000000 106.000000 0.089107 140.000000 -0.083573 145.000000 -0.224983 202.000000 -0.325234 14.000000 -0.125316 47.000000 0.466141 59.000000 0.301863
92073.000000 1.325344 204.000000 206.000000 123.000000 -0.075095 152.000000 0.083243 184.000000 -0.168715 188.000000 -0.178134 13.000000 -0.234232 79.000000 0.286598 104.000000 -0.017789
93914.000000 0.872038 207.000000 205.000000 123.000000 -0.053513 152.000000 0.052447 170.000000 -0.000123 189.000000 -0.125875 17.000000 -0.140533 87.000000 0.194809 125.000000 -0.072431
94916.000000 1.151130 198.000000 172.000000 110.000000 -0.036867 130.000000 0.007600 138.000000 -0.127103 157.000000 -0.148827 14.000000 -0.245140 81.000000 0.260563 102.000000 -0.033419
95088.000000 1.123462 172.000000 244.000000 155.000000 -0.049311 182.000000 -0.005375 191.000000 -0.022161 226.000000 -0.124248 13.000000 -0.239313 78.000000 0.206523 111.000000 -0.091596
96925.000000 1.516614 191.000000 202.000000 122.000000 -0.099888 150.000000 0.022728 156.000000 -0.025688 184.000000 -0.093369 13.000000 -0.229091 77.000000 0.179689 105.000000 -0.106564
97127.000000 1.477837 202.000000 213.000000 123.000000 -0.059750 158.000000 0.055895 171.000000 -0.046755 196.000000 -0.107930 16.000000 -0.178920 85.000000 0.357741 124.000000 -0.060377
97544.000000 1.428513 204.000000 208.000000 125.000000 -0.067976 154.000000 0.046587 183.000000 -0.102098 190.000000 -0.098133 14.000000 -0.285108 84.000000 0.235065 116.000000 -0.075861
97752.000000 1.517400 208.000000 198.000000 123.000000 -0.095576 144.000000 0.034252 148.000000 -0.006736 182.000000 -0.102114 14.000000 -0.235312 79.000000 0.243089 113.000000 -0.067003
98552.000000 1.322980 202.000000 195.000000 107.000000 -0.059308 136.000000 0.001334 155.000000 -0.093166 178.000000 -0.100425 12.000000 -0.363760 82.000000 0.203450 107.000000 -0.059308
99737.000000 1.258448 205.000000 204.000000 121.000000 -0.014526 146.000000 0.036865 159.000000 -0.033324 190.000000 -0.086224 14.000000 -0.244483 85.000000 0.195833 125.000000 -0.051784
99941.000000 1.299090 204.000000 202.000000 121.000000 -0.027493 144.000000 0.065299 175.000000 -0.126156 185.000000 -0.117630 14.000000 -0.209060 96.000000 0.150705 111.000000 -0.024044
100927.000000 1.408091 188.000000 191.000000 111.000000 -0.071691 133.000000 0.066273 141.000000 0.034533 175.000000 -0.113290 15.000000 -0.210499 66.000000 0.221694 69.000000 0.166161
101306.000000 1.147618 188.000000 205.000000 117.000000 -0.053789 144.000000 0.092855 164.000000 0.026725 188.000000 -0.079090 11.000000 -0.481396 71.000000 0.203276 117.000000 -0.053789
101711.000000 1.104621 200.000000 205.000000 109.000000 -0.099763 133.000000 0.167964 145.000000 0.012417 187.000000 -0.072270 14.000000 -0.285332 86.000000 0.142664 109.000000 -0.099763
102500.000000 1.325642 191.000000 197.000000 114.000000 -0.097757 144.000000 0.022195 149.000000 -0.023620 184.000000 -0.215923 12.000000 -0.356490 76.000000 0.221755 115.000000 -0.103322
102697.000000 1.254468 197.000000 189.000000 106.000000 -0.121177 131.000000 0.123885 149.000000 -0.040614 170.000000 -0.120785 12.000000 -0.352084 73.000000 0.230845 106.000000 -0.121177
103269.000000 1.287556 190.000000 187.000000 106.000000 -0.108714 130.000000 0.037289 137.000000 -0.024107 170.000000 -0.128417 13.000000 -0.259841 70.000000 0.203043 97.000000 -0.137460
107007.000000 1.253025 191.000000 192.000000 50.000000 0.019498 130.000000 -0.031158 155.000000 -0.106471 176.000000 -0.237821 13.000000 -0.190032 71.000000 0.284186 120.000000 -0.115736
107546.000000 1.467317 204.000000 192.000000 105.000000 -0.109093 127.000000 0.015392 154.000000 -0.112192 177.000000 -0.162552 14.000000 -0.270444 78.000000 0.249919 106.000000 -0.094296
108741.000000 1.282979 203.000000 193.000000 110.000000 -0.081332 142.000000 0.092461 152.000000 0.028811 175.000000 -0.081969 13.000000 -0.320377 76.000000 0.271534 115.000000 -0.100345
109702.000000 1.243477 187.000000 179.000000 100.000000 -0.107965 135.000000 0.055250 160.000000 -0.131113 162.000000 -0.148762 15.000000 -0.250725 72.000000 0.304337 101.000000 -0.113607
109881.000000 1.262978 179.000000 141.000000 29.000000 -0.128058 85.000000 0.093116 108.000000 -0.135239 124.000000 -0.118969 16.000000 -0.224343 67.000000 0.351910 108.000000 -0.135239
110853.000000 1.294265 195.000000 193.000000 108.000000 -0.078181 138.000000 0.131270 154.000000 -0.046206 176.000000 -0.214811 15.000000 -0.231675 71.000000 0.300910 111.000000 -0.096347
116902.000000 1.293404 209.000000 207.000000 120.000000 -0.086722 144.000000 0.008107 167.000000 -0.064164 192.000000 -0.124181 16.000000 -0.167130 77.000000 0.236899 120.000000 -0.086722
118516.000000 1.203903 193.000000 204.000000 104.000000 -0.098713 144.000000 0.045144 156.000000 0.009610 188.000000 -0.145750 13.000000 -0.329767 66.000000 0.198339 104.000000 -0.098713
119565.000000 1.188590 213.000000 206.000000 126.000000 -0.022037 150.000000 0.090909 185.000000 -0.185453 189.000000 -0.176018 15.000000 -0.200580 84.000000 0.274922 111.000000 -0.022680
122188.000000 1.233275 195.000000 145.000000 40.000000 -0.045500 87.000000 0.190471 111.000000 -0.101328 130.000000 -0.079448 14.000000 -0.323621 81.000000 0.285706 111.000000 -0.101328
124561.000000 1.176804 194.000000 196.000000 115.000000 -0.090049 135.000000 0.006959 149.000000 -0.050611 177.000000 -0.180657 14.000000 -0.172053 64.000000 0.284182 115.000000 -0.090049
125303.000000 1.134030 216.000000 215.000000 117.000000 -0.146361 174.000000 0.107137 188.000000 -0.004055 201.000000 -0.110357 16.000000 -0.223666 84.000000 0.236068 121.000000 -0.132113
125518.000000 1.340646 215.000000 205.000000 108.000000 -0.183653 142.000000 0.137961 148.000000 0.038197 191.000000 -0.047728 12.000000 -0.344623 72.000000 0.199059 107.000000 -0.213574
125723.000000 1.334655 205.000000 205.000000 97.000000 -0.080455 137.000000 0.215421 149.000000 -0.251757 192.000000 -0.186615 12.000000 -0.118667 66.000000 0.359844 71.000000 0.138355
125928.000000 1.274011 205.000000 149.000000 76.000000 0.178133 117.000000 0.207333 130.000000 0.076078 131.000000 0.085514 12.000000 -0.569515 65.000000 0.402663 69.000000 -0.077540
126077.000000 1.194527 149.000000 207.000000 100.000000 0.115000 125.000000 0.258982 140.000000 -0.122509 192.000000 -0.099326 12.000000 0.011910 123.000000 0.324718 140.000000 -0.122509
126284.000000 1.068605 207.000000 200.000000 105.000000 -0.098433 145.000000 0.071268 169.000000 -0.069594 188.000000 -0.115707 13.000000 -0.069106 80.000000 0.176615 105.000000 -0.098433
129612.000000 1.409074 202.000000 203.000000 104.000000 -0.134357 134.000000 0.038401 148.000000 -0.062649 187.000000 -0.063368 14.000000 -0.233528 65.000000 0.270392 104.000000 -0.134357
130235.000000 1.248935 208.000000 202.000000 151.000000 -0.025692 176.000000 0.151222 187.000000 -0.071554 187.000000 -0.071554 15.000000 -0.299465 88.000000 0.303964 110.000000 -0.084390
130437.000000 1.039059 202.000000 158.000000 95.000000 -0.133590 120.000000 0.059937 137.000000 -0.171051 143.000000 -0.151740 13.000000 -0.262102 80.000000 0.289732 96.000000 -0.068026
132406.000000 1.285425 202.000000 195.000000 121.000000 -0.052334 146.000000 0.046582 156.000000 -0.041349 181.000000 -0.088887 14.000000 -0.197333 73.000000 0.233546 111.000000 -0.066942
132957.000000 1.180985 159.000000 225.000000 151.000000 -0.014921 169.000000 0.153167 178.000000 0.042336 207.000000 -0.029405 14.000000 -0.113263 71.000000 0.204638 101.000000 -0.073605
135183.000000 0.951177 191.000000 196.000000 111.000000 -0.054797 127.000000 0.056943 142.000000 -0.012570 182.000000 -0.083167 13.000000 -0.240154 76.000000 0.215990 111.000000 -0.054797
137566.000000 0.904016 199.000000 193.000000 106.000000 -0.051318 137.000000 0.048699 147.000000 0.019657 177.000000 -0.071363 15.000000 -0.128337 81.000000 0.174168 106.000000 -0.051318
137906.000000 0.947634 147.000000 224.000000 153.000000 -0.063075 178.000000 0.015734 202.000000 -0.090255 209.000000 -0.025600 13.000000 -0.138744 72.000000 0.156727 92.000000 -0.060781
138535.000000 0.931395 203.000000 206.000000 115.000000 0.002556 148.000000 0.043277 164.000000 -0.013714 189.000000 -0.117508 14.000000 -0.164640 69.000000 0.242994 115.000000 0.002556
139102.000000 0.922289 213.000000 204.000000 152.000000 -0.019639 171.000000 0.037602 185.000000 -0.160783 191.000000 -0.040752 17.000000 -0.128778 76.000000 0.138936 102.000000 -0.125345
139306.000000 0.884391 204.000000 202.000000 120.000000 -0.187023 140.000000 0.146631 174.000000 -0.071896 181.000000 -0.062805 16.000000 -0.067599 81.000000 0.230457 100.000000 0.005440
139508.000000 0.956771 202.000000 192.000000 116.000000 -0.206205 135.000000 0.071709 154.000000 -0.148369 169.000000 -0.124092 16.000000 -0.110268 75.000000 0.202807 102.000000 -0.230202
140673.000000 0.961957 213.000000 199.000000 119.000000 -0.195015 148.000000 0.069499 159.000000 -0.056913 183.000000 -0.094719 14.000000 -0.283138 78.000000 0.287569 125.000000 -0.070940
140872.000000 0.926314 199.000000 204.000000 136.000000 -0.059687 156.000000 0.153761 182.000000 -0.028669 190.000000 -0.001977 14.000000 -0.137214 77.000000 0.347101 100.000000 0.011443
141262.000000 0.958853 186.000000 167.000000 32.000000 -0.083294 119.000000 0.018416 129.000000 -0.036647 151.000000 -0.109197 15.000000 -0.199030 74.000000 0.218414 106.000000 -0.035596
142820.000000 0.969609 211.000000 204.000000 109.000000 -0.029544 143.000000 0.018307 178.000000 -0.133843 189.000000 -0.144800 15.000000 -0.191520 79.000000 0.230113 116.000000 -0.087491
143024.000000 1.058915 204.000000 202.000000 112.000000 -0.112037 151.000000 0.061175 160.000000 -0.032822 184.000000 -0.068886 14.000000 -0.211411 72.000000 0.204231 112.000000 -0.112037
143226.000000 1.051944 202.000000 202.000000 114.000000 -0.095926 141.000000 0.014185 160.000000 -0.047130 184.000000 -0.110123 15.000000 -0.158651 73.000000 0.193322 98.000000 -0.009547
143428.000000 1.029155 202.000000 211.000000 112.000000 -0.034483 142.000000 0.052680 157.000000 0.007695 192.000000 -0.126915 16.000000 -0.118619 82.000000 0.221662 114.000000 -0.070032
144019.000000 0.998887 183.000000 207.000000 115.000000 -0.060676 152.000000 0.020924 173.000000 -0.051082 192.000000 -0.097446 13.000000 -0.156507 68.000000 0.212898 115.000000 -0.060676
145456.000000 1.174904 211.000000 203.000000 128.000000 -0.057806 148.000000 0.037881 155.000000 0.006064 187.000000 -0.118607 16.000000 -0.165315 70.000000 0.249579 107.000000 -0.066236
154644.000000 0.920078 218.000000 209.000000 130.000000 -0.028147 154.000000 0.036650 181.000000 -0.124354 195.000000 -0.083054 14.000000 -0.208779 75.000000 0.184249 112.000000 -0.056549
156201.000000 1.159452 347.000000 221.000000 115.000000 -0.031927 158.000000 0.057570 179.000000 -0.053574 206.000000 -0.060874 15.000000 -0.187775 68.000000 0.172619 101.000000 -0.048572
157073.000000 1.044730 218.000000 221.000000 116.000000 -0.072224 163.000000 0.057664 182.000000 -0.066159 208.000000 -0.127711 14.000000 -0.164345 73.000000 0.237759 116.000000 -0.072224
158222.000000 1.046329 240.000000 237.000000 151.000000 -0.069578 172.000000 0.050988 177.000000 0.036725 220.000000 -0.086474 14.000000 -0.215519 75.000000 0.230109 108.000000 -0.095188
159815.000000 1.209776 233.000000 239.000000 146.000000 -0.049386 175.000000 0.043169 184.000000 -0.009794 221.000000 -0.116241 13.000000 -0.171118 73.000000 0.265704 123.000000 -0.075357
162595.000000 1.172651 249.000000 233.000000 159.000000 -0.044405 185.000000 0.032679 204.000000 -0.095547 214.000000 -0.115343 16.000000 -0.170781 72.000000 0.275817 107.000000 -0.043872
162828.000000 1.169626 233.000000 236.000000 139.000000 -0.075794 169.000000 0.002530 171.000000 -0.015825 219.000000 -0.109890 15.000000 -0.176535 73.000000 0.274077 123.000000 -0.086549
165415.000000 1.180364 230.000000 229.000000 145.000000 -0.060548 168.000000 0.023497 189.000000 -0.034874 212.000000 -0.118778 11.000000 -0.294715 74.000000 0.262149 104.000000 -0.057256
173340.000000 1.194783 241.000000 239.000000 162.000000 -0.050064 190.000000 0.017365 214.000000 -0.110018 221.000000 -0.118183 14.000000 -0.232803 75.000000 0.262758 118.000000 -0.050770
175643.000000 1.159266 235.000000 230.000000 138.000000 -0.069391 168.000000 0.005141 186.000000 -0.047398 212.000000 -0.159794 16.000000 -0.150202 77.000000 0.258419 116.000000 -0.132353
175873.000000 1.273437 230.000000 227.000000 147.000000 -0.096301 165.000000 0.034578 192.000000 -0.048199 209.000000 -0.123746 13.000000 -0.311000 75.000000 0.265408 106.000000 -0.057745
176999.000000 1.230409 224.000000 227.000000 153.000000 -0.062334 174.000000 0.049359 200.000000 -0.135499 214.000000 -0.121030 4.000000 0.382071 78.000000 0.293498 122.000000 -0.100376
177701.000000 1.202072 235.000000 227.000000 147.000000 -0.084374 179.000000 0.021880 186.000000 -0.026725 213.000000 -0.142681 13.000000 -0.302617 83.000000 0.240173 127.000000 -0.061915
177928.000000 1.222178 227.000000 232.000000 117.000000 -0.076019 168.000000 0.037510 185.000000 -0.041048 213.000000 -0.129512 12.000000 -0.275016 78.000000 0.277335 117.000000 -0.076019
179792.000000 1.172616 245.000000 238.000000 154.000000 -0.090328 171.000000 0.056161 186.000000 0.018998 221.000000 -0.192522 15.000000 -0.141992 82.000000 0.290547 113.000000 -0.072507
181598.000000 1.128166 233.000000 229.000000 131.000000 -0.090656 166.000000 0.061649 171.000000 0.042606 211.000000 -0.158207 14.000000 -0.222054 76.000000 0.244418 134.000000 -0.072207
184927.000000 1.151302 222.000000 217.000000 146.000000 -0.072759 166.000000 0.064905 185.000000 -0.087620 201.000000 -0.143795 14.000000 -0.278996 77.000000 0.269421 115.000000 -0.059061
185144.000000 1.187662 217.000000 218.000000 112.000000 -0.041473 160.000000 0.066429 180.000000 -0.058477 204.000000 -0.097163 14.000000 -0.204845 76.000000 0.234121 112.000000 -0.041473
185811.000000 1.166865 255.000000 239.000000 156.000000 -0.112396 175.000000 0.016334 179.000000 -0.027082 222.000000 -0.218041 14.000000 -0.188448 81.000000 0.287430 116.000000 -0.116725
186050.000000 1.205718 239.000000 234.000000 155.000000 -0.088697 173.000000 0.044530 190.000000 -0.050848 218.000000 -0.093216 16.000000 -0.202510 87.000000 0.248340 117.000000 -0.082410
186717.000000 1.123495 203.000000 254.000000 181.000000 -0.115719 208.000000 0.002870 213.000000 -0.041064 239.000000 -0.121990 15.000000 -0.134657 82.000000 0.301944 107.000000 -0.045125
188595.000000 1.309877 241.000000 235.000000 135.000000 -0.083634 176.000000 0.011880 191.000000 -0.082586 218.000000 -0.124088 14.000000 -0.235170 76.000000 0.239610 113.000000 -0.042208
190664.000000 1.253193 240.000000 227.000000 136.000000 -0.058743 166.000000 0.029344 182.000000 -0.027803 212.000000 -0.158697 13.000000 -0.253842 82.000000 0.241443 136.000000 -0.058743
195315.000000 1.207287 231.000000 231.000000 156.000000 -0.032865 176.000000 0.022716 187.000000 -0.059339 214.000000 -0.090203 15.000000 -0.180470 70.000000 0.229576 122.000000 -0.047381
195546.000000 1.177480 231.000000 207.000000 139.000000 -0.058968 164.000000 0.012896 191.000000 -0.143621 194.000000 -0.133512 13.000000 -0.217412 80.000000 0.265675 116.000000 -0.053561
195753.000000 1.273464 207.000000 238.000000 150.000000 -0.055154 185.000000 0.036554 197.000000 -0.072302 222.000000 -0.077585 11.000000 -0.366472 77.000000 0.275599 108.000000 -0.030782
195991.000000 1.360410 238.000000 226.000000 128.000000 -0.036065 163.000000 0.064720 184.000000 -0.075388 210.000000 -0.129982 7.000000 -0.637098 79.000000 0.270394 115.000000 -0.039169
197150.000000 1.277933 235.000000 228.000000 142.000000 -0.076348 168.000000 0.001832 206.000000 -0.150738 213.000000 -0.166333 12.000000 -0.337286 78.000000 0.272934 125.000000 -0.081301
198952.000000 1.222054 215.000000 267.000000 178.000000 -0.072226 215.000000 0.038950 227.000000 -0.004294 251.000000 -0.092053 13.000000 -0.275673 77.000000 0.257929 118.000000 -0.080629
199460.000000 1.301537 241.000000 240.000000 154.000000 -0.125485 180.000000 0.009108 186.000000 -0.003463 224.000000 -0.124733 13.000000 -0.272789 78.000000 0.238337 118.000000 -0.083510
200081.000000 1.424212 148.000000 270.000000 179.000000 -0.079406 202.000000 0.103511 234.000000 -0.103994 254.000000 -0.054716 12.000000 -0.081383 130.000000 1.560248 142.000000 -0.101740
200704.000000 1.425442 197.000000 170.000000 108.000000 -0.103965 130.000000 -0.068090 136.000000 -0.123043 155.000000 -0.099595 13.000000 -0.315921 83.000000 0.230755 108.000000 -0.103965
210399.000000 1.218463 218.000000 214.000000 144.000000 -0.070296 164.000000 0.082039 178.000000 -0.032976 197.000000 -0.126380 13.000000 -0.341552 87.000000 0.195583 113.000000 -0.044637
211968.000000 1.403023 245.000000 247.000000 171.000000 -0.077868 192.000000 0.066552 204.000000 -0.038339 230.000000 -0.089513 14.000000 -0.220753 77.000000 0.291239 95.000000 0.015659
213802.000000 1.146571 172.000000 283.000000 203.000000 -0.117934 230.000000 0.018776 234.000000 -0.036380 263.000000 -0.135283 15.000000 -0.160404 69.000000 0.375455 106.000000 -0.067744
215235.000000 1.300828 218.000000 221.000000 127.000000 -0.079372 156.000000 0.044922 174.000000 -0.081929 207.000000 -0.168231 13.000000 -0.242276 65.000000 0.324323 108.000000 -0.108887
215675.000000 1.175142 219.000000 156.000000 39.000000 -0.095532 94.000000 -0.106220 102.000000 -0.142773 142.000000 -0.119229 13.000000 -0.288635 68.000000 0.371271 102.000000 -0.142773
216106.000000 1.449811 275.000000 139.000000 48.000000 -0.061175 84.000000 0.003495 92.000000 -0.140297 123.000000 -0.106081 11.000000 -0.316050 74.000000 0.142335 92.000000 -0.140297
223746.000000 1.398481 174.000000 197.000000 120.000000 -0.023825 140.000000 0.098401 157.000000 0.000391 180.000000 -0.082838 13.000000 -0.273243 69.000000 0.246505 101.000000 0.008447
224743.000000 1.242572 218.000000 229.000000 135.000000 -0.109135 152.000000 0.060990 159.000000 -0.082129 211.000000 -0.153588 15.000000 -0.254576 80.000000 0.298791 112.000000 -0.080753
226693.000000 1.318767 246.000000 252.000000 167.000000 -0.051850 188.000000 0.018559 206.000000 -0.035250 236.000000 -0.102379 14.000000 -0.262204 72.000000 0.305095 126.000000 -0.078404
229457.000000 1.248129 173.000000 281.000000 202.000000 -0.084011 223.000000 0.023873 237.000000 -0.041881 265.000000 -0.072383 16.000000 -0.144412 72.000000 0.293752 125.000000 -0.068684
231299.000000 1.187334 233.000000 226.000000 115.000000 -0.085001 162.000000 -0.007431 196.000000 -0.134422 209.000000 -0.119675 13.000000 -0.274672 65.000000 0.299903 115.000000 -0.085001
231525.000000 1.244339 226.000000 227.000000 132.000000 -0.077918 164.000000 0.025782 170.000000 0.006910 209.000000 -0.105453 14.000000 -0.235377 74.000000 0.280453 119.000000 -0.081632
233740.000000 1.160675 214.000000 253.000000 173.000000 -0.140816 193.000000 0.070516 206.000000 -0.156412 233.000000 -0.134734 14.000000 -0.273414 74.000000 0.334531 118.000000 -0.139562
234431.000000 1.152871 218.000000 218.000000 134.000000 -0.062192 162.000000 0.084908 172.000000 -0.134417 204.000000 -0.159732 14.000000 -0.244277 73.000000 0.312574 106.000000 -0.102364
236670.000000 1.191192 225.000000 225.000000 141.000000 -0.149436 167.000000 0.041959 181.000000 -0.067038 207.000000 -0.144765 14.000000 -0.224576 73.000000 0.305987 106.000000 -0.088089
237548.000000 1.204340 222.000000 234.000000 129.000000 -0.057506 164.000000 0.021851 180.000000 -0.112130 216.000000 -0.148826 14.000000 -0.213011 70.000000 0.318355 112.000000 -0.078321
237782.000000 1.182098 234.000000 216.000000 143.000000 -0.084045 163.000000 0.046458 178.000000 -0.039419 208.000000 -0.075814 15.000000 -0.174251 76.000000 0.360484 117.000000 -0.070816
239108.000000 1.286690 182.000000 247.000000 170.000000 -0.137508 196.000000 0.035034 208.000000 -0.020718 230.000000 -0.073774 14.000000 -0.183782 65.000000 0.350640 98.000000 -0.102933
239355.000000 1.196980 247.000000 219.000000 120.000000 -0.056600 148.000000 0.056238 156.000000 0.024389 199.000000 -0.144703 15.000000 -0.197440 70.000000 0.314373 98.000000 -0.045079
242038.000000 1.114653 225.000000 222.000000 131.000000 -0.076267 164.000000 0.133527 179.000000 -0.013414 204.000000 -0.108004 15.000000 -0.219643 79.000000 0.303606 131.000000 -0.076267
242705.000000 1.057070 222.000000 223.000000 141.000000 -0.056865 164.000000 0.080422 181.000000 -0.053387 204.000000 -0.113588 15.000000 -0.219199 74.000000 0.280659 104.000000 -0.052177
243773.000000 1.045609 205.000000 220.000000 134.000000 -0.073901 163.000000 0.042871 176.000000 -0.055311 208.000000 -0.179311 16.000000 -0.208716 73.000000 0.300408 102.000000 -0.056691
245128.000000 1.132257 220.000000 216.000000 138.000000 -0.064358 165.000000 0.026711 177.000000 0.002339 201.000000 -0.120417 14.000000 -0.210737 71.000000 0.274135 113.000000 -0.084781
245344.000000 1.224288 216.000000 223.000000 145.000000 -0.080017 165.000000 0.054028 193.000000 -0.144355 205.000000 -0.110387 15.000000 -0.184852 75.000000 0.262980 108.000000 -0.049201
246918.000000 1.102321 230.000000 219.000000 125.000000 -0.088261 152.000000 0.017977 177.000000 -0.071288 202.000000 -0.162430 14.000000 -0.219561 69.000000 0.267759 75.000000 0.234186
247137.000000 1.145048 219.000000 227.000000 141.000000 -0.027102 167.000000 0.072225 174.000000 0.044937 210.000000 -0.118711 14.000000 -0.260392 77.000000 0.250313 121.000000 -0.054093
251836.000000 1.082348 227.000000 216.000000 120.000000 0.005912 157.000000 0.067446 164.000000 0.040705 203.000000 -0.137591 13.000000 -0.255615 71.000000 0.270518 120.000000 0.005912
252052.000000 1.158161 216.000000 220.000000 135.000000 -0.081835 163.000000 0.023118 180.000000 -0.017930 207.000000 -0.135562 13.000000 -0.295253 78.000000 0.237067 123.000000 -0.083481
254077.000000 1.167904 220.000000 214.000000 141.000000 -0.080754 159.000000 0.028447 174.000000 -0.061100 199.000000 -0.133561 12.000000 -0.350310 76.000000 0.242071 106.000000 -0.054453
256296.000000 1.140847 222.000000 222.000000 141.000000 -0.081663 167.000000 0.030079 179.000000 0.004188 204.000000 -0.091046 14.000000 -0.245298 71.000000 0.206672 113.000000 -0.059111
256896.000000 1.323083 164.000000 257.000000 177.000000 -0.056456 196.000000 0.060786 212.000000 -0.036550 241.000000 -0.091190 10.000000 -0.277106 71.000000 0.220262 103.000000 -0.019578
257390.000000 1.128498 237.000000 240.000000 149.000000 -0.052331 170.000000 0.037886 195.000000 -0.041425 224.000000 -0.081912 13.000000 -0.332427 82.000000 0.226695 116.000000 -0.047991
259181.000000 1.217947 225.000000 236.000000 151.000000 -0.036787 180.000000 0.049952 197.000000 -0.061003 220.000000 -0.140313 15.000000 -0.190314 78.000000 0.253760 116.000000 -0.040971
259417.000000 1.182069 236.000000 236.000000 145.000000 -0.036350 185.000000 0.057837 193.000000 -0.038055 218.000000 -0.132645 16.000000 -0.218746 83.000000 0.233759 120.000000 -0.069329
260784.000000 1.121235 229.000000 223.000000 128.000000 -0.103148 164.000000 0.048635 192.000000 -0.122871 216.000000 -0.034924 13.000000 -0.314877 79.000000 0.238841 114.000000 -0.070296
262160.000000 1.266692 226.000000 230.000000 150.000000 -0.034449 178.000000 0.066978 190.000000 -0.024638 212.000000 -0.103714 14.000000 -0.217259 78.000000 0.239966 117.000000 -0.063683
263046.000000 1.239895 200.000000 235.000000 115.000000 -0.059831 169.000000 0.027224 196.000000 -0.053228 219.000000 -0.100121 14.000000 -0.198161 75.000000 0.220440 115.000000 -0.059831
264672.000000 1.348589 169.000000 136.000000 61.000000 0.027414 82.000000 0.035298 101.000000 -0.131866 122.000000 -0.082055 14.000000 -0.092398 74.000000 0.098965 101.000000 -0.131866
270989.000000 1.171942 200.000000 197.000000 122.000000 -0.095801 145.000000 0.088274 163.000000 -0.091960 181.000000 -0.037932 11.000000 -0.377587 72.000000 0.283054 122.000000 -0.095801
276346.000000 1.198512 202.000000 207.000000 126.000000 -0.122416 151.000000 0.015891 163.000000 -0.069781 191.000000 -0.107414 17.000000 -0.146911 76.000000 0.270470 104.000000 -0.079908
276553.000000 1.201114 207.000000 215.000000 131.000000 -0.121210 166.000000 0.029778 169.000000 -0.047385 200.000000 -0.046255 13.000000 -0.230422 77.000000 0.236835 111.000000 -0.076192
280111.000000 1.331096 210.000000 162.000000 30.000000 -0.150846 101.000000 -0.054969 109.000000 -0.176959 142.000000 -0.110028 12.000000 -0.329671 72.000000 0.357525 109.000000 -0.176959
280502.000000 1.520859 229.000000 225.000000 143.000000 -0.078134 166.000000 0.046647 180.000000 -0.052679 208.000000 -0.098398 16.000000 -0.112447 71.000000 0.305484 103.000000 -0.068965
281202.000000 1.277085 240.000000 236.000000 117.000000 -0.089008 169.000000 0.057464 178.000000 -0.028791 221.000000 -0.130327 13.000000 -0.273621 74.000000 0.306019 117.000000 -0.089008
283274.000000 1.340110 231.000000 234.000000 153.000000 -0.064015 173.000000 0.073057 178.000000 -0.022194 222.000000 -0.105498 14.000000 -0.317399 72.000000 0.314966 122.000000 -0.118325
285014.000000 1.642375 154.000000 213.000000 106.000000 -0.091441 145.000000 0.035109 158.000000 -0.018840 196.000000 -0.157869 13.000000 0.083707 78.000000 0.151234 110.000000 -0.162492
289140.000000 1.121790 240.000000 214.000000 132.000000 -0.103149 158.000000 0.017979 174.000000 -0.068120 198.000000 -0.133780 12.000000 -0.285151 75.000000 0.179503 107.000000 -0.051659
291525.000000 1.239404 221.000000 237.000000 109.000000 -0.137288 168.000000 0.598699 173.000000 0.115564 222.000000 -0.135234 13.000000 -0.612978 131.000000 0.396285 172.000000 -0.007727
291762.000000 1.574186 237.000000 237.000000 148.000000 0.040548 175.000000 0.263619 225.000000 -0.212901 231.000000 0.165924 13.000000 -0.257789 78.000000 0.605173 98.000000 -0.126208
291999.000000 1.367131 237.000000 229.000000 115.000000 -0.071801 144.000000 0.378652 153.000000 -0.001521 212.000000 -0.110139 9.000000 -0.417085 77.000000 0.707588 85.000000 0.069751
292228.000000 1.337744 229.000000 231.000000 152.000000 -0.182586 179.000000 0.066960 190.000000 -0.059544 213.000000 -0.102223 15.000000 -0.252366 84.000000 0.193637 105.000000 -0.078338
296066.000000 1.208216 228.000000 230.000000 119.000000 -0.119214 163.000000 0.020802 175.000000 -0.043980 214.000000 -0.089344 14.000000 -0.214558 74.000000 0.248093 121.000000 -0.084512
300401.000000 1.101331 237.000000 238.000000 127.000000 -0.039044 169.000000 0.044183 208.000000 -0.117869 221.000000 -0.097506 14.000000 -0.203794 72.000000 0.246819 115.000000 -0.057524
300877.000000 1.120367 238.000000 233.000000 137.000000 -0.023576 167.000000 0.041595 193.000000 -0.030300 217.000000 -0.103030 12.000000 -0.351702 78.000000 0.215879 112.000000 -0.015755
302735.000000 1.218546 247.000000 246.000000 150.000000 -0.050169 181.000000 0.023796 195.000000 -0.018603 232.000000 -0.114795 15.000000 -0.160011 79.000000 0.246633 111.000000 -0.046535
307577.000000 1.335837 233.000000 233.000000 146.000000 -0.085862 171.000000 0.039562 188.000000 -0.057993 216.000000 -0.143194 15.000000 -0.038961 80.000000 0.277950 109.000000 -0.084845
307810.000000 1.089548 233.000000 222.000000 136.000000 -0.054998 178.000000 0.105959 181.000000 -0.006281 202.000000 -0.231517 14.000000 -0.274606 46.000000 0.333781 54.000000 -0.039557
311181.000000 1.543637 140.000000 139.000000 60.000000 -0.118291 84.000000 0.039875 104.000000 -0.129857 124.000000 -0.079905 12.000000 -0.132117 82.000000 0.049843 104.000000 -0.129857
311737.000000 1.330328 142.000000 283.000000 197.000000 -0.120564 222.000000 0.043777 247.000000 -0.139248 267.000000 -0.088528 15.000000 -0.159076 141.000000 1.386663 156.000000 -0.159606
313003.000000 1.157587 249.000000 222.000000 147.000000 -0.056962 163.000000 0.068449 170.000000 -0.032192 205.000000 -0.056915 10.000000 -0.398839 80.000000 0.146047 113.000000 -0.020487
317099.000000 1.129057 194.000000 218.000000 142.000000 -0.058697 164.000000 0.017256 180.000000 -0.034075 201.000000 -0.085389 15.000000 -0.157730 76.000000 0.203432 114.000000 -0.049626
317317.000000 1.193873 218.000000 217.000000 139.000000 -0.069482 164.000000 0.036161 175.000000 -0.034153 199.000000 -0.116427 15.000000 -0.160563 80.000000 0.187131 114.000000 -0.059750
319318.000000 1.268529 230.000000 218.000000 107.000000 -0.047443 136.000000 0.051602 148.000000 -0.045718 201.000000 -0.084700 12.000000 -0.301846 72.000000 0.204627 107.000000 -0.047443
319765.000000 1.255844 229.000000 229.000000 142.000000 -0.056941 165.000000 0.103905 190.000000 -0.046817 208.000000 -0.025534 14.000000 -0.180472 71.000000 0.271991 84.000000 0.183230
321311.000000 1.218902 247.000000 214.000000 134.000000 -0.130894 156.000000 0.102772 162.000000 -0.057667 200.000000 -0.182668 11.000000 -0.397633 88.000000 0.271098 115.000000 -0.075407
321959.000000 1.275879 223.000000 234.000000 122.000000 -0.067224 159.000000 0.258119 173.000000 -0.128682 216.000000 -0.101629 14.000000 -0.143886 84.000000 0.557963 106.000000 -0.087631
323088.000000 1.290938 216.000000 218.000000 138.000000 -0.070454 166.000000 0.093242 174.000000 -0.041052 199.000000 -0.085659 14.000000 -0.192275 75.000000 0.241914 102.000000 -0.076755
323942.000000 1.233937 210.000000 241.000000 153.000000 -0.056647 177.000000 0.082098 192.000000 -0.075409 228.000000 -0.093605 16.000000 -0.278335 80.000000 0.311274 121.000000 -0.123072
324183.000000 1.308871 241.000000 233.000000 136.000000 -0.121380 169.000000 0.040329 190.000000 0.007005 215.000000 -0.139845 16.000000 -0.128384 73.000000 0.243687 118.000000 -0.021441
324416.000000 1.188762 233.000000 222.000000 143.000000 -0.043793 170.000000 0.052555 183.000000 -0.022038 205.000000 0.018791 15.000000 -0.179263 80.000000 0.270283 117.000000 -0.062490
324638.000000 1.141800 222.000000 219.000000 136.000000 -0.107085 165.000000 0.068325 172.000000 -0.072835 202.000000 -0.188618 13.000000 -0.214705 75.000000 0.289559 124.000000 -0.086896
324857.000000 1.162540 219.000000 197.000000 140.000000 -0.041254 161.000000 0.064309 174.000000 -0.114389 183.000000 -0.073998 13.000000 -0.211816 76.000000 0.251863 111.000000 -0.085986
325505.000000 0.903590 218.000000 212.000000 108.000000 -0.049485 144.000000 0.098952 157.000000 -0.116220 195.000000 0.047555 12.000000 -0.287900 76.000000 0.248759 110.000000 -0.033482
327641.000000 0.932196 202.000000 210.000000 143.000000 -0.038604 161.000000 0.016208 174.000000 -0.018619 195.000000 -0.097631 17.000000 -0.118227 82.000000 0.232494 108.000000 -0.049952
327851.000000 1.065331 210.000000 205.000000 121.000000 -0.031755 149.000000 0.035345 153.000000 -0.032367 189.000000 -0.121128 15.000000 -0.114809 72.000000 0.250706 105.000000 -0.064389
330075.000000 1.000796 226.000000 214.000000 120.000000 -0.107869 146.000000 0.178104 158.000000 -0.160862 196.000000 -0.141284 14.000000 -0.206289 65.000000 0.275783 103.000000 -0.108999
330706.000000 0.932414 185.000000 276.000000 222.000000 -0.026975 246.000000 0.048091 258.000000 -0.121861 258.000000 -0.121861 12.000000 -0.320125 89.000000 0.442568 102.000000 -0.045095
331454.000000 0.981801 234.000000 229.000000 154.000000 -0.054323 176.000000 0.041991 193.000000 -0.038480 214.000000 -0.108620 15.000000 -0.103919 81.000000 0.265193 103.000000 -0.027031
333493.000000 1.373131 225.000000 221.000000 129.000000 -0.084860 161.000000 -0.006286 189.000000 -0.158529 205.000000 -0.161757 14.000000 -0.167560 77.000000 0.230624 115.000000 -0.103120
334157.000000 1.302964 221.000000 216.000000 113.000000 -0.034044 150.000000 0.025454 172.000000 -0.071599 202.000000 -0.111926 14.000000 -0.173429 72.000000 0.264970 113.000000 -0.034044
336180.000000 1.270754 224.000000 226.000000 141.000000 -0.047762 168.000000 0.024310 182.000000 -0.058934 212.000000 -0.101581 14.000000 -0.164576 78.000000 0.214293 111.000000 -0.090396
342741.000000 1.190444 237.000000 224.000000 137.000000 -0.044548 167.000000 0.057728 179.000000 0.002915 207.000000 -0.097667 13.000000 -0.237833 77.000000 0.244624 105.000000 -0.052621
344141.000000 1.319074 244.000000 239.000000 149.000000 -0.079167 178.000000 0.060626 186.000000 -0.016067 223.000000 -0.128023 15.000000 -0.131366 80.000000 0.291788 117.000000 -0.042240
347806.000000 1.324530 273.000000 258.000000 132.000000 -0.047992 167.000000 0.030487 179.000000 -0.044577 245.000000 -0.110426 17.000000 -0.231082 90.000000 0.226347 119.000000 -0.032115
348064.000000 1.303149 258.000000 243.000000 146.000000 -0.045377 175.000000 0.146616 186.000000 0.029689 229.000000 -0.084401 13.000000 -0.302195 72.000000 0.251882 108.000000 -0.063604
351291.000000 1.240877 197.000000 261.000000 154.000000 -0.132070 198.000000 -0.035534 217.000000 -0.135485 240.000000 -0.203040 16.000000 -0.125064 74.000000 0.280281 124.000000 -0.100611
351775.000000 1.361345 223.000000 232.000000 155.000000 -0.021142 178.000000 0.128012 194.000000 -0.075985 225.000000 -0.004561 12.000000 -0.081383 75.000000 0.347571 103.000000 0.021239
352247.000000 1.267489 240.000000 243.000000 144.000000 -0.119449 167.000000 0.016850 173.000000 -0.047664 223.000000 -0.137337 16.000000 -0.184861 77.000000 0.237102 116.000000 -0.130563
353441.000000 1.300299 232.000000 226.000000 142.000000 -0.161285 174.000000 -0.002775 189.000000 -0.126395 213.000000 -0.168417 13.000000 -0.197648 69.000000 0.299201 104.000000 -0.090847
353667.000000 1.397366 226.000000 226.000000 138.000000 -0.129827 164.000000 0.041460 169.000000 -0.077302 208.000000 -0.232084 11.000000 -0.403887 80.000000 0.289482 105.000000 -0.101989
359966.000000 1.439779 241.000000 243.000000 152.000000 -0.076177 183.000000 0.048494 190.000000 0.008729 225.000000 -0.106189 14.000000 -0.178388 81.000000 0.219295 117.000000 -0.049278
360209.000000 1.351885 243.000000 224.000000 135.000000 -0.049060 170.000000 0.050281 176.000000 0.042053 206.000000 -0.084058 14.000000 -0.164840 79.000000 0.275156 113.000000 -0.064407
362722.000000 1.355365 216.000000 237.000000 150.000000 -0.068916 177.000000 0.048199 192.000000 -0.059749 221.000000 -0.119233 15.000000 -0.163476 81.000000 0.240880 118.000000 -0.059042
364119.000000 1.388874 224.000000 228.000000 125.000000 -0.135312 168.000000 0.029328 183.000000 -0.073478 213.000000 -0.154326 16.000000 -0.183289 78.000000 0.273575 125.000000 -0.135312
364347.000000 1.366866 228.000000 229.000000 139.000000 -0.099076 173.000000 0.135531 196.000000 -0.154533 211.000000 -0.088043 13.000000 -0.225125 69.000000 0.359999 109.000000 -0.084875
365513.000000 1.454093 242.000000 242.000000 145.000000 -0.067742 172.000000 0.089639 196.000000 -0.038762 223.000000 -0.064859 12.000000 -0.356408 70.000000 0.277322 120.000000 -0.101144
366688.000000 1.397649 220.000000 196.000000 120.000000 -0.103071 140.000000 0.027996 156.000000 -0.069558 179.000000 -0.139403 12.000000 -0.213026 76.000000 0.274014 120.000000 -0.103071
367131.000000 1.520483 247.000000 236.000000 152.000000 -0.108682 179.000000 0.081286 192.000000 -0.072083 220.000000 -0.177240 14.000000 -0.216335 86.000000 0.300330 105.000000 0.014735
367847.000000 1.357759 237.000000 199.000000 121.000000 -0.060768 149.000000 0.012541 152.000000 -0.118665 179.000000 -0.127787 16.000000 -0.192461 89.000000 0.267538 121.000000 -0.060768
368046.000000 1.341193 199.000000 255.000000 183.000000 -0.124201 207.000000 0.066646 233.000000 -0.089138 239.000000 -0.076976 15.000000 -0.135249 75.000000 0.399780 128.000000 -0.088557
368527.000000 1.412460 226.000000 225.000000 142.000000 -0.113007 164.000000 0.144703 175.000000 0.008700 213.000000 0.089012 13.000000 -0.177602 79.000000 0.271317 104.000000 -0.033118
368752.000000 1.344481 225.000000 228.000000 146.000000 -0.070657 173.000000 0.100627 180.000000 -0.087195 212.000000 -0.159624 13.000000 -0.092416 76.000000 0.308997 110.000000 -0.060172
368980.000000 1.322790 228.000000 208.000000 144.000000 -0.145860 161.000000 0.114203 172.000000 -0.013117 194.000000 -0.088745 15.000000 -0.183199 80.000000 0.290770 113.000000 -0.081641
377974.000000 1.184733 231.000000 239.000000 155.000000 -0.107353 195.000000 0.114263 218.000000 -0.057303 224.000000 -0.110939 17.000000 -0.174530 81.000000 0.307259 131.000000 -0.020283
378904.000000 1.277132 225.000000 226.000000 138.000000 -0.049639 166.000000 0.133542 178.000000 -0.105925 209.000000 -0.097067 14.000000 -0.310062 82.000000 0.330266 93.000000 0.070141
379777.000000 1.287367 199.000000 236.000000 153.000000 -0.083729 175.000000 0.013542 190.000000 -0.075846 222.000000 -0.060594 16.000000 -0.101568 70.000000 0.245771 76.000000 0.185976
382057.000000 1.270739 212.000000 230.000000 147.000000 -0.053936 172.000000 0.024702 185.000000 -0.090595 212.000000 -0.151284 14.000000 -0.253964 87.000000 0.271834 114.000000 -0.071114
383645.000000 1.274528 212.000000 222.000000 132.000000 -0.063180 161.000000 0.027320 167.000000 -0.026677 207.000000 -0.133656 12.000000 -0.355392 78.000000 0.323072 106.000000 0.004704
385880.000000 1.198625 224.000000 168.000000 40.000000 -0.081342 101.000000 0.020865 115.000000 -0.102960 152.000000 -0.090046 16.000000 -0.119274 80.000000 0.312685 115.000000 -0.102960
387666.000000 1.254060 223.000000 224.000000 133.000000 -0.052899 168.000000 0.034199 178.000000 -0.068182 208.000000 -0.150721 13.000000 -0.225394 82.000000 0.299358 108.000000 0.010596
388774.000000 1.192353 228.000000 242.000000 154.000000 -0.073699 178.000000 0.051614 210.000000 -0.183136 226.000000 -0.157241 14.000000 -0.250313 86.000000 0.277585 122.000000 -0.069499
391728.000000 1.195692 233.000000 228.000000 151.000000 -0.049249 169.000000 0.018432 182.000000 -0.044781 213.000000 -0.163932 13.000000 -0.225533 79.000000 0.330861 108.000000 -0.001379
396036.000000 1.161660 231.000000 223.000000 149.000000 -0.146395 166.000000 0.053699 178.000000 -0.088447 208.000000 -0.172615 14.000000 -0.254720 78.000000 0.255138 110.000000 -0.036554
396893.000000 1.122010 219.000000 214.000000 139.000000 -0.084624 158.000000 0.051067 185.000000 -0.119232 197.000000 -0.104513 17.000000 -0.188350 79.000000 0.219643 100.000000 -0.044464
398241.000000 1.156572 223.000000 225.000000 133.000000 -0.077773 160.000000 0.025000 194.000000 -0.143086 209.000000 -0.113197 14.000000 -0.227159 83.000000 0.206649 118.000000 -0.066065
400258.000000 1.118272 236.000000 224.000000 140.000000 -0.067601 165.000000 0.047901 194.000000 -0.108240 206.000000 -0.102706 15.000000 -0.217399 82.000000 0.277678 115.000000 -0.062115
406404.000000 1.167855 234.000000 234.000000 147.000000 -0.085678 170.000000 0.022256 186.000000 -0.140378 217.000000 -0.100813 15.000000 -0.133696 73.000000 0.189733 130.000000 -0.098092
410235.000000 1.085864 202.000000 248.000000 152.000000 -0.042931 186.000000 0.024624 214.000000 -0.072053 232.000000 -0.105235 13.000000 -0.241519 84.000000 0.208447 116.000000 -0.081694
410954.000000 1.190283 238.000000 242.000000 131.000000 -0.105955 171.000000 0.035584 189.000000 -0.036503 226.000000 -0.119671 17.000000 -0.147146 80.000000 0.260127 131.000000 -0.105955
414593.000000 1.156964 224.000000 229.000000 144.000000 -0.090421 160.000000 0.016225 182.000000 -0.043524 214.000000 -0.114498 15.000000 -0.151783 83.000000 0.232337 112.000000 -0.102711
420960.000000 1.165442 215.000000 233.000000 143.000000 -0.101616 168.000000 0.003964 189.000000 -0.080800 215.000000 -0.122116 15.000000 -0.189370 77.000000 0.250625 111.000000 -0.081273
425294.000000 1.145015 214.000000 228.000000 149.000000 -0.083120 166.000000 0.054200 186.000000 -0.071443 213.000000 -0.108812 14.000000 -0.221287 82.000000 0.242035 115.000000 -0.095362
426451.000000 1.202478 230.000000 227.000000 146.000000 -0.099704 167.000000 0.002823 183.000000 -0.060359 211.000000 -0.127411 13.000000 -0.272995 78.000000 0.221642 128.000000 -0.096946
429855.000000 1.283278 227.000000 232.000000 153.000000 -0.081849 170.000000 -0.002572 199.000000 -0.176554 216.000000 -0.161131 15.000000 -0.132756 81.000000 0.285363 122.000000 -0.082022
430554.000000 1.274122 233.000000 228.000000 147.000000 -0.073526 169.000000 0.040611 197.000000 -0.133825 210.000000 -0.115143 14.000000 -0.223433 81.000000 0.299465 112.000000 -0.051018
431013.000000 1.287615 231.000000 220.000000 143.000000 -0.064641 161.000000 0.039887 179.000000 -0.066945 204.000000 -0.146755 12.000000 -0.228324 76.000000 0.250501 110.000000 -0.063872
434160.000000 1.152902 229.000000 237.000000 142.000000 -0.064323 170.000000 0.011285 190.000000 -0.044671 221.000000 -0.092867 12.000000 -0.352882 80.000000 0.202617 110.000000 -0.047665
437836.000000 1.179001 224.000000 228.000000 143.000000 -0.049169 166.000000 0.015234 174.000000 -0.045973 210.000000 -0.139803 12.000000 -0.258729 71.000000 0.207083 143.000000 -0.049169
439449.000000 1.259621 224.000000 234.000000 140.000000 -0.035381 167.000000 0.042864 213.000000 -0.123421 218.000000 -0.130271 13.000000 -0.270676 84.000000 0.256408 111.000000 -0.031288
440361.000000 1.228700 219.000000 223.000000 142.000000 -0.131789 167.000000 0.024825 183.000000 -0.149281 206.000000 -0.176394 13.000000 -0.202305 66.000000 0.262036 107.000000 -0.037873
441745.000000 1.307539 225.000000 223.000000 115.000000 -0.143836 164.000000 0.025283 178.000000 -0.069954 208.000000 -0.094360 13.000000 -0.270642 79.000000 0.156053 114.000000 -0.143162
442187.000000 1.442554 219.000000 217.000000 145.000000 -0.132651 172.000000 0.001784 181.000000 -0.054361 200.000000 -0.124343 13.000000 -0.104389 83.000000 0.275546 100.000000 0.006346
452307.000000 1.393405 224.000000 223.000000 136.000000 -0.094247 163.000000 0.030581 190.000000 -0.122115 207.000000 -0.169857 16.000000 -0.193415 79.000000 0.265064 112.000000 -0.073419
453197.000000 1.382195 222.000000 212.000000 128.000000 -0.098022 162.000000 -0.003947 169.000000 -0.051048 192.000000 -0.164826 14.000000 -0.193150 73.000000 0.246665 113.000000 -0.067567
454087.000000 1.285247 229.000000 232.000000 130.000000 -0.056017 165.000000 0.039329 191.000000 -0.032757 217.000000 -0.132213 13.000000 -0.275708 81.000000 0.274011 130.000000 -0.056017
454319.000000 1.346268 232.000000 226.000000 146.000000 -0.071909 168.000000 0.027039 177.000000 -0.059169 213.000000 -0.169730 13.000000 -0.227744 72.000000 0.272258 78.000000 0.255848
454996.000000 1.386488 224.000000 220.000000 135.000000 -0.128744 169.000000 -0.033853 176.000000 -0.089073 204.000000 -0.146616 3.000000 0.791019 74.000000 0.285172 135.000000 -0.128744
455647.000000 1.254560 212.000000 231.000000 138.000000 -0.068917 166.000000 0.043797 185.000000 -0.022787 212.000000 -0.134920 13.000000 -0.277194 81.000000 0.323980 125.000000 -0.050076
455878.000000 1.362412 231.000000 242.000000 155.000000 -0.078295 176.000000 0.007709 195.000000 -0.079782 226.000000 -0.189813 16.000000 -0.178168 79.000000 0.288710 125.000000 -0.081961
457030.000000 1.369593 224.000000 220.000000 150.000000 -0.106004 169.000000 0.064624 181.000000 0.006944 205.000000 -0.144685 14.000000 -0.193386 79.000000 0.299624 119.000000 -0.061129
457250.000000 1.361741 220.000000 226.000000 129.000000 -0.078653 165.000000 0.043871 208.000000 -0.115082 213.000000 -0.147684 13.000000 -0.196206 69.000000 0.301084 129.000000 -0.078653
457476.000000 1.358023 226.000000 214.000000 133.000000 -0.081897 161.000000 0.041896 195.000000 -0.121159 201.000000 -0.143542 13.000000 -0.257337 77.000000 0.292115 104.000000 -0.084152
457690.000000 1.407931 214.000000 234.000000 147.000000 -0.131975 163.000000 0.003055 204.000000 -0.159781 220.000000 -0.167727 12.000000 -0.281693 73.000000 0.292759 147.000000 -0.131975
458156.000000 1.349595 232.000000 234.000000 115.000000 -0.111883 166.000000 0.025484 181.000000 -0.060771 216.000000 -0.098716 13.000000 -0.281424 86.000000 0.253838 116.000000 -0.102448
459736.000000 1.534801 214.000000 212.000000 133.000000 -0.051076 157.000000 0.019923 172.000000 -0.085124 197.000000 -0.123980 13.000000 -0.203586 73.000000 0.295567 125.000000 -0.078145
464865.000000 1.287805 244.000000 197.000000 114.000000 -0.073808 136.000000 -0.010612 144.000000 -0.067414 182.000000 -0.135393 15.000000 -0.192554 82.000000 0.263920 120.000000 -0.088762
465566.000000 1.248971 237.000000 224.000000 122.000000 -0.187371 161.000000 -0.052541 169.000000 -0.099735 207.000000 -0.175829 13.000000 -0.218962 76.000000 0.157710 109.000000 -0.172481
467146.000000 1.269184 214.000000 248.000000 170.000000 -0.068983 189.000000 0.017790 195.000000 -0.011049 234.000000 -0.074868 13.000000 -0.192181 81.000000 0.240421 123.000000 -0.063448
473100.000000 1.321959 234.000000 244.000000 161.000000 -0.076861 180.000000 -0.002960 184.000000 -0.065437 227.000000 -0.129402 13.000000 -0.166975 80.000000 0.309249 118.000000 -0.074026
473344.000000 1.378765 244.000000 236.000000 150.000000 -0.104431 178.000000 0.001207 191.000000 -0.055831 217.000000 -0.120735 14.000000 -0.186377 75.000000 0.280255 134.000000 -0.102065
474256.000000 1.291663 197.000000 253.000000 176.000000 -0.149276 201.000000 -0.021410 214.000000 -0.077367 238.000000 -0.085693 14.000000 -0.154434 76.000000 0.299376 125.000000 -0.115952
475184.000000 1.311759 232.000000 233.000000 126.000000 -0.068984 168.000000 0.009656 176.000000 -0.078368 215.000000 -0.133289 13.000000 -0.250640 84.000000 0.246817 126.000000 -0.068984
475417.000000 1.356975 233.000000 244.000000 144.000000 -0.064809 181.000000 0.054673 199.000000 -0.061927 227.000000 -0.142725 15.000000 -0.220000 79.000000 0.316756 126.000000 -0.052928
476133.000000 1.208965 228.000000 232.000000 150.000000 -0.080530 168.000000 0.023982 190.000000 -0.067696 218.000000 -0.173105 15.000000 -0.265470 82.000000 0.237025 116.000000 -0.099026
477960.000000 1.259892 232.000000 234.000000 152.000000 -0.067648 172.000000 0.056394 177.000000 0.004560 220.000000 -0.126178 14.000000 -0.211017 86.000000 0.278170 121.000000 -0.073774
482289.000000 1.321611 230.000000 229.000000 150.000000 -0.101429 174.000000 -0.036915 183.000000 -0.119015 213.000000 -0.159858 14.000000 -0.218938 79.000000 0.196771 129.000000 -0.119750
484102.000000 1.317707 238.000000 241.000000 149.000000 -0.068494 179.000000 0.004657 189.000000 -0.072131 224.000000 -0.187631 14.000000 -0.227921 77.000000 0.285843 128.000000 -0.076363
484343.000000 1.345723 241.000000 241.000000 148.000000 -0.089434 178.000000 -0.013043 195.000000 -0.087009 224.000000 -0.142322 16.000000 -0.204088 78.000000 0.180584 116.000000 -0.133948
487589.000000 1.252738 223.000000 232.000000 159.000000 -0.053102 179.000000 0.027416 193.000000 -0.038226 217.000000 -0.081185 13.000000 -0.278938 82.000000 0.268529 105.000000 -0.036798
491320.000000 1.261254 230.000000 227.000000 141.000000 -0.049984 163.000000 0.044783 186.000000 -0.021204 209.000000 -0.141157 13.000000 -0.277759 80.000000 0.253102 116.000000 -0.047179
495264.000000 1.226471 241.000000 234.000000 146.000000 -0.091469 172.000000 0.023261 191.000000 -0.021411 218.000000 -0.148592 16.000000 -0.174577 83.000000 0.266135 122.000000 -0.075058
496180.000000 1.226129 230.000000 221.000000 129.000000 -0.129668 170.000000 0.011678 182.000000 -0.071189 207.000000 -0.154216 12.000000 -0.274154 75.000000 0.281599 129.000000 -0.129668
499366.000000 1.360978 233.000000 239.000000 164.000000 -0.043012 182.000000 0.007193 195.000000 -0.043575 223.000000 -0.131740 14.000000 -0.191703 86.000000 0.262461 120.000000 -0.102997
502776.000000 1.171959 226.000000 218.000000 101.000000 -0.058933 169.000000 0.024139 179.000000 -0.052226 198.000000 -0.134953 13.000000 -0.311976 79.000000 0.305848 110.000000 -0.053981
505033.000000 1.193556 221.000000 216.000000 140.000000 -0.071961 164.000000 0.015735 175.000000 -0.024280 197.000000 -0.089638 17.000000 -0.161695 72.000000 0.253398 119.000000 -0.066773
505483.000000 1.303059 234.000000 240.000000 137.000000 -0.120702 174.000000 0.043998 182.000000 -0.002475 221.000000 -0.108386 12.000000 -0.295593 78.000000 0.255144 119.000000 -0.106564
507753.000000 1.173559 254.000000 243.000000 154.000000 0.011834 173.000000 0.062021 196.000000 -0.007913 226.000000 -0.102959 12.000000 -0.463417 82.000000 0.260296 125.000000 -0.076191
508234.000000 1.209943 238.000000 174.000000 34.000000 -0.067346 105.000000 -0.029101 116.000000 -0.102896 157.000000 -0.119279 14.000000 -0.213740 81.000000 0.295194 116.000000 -0.102896
510751.000000 1.122929 224.000000 224.000000 135.000000 -0.078481 158.000000 -0.001269 184.000000 -0.062036 210.000000 -0.147196 13.000000 -0.271945 84.000000 0.272260 136.000000 -0.069296
514154.000000 1.246060 234.000000 237.000000 141.000000 -0.067082 168.000000 0.030678 191.000000 -0.063351 222.000000 -0.112242 15.000000 -0.186182 78.000000 0.277585 118.000000 -0.028898
515103.000000 1.246225 227.000000 229.000000 146.000000 -0.115028 165.000000 0.012589 185.000000 -0.076612 213.000000 -0.166804 13.000000 -0.226001 78.000000 0.258229 115.000000 -0.054058
517174.000000 1.247426 230.000000 226.000000 140.000000 -0.096831 167.000000 0.018809 184.000000 -0.042475 211.000000 -0.134200 14.000000 -0.192903 82.000000 0.269185 144.000000 -0.060970
518079.000000 1.241272 222.000000 217.000000 136.000000 -0.144186 162.000000 -0.024811 174.000000 -0.078965 201.000000 -0.148073 12.000000 -0.296485 72.000000 0.205173 104.000000 -0.136881
519484.000000 1.315705 234.000000 227.000000 145.000000 -0.082213 167.000000 0.042286 187.000000 -0.059187 210.000000 -0.109342 13.000000 -0.219485 77.000000 0.272696 114.000000 -0.051115
519939.000000 1.209834 228.000000 231.000000 139.000000 -0.066974 168.000000 0.018480 186.000000 -0.057899 214.000000 -0.133797 14.000000 -0.217831 77.000000 0.279317 106.000000 -0.027802
521563.000000 1.257227 223.000000 230.000000 138.000000 -0.078447 164.000000 -0.005796 184.000000 -0.089871 217.000000 -0.164013 15.000000 -0.128071 80.000000 0.257367 124.000000 -0.092506
522685.000000 1.205002 221.000000 232.000000 153.000000 -0.050124 170.000000 0.019075 191.000000 -0.070081 217.000000 -0.127728 12.000000 -0.362897 81.000000 0.272980 123.000000 -0.068574
523392.000000 1.171318 233.000000 233.000000 155.000000 -0.100941 184.000000 0.017256 191.000000 -0.016445 217.000000 -0.119017 15.000000 -0.148339 82.000000 0.290896 137.000000 -0.108901
523625.000000 1.208334 233.000000 233.000000 137.000000 -0.057947 167.000000 0.026099 203.000000 -0.142194 219.000000 -0.165094 13.000000 -0.185223 82.000000 0.286077 114.000000 -0.052023
524740.000000 1.254970 215.000000 239.000000 42.000000 -0.035484 167.000000 0.030786 191.000000 -0.063462 223.000000 -0.128827 13.000000 -0.253776 78.000000 0.290035 152.000000 -0.109590
526578.000000 1.240770 227.000000 216.000000 140.000000 -0.101585 161.000000 0.044652 187.000000 -0.140378 201.000000 -0.076050 13.000000 -0.207192 75.000000 0.317117 115.000000 -0.082416
529772.000000 1.244454 236.000000 236.000000 140.000000 -0.079310 170.000000 0.022712 180.000000 -0.055986 228.000000 -0.194138 14.000000 -0.280406 85.000000 0.255265 122.000000 -0.080817
530008.000000 1.280407 236.000000 225.000000 140.000000 -0.089875 162.000000 0.038401 180.000000 -0.040125 208.000000 -0.118884 10.000000 -0.458761 78.000000 0.309467 116.000000 -0.102869
531348.000000 1.308391 227.000000 236.000000 155.000000 -0.072779 177.000000 0.009181 194.000000 -0.034752 219.000000 -0.133829 15.000000 -0.163522 83.000000 0.256661 124.000000 -0.041336
532741.000000 1.231535 228.000000 230.000000 138.000000 -0.084530 171.000000 0.062522 200.000000 -0.118009 213.000000 -0.171880 13.000000 -0.299185 81.000000 0.291206 119.000000 -0.071425
533884.000000 1.175267 243.000000 242.000000 140.000000 -0.059923 181.000000 0.008763 197.000000 -0.064826 226.000000 -0.152978 14.000000 -0.218463 84.000000 0.261425 111.000000 -0.002778
535690.000000 1.311017 226.000000 239.000000 154.000000 -0.075065 173.000000 0.032413 193.000000 -0.058152 223.000000 -0.102838 14.000000 -0.203638 78.000000 0.276019 87.000000 0.207084
536393.000000 1.312537 230.000000 221.000000 140.000000 -0.120484 167.000000 0.032399 176.000000 -0.068650 206.000000 -0.115046 12.000000 -0.324751 85.000000 0.287005 140.000000 -0.120484
538434.000000 1.179994 237.000000 233.000000 147.000000 -0.082711 166.000000 0.033354 189.000000 -0.069310 218.000000 -0.152696 15.000000 -0.189205 83.000000 0.271129 124.000000 -0.053619
538667.000000 1.231616 233.000000 231.000000 131.000000 -0.084402 162.000000 0.001287 191.000000 -0.034325 213.000000 -0.155504 13.000000 -0.250374 79.000000 0.237323 115.000000 -0.090671
541426.000000 1.206628 230.000000 225.000000 147.000000 -0.086959 167.000000 0.046004 181.000000 -0.050953 211.000000 -0.096866 13.000000 -0.265221 80.000000 0.252272 123.000000 -0.073071
544385.000000 1.185186 234.000000 241.000000 156.000000 -0.082350 175.000000 0.070564 209.000000 -0.112694 225.000000 -0.130293 13.000000 -0.353324 79.000000 0.312806 107.000000 -0.051442
550412.000000 1.338185 229.000000 151.000000 30.000000 -0.118007 91.000000 0.066110 107.000000 -0.105538 135.000000 -0.090553 13.000000 -0.284261 71.000000 0.290970 107.000000 -0.105538
552209.000000 1.561600 290.000000 234.000000 156.000000 -0.062127 175.000000 0.062041 193.000000 -0.045076 215.000000 -0.142365 15.000000 -0.202679 80.000000 0.213825 112.000000 -0.069357
554253.000000 1.220988 222.000000 216.000000 139.000000 -0.111627 159.000000 0.031648 178.000000 -0.075216 198.000000 -0.152520 14.000000 -0.207287 81.000000 0.290864 110.000000 -0.092804
555850.000000 1.284467 240.000000 234.000000 157.000000 -0.084559 182.000000 0.018560 203.000000 -0.166176 218.000000 -0.103997 14.000000 -0.226035 74.000000 0.277555 135.000000 -0.078934
556084.000000 1.288181 234.000000 231.000000 152.000000 -0.067525 169.000000 0.033132 196.000000 -0.141929 217.000000 -0.151424 12.000000 -0.331724 75.000000 0.296770 111.000000 -0.058810
557177.000000 1.229918 179.000000 268.000000 191.000000 -0.123889 211.000000 -0.020206 228.000000 -0.100128 253.000000 -0.090740 15.000000 -0.178813 79.000000 0.286284 117.000000 -0.113025
559050.000000 1.203434 210.000000 227.000000 147.000000 -0.183087 167.000000 -0.023496 184.000000 -0.135159 213.000000 -0.174345 13.000000 -0.199042 82.000000 0.241676 116.000000 -0.146599
560180.000000 1.219556 183.000000 261.000000 184.000000 -0.078778 203.000000 0.013824 216.000000 -0.035910 242.000000 -0.077333 15.000000 -0.136637 78.000000 0.307957 118.000000 -0.081428
561094.000000 1.176974 194.000000 243.000000 150.000000 -0.065629 190.000000 0.022994 194.000000 -0.039781 229.000000 -0.124120 14.000000 -0.175377 75.000000 0.305561 115.000000 -0.091617
563440.000000 1.208542 222.000000 224.000000 145.000000 -0.089371 166.000000 0.018636 181.000000 -0.098763 205.000000 -0.141394 15.000000 -0.166018 70.000000 0.261506 125.000000 -0.064341
564395.000000 1.231555 241.000000 229.000000 150.000000 -0.120909 170.000000 0.012649 181.000000 -0.058245 211.000000 -0.132177 13.000000 -0.212142 81.000000 0.269750 135.000000 -0.079325
565527.000000 1.320436 259.000000 226.000000 136.000000 -0.093085 161.000000 0.008105 179.000000 -0.086503 211.000000 -0.153791 14.000000 -0.208544 78.000000 0.263355 115.000000 -0.102020
566417.000000 1.260284 263.000000 245.000000 154.000000 -0.022917 177.000000 -0.002665 191.000000 -0.065845 231.000000 -0.144369 15.000000 -0.205734 87.000000 0.258808 119.000000 -0.028733
566662.000000 1.257200 245.000000 234.000000 145.000000 -0.089982 166.000000 0.013889 210.000000 -0.113760 215.000000 -0.097616 15.000000 -0.164400 82.000000 0.245331 116.000000 -0.100565
569878.000000 1.281615 231.000000 222.000000 139.000000 -0.057711 166.000000 0.051817 178.000000 -0.017243 207.000000 -0.106864 12.000000 -0.363291 77.000000 0.273420 114.000000 -0.061849
570567.000000 1.266786 233.000000 238.000000 146.000000 -0.113841 178.000000 0.031896 195.000000 -0.039986 223.000000 -0.134343 13.000000 -0.272132 84.000000 0.267354 124.000000 -0.067381
570805.000000 1.348669 238.000000 238.000000 151.000000 -0.081491 176.000000 -0.007350 191.000000 -0.118495 221.000000 -0.149809 14.000000 -0.183762 74.000000 0.288667 136.000000 -0.081930
571043.000000 1.291006 238.000000 226.000000 132.000000 -0.083665 165.000000 0.007586 183.000000 -0.051930 210.000000 -0.128294 13.000000 -0.263071 82.000000 0.247777 112.000000 -0.073008
573113.000000 1.217929 250.000000 229.000000 140.000000 -0.062966 166.000000 0.036800 187.000000 -0.072963 212.000000 -0.151440 15.000000 -0.209203 81.000000 0.318757 110.000000 -0.040977
576953.000000 1.212038 198.000000 262.000000 194.000000 -0.190783 219.000000 0.270535 236.000000 -0.158240 244.000000 -0.065889 15.000000 -0.129045 89.000000 0.282852 119.000000 -0.166945
577841.000000 1.685194 164.000000 226.000000 148.000000 -0.101722 168.000000 -0.009027 182.000000 -0.086268 210.000000 -0.166566 13.000000 -0.126153 76.000000 0.131411 106.000000 -0.111818
578287.000000 1.335877 220.000000 214.000000 141.000000 -0.085738 169.000000 0.003117 182.000000 -0.146631 196.000000 -0.042444 13.000000 -0.198433 76.000000 0.257053 120.000000 -0.137961
580490.000000 1.287572 214.000000 217.000000 137.000000 -0.083323 159.000000 -0.009421 183.000000 -0.116364 199.000000 -0.139279 15.000000 -0.076753 81.000000 0.233402 115.000000 -0.128244
582652.000000 1.210124 176.000000 243.000000 155.000000 -0.031160 188.000000 0.118619 200.000000 0.004216 224.000000 -0.068557 14.000000 -0.176289 125.000000 0.174531 155.000000 -0.031160
583335.000000 1.106661 229.000000 233.000000 123.000000 -0.020909 158.000000 0.037882 209.000000 -0.153404 216.000000 -0.046978 12.000000 -0.287760 80.000000 0.247195 123.000000 -0.020909
583568.000000 1.177414 233.000000 230.000000 125.000000 -0.097555 165.000000 0.082337 177.000000 0.057775 214.000000 -0.109764 15.000000 -0.287617 88.000000 0.318622 125.000000 -0.097555
584021.000000 1.254405 223.000000 218.000000 141.000000 -0.091912 160.000000 0.132336 170.000000 0.046177 202.000000 -0.113305 13.000000 -0.262555 87.000000 0.191250 111.000000 -0.050300
584455.000000 1.207368 216.000000 218.000000 111.000000 -0.065515 144.000000 0.026992 149.000000 -0.185139 201.000000 -0.194499 12.000000 -0.212006 72.000000 0.378889 83.000000 0.155958
586446.000000 1.263402 225.000000 224.000000 126.000000 -0.060641 152.000000 0.096820 160.000000 -0.105234 206.000000 -0.094327 14.000000 -0.172994 78.000000 0.374673 111.000000 -0.044325
587102.000000 1.274689 234.000000 207.000000 117.000000 -0.060140 159.000000 0.014796 175.000000 -0.185519 193.000000 -0.110723 15.000000 -0.113429 79.000000 0.338044 117.000000 -0.060140
589121.000000 1.117650 213.000000 220.000000 133.000000 -0.135893 186.000000 0.134202 200.000000 -0.165030 206.000000 -0.065234 13.000000 -0.202476 71.000000 0.320861 112.000000 -0.068246
590009.000000 1.289751 226.000000 228.000000 128.000000 -0.194012 163.000000 0.029263 180.000000 -0.078448 207.000000 -0.445063 14.000000 -0.232773 74.000000 0.215502 117.000000 -0.138730
590462.000000 1.461178 225.000000 221.000000 114.000000 -0.118306 139.000000 0.112807 149.000000 -0.122287 207.000000 -0.079404 16.000000 -0.162865 70.000000 0.231414 95.000000 -0.118398
592890.000000 1.190109 215.000000 218.000000 138.000000 -0.038495 174.000000 0.061551 193.000000 -0.100018 202.000000 -0.187965 14.000000 -0.244405 67.000000 0.299044 107.000000 -0.123638
593108.000000 1.254401 218.000000 211.000000 119.000000 -0.060531 156.000000 0.029045 165.000000 -0.017241 196.000000 -0.072352 14.000000 -0.110694 67.000000 0.220251 119.000000 -0.060531
597457.000000 1.135738 204.000000 204.000000 136.000000 -0.035722 169.000000 0.048526 185.000000 -0.119156 187.000000 -0.124438 14.000000 -0.184123 84.000000 0.241580 112.000000 -0.114672
597661.000000 1.195986 204.000000 207.000000 117.000000 -0.082023 143.000000 0.015470 152.000000 -0.057570 192.000000 -0.155221 14.000000 -0.176506 78.000000 0.261112 111.000000 -0.117211
598274.000000 1.142227 209.000000 214.000000 111.000000 -0.153743 156.000000 0.051206 182.000000 -0.110863 201.000000 -0.116612 12.000000 -0.336630 66.000000 0.261289 73.000000 0.167558
600177.000000 1.291775 207.000000 202.000000 99.000000 -0.006192 143.000000 0.082915 157.000000 -0.071536 186.000000 -0.152038 15.000000 -0.209167 72.000000 0.390580 99.000000 -0.006192
600379.000000 1.359405 202.000000 222.000000 153.000000 -0.143076 187.000000 0.055137 201.000000 -0.028828 203.000000 -0.013780 14.000000 -0.224107 73.000000 0.344765 103.000000 -0.067352
601051.000000 1.241241 226.000000 227.000000 122.000000 -0.076222 170.000000 0.050864 180.000000 -0.087350 208.000000 -0.116456 16.000000 -0.192867 73.000000 0.244171 79.000000 0.227306
604228.000000 1.280925 154.000000 248.000000 179.000000 -0.155138 196.000000 0.003574 210.000000 -0.119859 230.000000 -0.149028 15.000000 -0.109750 75.000000 0.245185 112.000000 -0.044138
605810.000000 1.387161 224.000000 185.000000 102.000000 -0.030108 140.000000 0.053417 170.000000 -0.027648 171.000000 -0.059310 12.000000 -0.325815 80.000000 0.301255 89.000000 0.145988
607347.000000 1.279515 235.000000 230.000000 117.000000 -0.150408 158.000000 0.083291 170.000000 -0.027853 218.000000 -0.026256 12.000000 -0.328792 89.000000 0.273419 104.000000 -0.053071
607577.000000 1.291175 230.000000 227.000000 140.000000 -0.157067 163.000000 0.241411 191.000000 0.029626 211.000000 -0.142992 14.000000 -0.274655 94.000000 0.355611 113.000000 -0.079170
609088.000000 1.255455 223.000000 224.000000 160.000000 -0.062522 186.000000 0.133750 202.000000 -0.189118 207.000000 -0.168286 13.000000 -0.233212 85.000000 0.420927 100.000000 0.002980
609709.000000 1.328840 179.000000 250.000000 194.000000 0.027225 212.000000 0.040736 227.000000 -0.157414 230.000000 -0.133511 13.000000 -0.245454 81.000000 0.212605 111.000000 -0.128118
610178.000000 1.307871 219.000000 223.000000 127.000000 0.000813 159.000000 0.167696 168.000000 0.011975 209.000000 -0.122851 18.000000 -0.140705 86.000000 0.349589 127.000000 0.000813
611272.000000 1.350800 216.000000 228.000000 141.000000 -0.025205 165.000000 0.081880 188.000000 -0.106820 212.000000 -0.183259 13.000000 -0.326600 84.000000 0.369402 118.000000 -0.157887
611500.000000 1.230770 228.000000 189.000000 111.000000 -0.044471 145.000000 0.188037 156.000000 0.091267 171.000000 0.042378 14.000000 -0.218714 85.000000 0.216864 111.000000 -0.044471
611689.000000 1.436343 189.000000 269.000000 119.000000 -0.145751 166.000000 0.030829 186.000000 -0.044751 254.000000 -0.113421 18.000000 -0.072951 89.000000 0.144388 119.000000 -0.145751
613451.000000 1.291615 211.000000 233.000000 146.000000 -0.064280 168.000000 0.026943 173.000000 -0.024797 216.000000 -0.096962 15.000000 -0.170909 67.000000 0.215031 74.000000 0.185955
615398.000000 1.233245 203.000000 219.000000 132.000000 -0.120911 159.000000 0.086302 167.000000 0.017211 203.000000 -0.131863 13.000000 -0.282399 77.000000 0.259307 103.000000 -0.085755
615617.000000 1.285002 219.000000 227.000000 120.000000 -0.106112 149.000000 -0.019952 153.000000 -0.061316 210.000000 -0.133137 12.000000 -0.288523 66.000000 0.195442 114.000000 -0.121064
616304.000000 1.245005 232.000000 225.000000 143.000000 -0.113135 164.000000 0.050344 182.000000 -0.066662 211.000000 -0.103748 14.000000 -0.238368 82.000000 0.273809 110.000000 -0.122071
621150.000000 1.199313 223.000000 197.000000 116.000000 -0.105576 159.000000 0.067276 167.000000 -0.063586 182.000000 -0.053930 14.000000 -0.199950 77.000000 0.252402 116.000000 -0.105576
622416.000000 1.385471 257.000000 247.000000 155.000000 -0.054059 186.000000 0.014172 198.000000 -0.060310 233.000000 -0.115672 14.000000 -0.248745 89.000000 0.247317 117.000000 -0.058717
622663.000000 1.248604 247.000000 231.000000 146.000000 -0.071047 168.000000 0.054091 187.000000 -0.031425 216.000000 -0.132003 15.000000 -0.218199 81.000000 0.243934 122.000000 -0.074151
625668.000000 1.214483 233.000000 227.000000 148.000000 -0.051446 168.000000 0.061378 173.000000 0.025689 207.000000 -0.084108 12.000000 -0.368325 66.000000 0.285421 113.000000 -0.068797
631372.000000 1.311282 246.000000 241.000000 153.000000 -0.082461 178.000000 0.012116 194.000000 -0.066930 224.000000 -0.149425 15.000000 -0.198451 77.000000 0.272805 137.000000 -0.101114
631779.000000 1.740862 166.000000 205.000000 114.000000 -0.147050 143.000000 0.003498 164.000000 -0.172475 189.000000 -0.131021 14.000000 0.001033 82.000000 0.171760 114.000000 -0.147050
632937.000000 1.503667 216.000000 310.000000 231.000000 -0.099859 251.000000 0.041098 265.000000 -0.034842 292.000000 -0.060796 13.000000 -0.288435 78.000000 0.215234 109.000000 -0.001457
633247.000000 1.535538 310.000000 244.000000 159.000000 -0.089027 180.000000 0.017635 187.000000 -0.051362 228.000000 -0.125716 14.000000 -0.201359 79.000000 0.246802 111.000000 -0.052587
634191.000000 1.348123 231.000000 232.000000 128.000000 -0.076488 167.000000 0.039733 176.000000 -0.005518 215.000000 -0.090378 12.000000 -0.320591 77.000000 0.305927 111.000000 -0.065016
635344.000000 1.311901 242.000000 249.000000 155.000000 -0.013556 178.000000 0.018778 201.000000 -0.062742 233.000000 -0.123182 13.000000 -0.359352 81.000000 0.293248 114.000000 -0.031095
636516.000000 1.372400 214.000000 235.000000 154.000000 -0.157036 177.000000 -0.002634 199.000000 -0.071599 221.000000 -0.126927 12.000000 -0.359905 74.000000 0.273968 114.000000 -0.204982
637446.000000 1.334705 240.000000 242.000000 155.000000 -0.095801 178.000000 -0.009484 197.000000 -0.109076 225.000000 -0.077448 14.000000 -0.309543 81.000000 0.239080 121.000000 -0.119169
638391.000000 1.285033 233.000000 233.000000 138.000000 -0.047508 169.000000 0.011128 178.000000 -0.038809 215.000000 -0.150594 14.000000 -0.222789 73.000000 0.269340 117.000000 -0.060237
640022.000000 1.293546 246.000000 240.000000 143.000000 -0.117260 176.000000 0.043713 187.000000 0.009576 222.000000 -0.111836 14.000000 -0.164291 75.000000 0.315987 112.000000 -0.168404
640499.000000 1.486833 237.000000 234.000000 156.000000 -0.105940 174.000000 -0.025596 183.000000 -0.075612 216.000000 -0.139575 13.000000 -0.279891 71.000000 0.231752 122.000000 -0.113075
640733.000000 1.492853 234.000000 232.000000 153.000000 -0.095060 172.000000 0.025459 188.000000 -0.057176 216.000000 -0.105344 15.000000 -0.187399 71.000000 0.258335 119.000000 -0.086772
641193.000000 1.331335 228.000000 228.000000 149.000000 -0.109638 176.000000 0.015849 184.000000 -0.010108 210.000000 -0.053916 13.000000 -0.188663 72.000000 0.356633 120.000000 -0.068321
642618.000000 1.326441 206.000000 261.000000 162.000000 -0.027728 201.000000 0.038102 231.000000 -0.090265 242.000000 -0.095576 15.000000 -0.112102 69.000000 0.282211 108.000000 -0.102364
646075.000000 1.304204 234.000000 246.000000 143.000000 -0.130342 182.000000 -0.036315 197.000000 -0.106488 230.000000 -0.125144 14.000000 -0.270608 81.000000 0.275799 128.000000 -0.148713
647265.000000 1.294971 230.000000 179.000000 100.000000 -0.012493 122.000000 0.026427 151.000000 -0.111109 160.000000 -0.105794 15.000000 -0.215561 80.000000 0.292522 101.000000 -0.038276
648194.000000 1.282584 246.000000 241.000000 154.000000 -0.116662 176.000000 0.010424 196.000000 -0.048699 227.000000 -0.134641 15.000000 -0.212087 79.000000 0.253100 116.000000 -0.103606
648435.000000 1.363429 241.000000 239.000000 152.000000 -0.091300 175.000000 -0.018288 181.000000 -0.057645 221.000000 -0.145188 14.000000 -0.241039 74.000000 0.265059 123.000000 -0.105515
649627.000000 1.345859 239.000000 231.000000 153.000000 -0.095562 183.000000 0.034608 189.000000 0.015533 213.000000 -0.040625 14.000000 -0.144313 75.000000 0.288965 127.000000 -0.076092
