309.000000 1.983546 309.000000 195.000000 57.000000 -0.407929 117.000000 0.198668 142.000000 -0.143886 178.000000 0.188933 15.000000 0.022166 110.000000 0.331144 142.000000 -0.143886
977.000000 2.011960 473.000000 338.000000 251.000000 -0.150378 281.000000 0.230843 315.000000 -0.193919 322.000000 -0.170171 16.000000 -0.121929 114.000000 0.388322 147.000000 -0.083797
1315.000000 1.946992 338.000000 336.000000 251.000000 -0.163447 281.000000 0.211553 309.000000 -0.190782 316.000000 -0.164325 16.000000 0.008734 115.000000 0.442790 155.000000 -0.123683
1651.000000 1.964750 336.000000 320.000000 239.000000 -0.169232 265.000000 0.189718 297.000000 -0.209089 305.000000 -0.160374 15.000000 -0.023963 113.000000 0.427745 147.000000 -0.137823
1971.000000 2.050346 320.000000 323.000000 231.000000 -0.149765 264.000000 0.249641 297.000000 -0.172084 304.000000 -0.173243 13.000000 0.026443 105.000000 0.487722 142.000000 -0.117746
2294.000000 2.021066 323.000000 196.000000 54.000000 -0.435956 118.000000 0.223007 140.000000 -0.154125 166.000000 -0.020691 14.000000 0.041724 108.000000 0.310608 140.000000 -0.154125
2956.000000 2.091428 466.000000 341.000000 259.000000 -0.149731 285.000000 0.252807 318.000000 -0.195737 325.000000 -0.199155 16.000000 -0.091909 117.000000 0.416930 151.000000 -0.080452
4906.000000 2.100224 457.000000 334.000000 251.000000 -0.145735 278.000000 0.234388 296.000000 -0.195660 315.000000 -0.168261 15.000000 0.026589 114.000000 0.428712 149.000000 -0.087181
5552.000000 2.006756 312.000000 330.000000 241.000000 -0.192417 270.000000 0.255999 291.000000 -0.180974 314.000000 -0.210657 18.000000 -0.154419 112.000000 0.460349 151.000000 -0.129763
5882.000000 2.107666 330.000000 328.000000 228.000000 -0.112635 270.000000 0.229858 302.000000 -0.155832 307.000000 -0.199906 13.000000 0.077587 111.000000 0.502494 149.000000 -0.140501
6210.000000 2.044811 328.000000 311.000000 230.000000 -0.172958 252.000000 0.204909 271.000000 -0.165469 294.000000 -0.197492 15.000000 -0.065709 106.000000 0.479827 156.000000 -0.188855
6521.000000 2.013102 311.000000 343.000000 237.000000 -0.130016 287.000000 0.280298 305.000000 -0.178447 326.000000 -0.183947 16.000000 -0.096758 116.000000 0.490363 152.000000 -0.150675
6864.000000 2.057384 343.000000 336.000000 250.000000 -0.147165 277.000000 0.255109 309.000000 -0.185643 318.000000 -0.164324 16.000000 -0.065706 111.000000 0.518715 144.000000 -0.145078
7200.000000 2.050800 336.000000 313.000000 227.000000 -0.172756 256.000000 0.199516 273.000000 -0.170502 295.000000 -0.174798 14.000000 -0.010516 108.000000 0.451149 150.000000 -0.144369
8860.000000 2.084985 481.000000 194.000000 55.000000 -0.464044 120.000000 0.292931 151.000000 -0.079938 176.000000 0.244451 14.000000 0.040940 115.000000 0.268401 151.000000 -0.079938
9531.000000 2.123951 477.000000 206.000000 65.000000 -0.402817 124.000000 0.089235 144.000000 -0.101532 181.000000 0.074047 15.000000 -0.019621 110.000000 0.235019 144.000000 -0.101532
10194.000000 2.171411 457.000000 216.000000 72.000000 -0.403841 180.000000 0.088873 180.000000 0.088873 187.000000 0.055079 16.000000 -0.115345 121.000000 0.212854 170.000000 0.016349
11545.000000 2.114110 478.000000 318.000000 230.000000 -0.165047 262.000000 0.196771 292.000000 -0.206535 299.000000 -0.222867 20.000000 -0.161688 117.000000 0.371694 158.000000 -0.066537
11863.000000 2.097415 318.000000 324.000000 244.000000 -0.148507 268.000000 0.222762 286.000000 -0.146329 308.000000 -0.186989 17.000000 -0.158667 118.000000 0.395141 152.000000 -0.190925
12502.000000 2.093446 315.000000 303.000000 221.000000 -0.156518 247.000000 0.196916 269.000000 -0.236079 287.000000 -0.182803 14.000000 0.007224 108.000000 0.455938 151.000000 -0.202929
15451.000000 2.157790 469.000000 317.000000 236.000000 -0.166942 263.000000 0.176365 292.000000 -0.197350 300.000000 -0.210124 18.000000 -0.130581 122.000000 0.393543 155.000000 -0.111599
15768.000000 2.118669 317.000000 312.000000 231.000000 -0.163804 262.000000 0.187747 275.000000 -0.213288 296.000000 -0.163869 15.000000 -0.091159 106.000000 0.445456 154.000000 -0.178979
16080.000000 2.155549 312.000000 325.000000 237.000000 -0.144730 267.000000 0.208246 284.000000 -0.185217 308.000000 -0.187257 14.000000 0.045047 115.000000 0.476440 156.000000 -0.120892
16405.000000 2.091868 325.000000 316.000000 230.000000 -0.162182 261.000000 0.212741 293.000000 -0.219042 299.000000 -0.193322 13.000000 0.071054 112.000000 0.469125 156.000000 -0.190644
17913.000000 3.120770 190.000000 476.000000 402.000000 -0.039667 428.000000 0.298592 452.000000 -0.174404 459.000000 -0.114137 33.000000 -0.472820 182.000000 0.191097 189.000000 0.148119
19403.000000 2.222713 480.000000 215.000000 150.000000 -0.173759 194.000000 0.134407 178.000000 0.052636 185.000000 0.054344 16.000000 -0.005577 120.000000 0.200425 167.000000 0.005206
20437.000000 2.165204 332.000000 192.000000 55.000000 -0.447398 116.000000 0.262712 148.000000 -0.166487 162.000000 -0.034246 15.000000 -0.008198 108.000000 0.293605 148.000000 -0.166487
21102.000000 2.102855 473.000000 196.000000 70.000000 -0.439795 118.000000 0.174813 139.000000 -0.058619 179.000000 0.424202 13.000000 0.075096 116.000000 0.211804 139.000000 -0.058619
22411.000000 2.165986 440.000000 333.000000 260.000000 -0.143606 279.000000 0.002367 302.000000 -0.190925 316.000000 -0.138621 21.000000 -0.113888 115.000000 0.404278 155.000000 -0.076224
22744.000000 2.123574 333.000000 319.000000 240.000000 -0.177573 263.000000 0.014387 280.000000 -0.181004 300.000000 -0.134575 18.000000 -0.128652 107.000000 0.452650 150.000000 -0.143154
24054.000000 2.140833 331.000000 352.000000 263.000000 -0.120957 293.000000 0.151052 310.000000 -0.129307 335.000000 -0.129653 15.000000 -0.009432 109.000000 0.488168 151.000000 -0.159293
24406.000000 2.082259 352.000000 341.000000 253.000000 -0.152788 283.000000 0.275551 300.000000 -0.180123 323.000000 -0.211753 16.000000 -0.072679 113.000000 0.503964 150.000000 -0.139527
24747.000000 2.096633 341.000000 324.000000 244.000000 -0.140530 263.000000 0.211993 284.000000 -0.207397 306.000000 -0.213401 16.000000 -0.084511 109.000000 0.518201 153.000000 -0.163539
25756.000000 2.088887 490.000000 317.000000 244.000000 -0.145936 261.000000 0.223672 293.000000 -0.187289 298.000000 -0.169249 14.000000 0.063887 118.000000 0.402305 154.000000 -0.089281
26402.000000 2.124876 329.000000 328.000000 242.000000 -0.127979 270.000000 0.249136 289.000000 -0.166382 310.000000 -0.198370 19.000000 -0.197743 110.000000 0.494546 148.000000 -0.108635
27047.000000 2.026549 317.000000 320.000000 232.000000 -0.140531 262.000000 0.193041 280.000000 -0.193025 303.000000 -0.190046 15.000000 -0.022228 112.000000 0.465924 156.000000 -0.183274
27695.000000 2.025989 328.000000 190.000000 50.000000 -0.454826 114.000000 0.290046 148.000000 -0.129845 162.000000 -0.024766 17.000000 -0.142458 110.000000 0.324200 148.000000 -0.129845
28371.000000 2.067729 486.000000 348.000000 261.000000 -0.154828 291.000000 0.235031 321.000000 -0.201315 329.000000 -0.186489 17.000000 -0.092302 118.000000 0.402729 151.000000 -0.093917
29376.000000 1.970784 320.000000 329.000000 246.000000 -0.128163 271.000000 0.253420 291.000000 -0.172632 312.000000 -0.225611 14.000000 -0.011693 105.000000 0.459858 152.000000 -0.115971
31066.000000 1.992241 489.000000 198.000000 55.000000 -0.429777 120.000000 0.272840 150.000000 -0.088023 172.000000 0.037508 16.000000 -0.098886 117.000000 0.280159 150.000000 -0.088023
32375.000000 1.951052 311.000000 323.000000 238.000000 -0.139015 268.000000 0.204543 286.000000 -0.155568 305.000000 -0.193356 15.000000 -0.052350 115.000000 0.424735 151.000000 -0.148121
33025.000000 1.982415 327.000000 320.000000 231.000000 -0.158617 259.000000 0.225409 294.000000 -0.177822 303.000000 -0.201648 13.000000 0.043608 107.000000 0.457838 144.000000 -0.119262
34001.000000 1.990863 333.000000 328.000000 242.000000 -0.139306 268.000000 0.252525 290.000000 -0.140407 312.000000 -0.190438 6.000000 -0.154560 103.000000 0.473991 138.000000 -0.113888
34329.000000 1.988670 328.000000 328.000000 241.000000 -0.114058 267.000000 0.223151 285.000000 -0.173698 312.000000 -0.159343 14.000000 0.092870 111.000000 0.448074 152.000000 -0.163149
34657.000000 2.033384 328.000000 338.000000 254.000000 -0.146613 278.000000 0.240611 296.000000 -0.116882 320.000000 -0.162319 14.000000 -0.023418 105.000000 0.515748 150.000000 -0.134232
34995.000000 1.999686 338.000000 344.000000 242.000000 -0.160186 283.000000 0.265850 303.000000 -0.174216 326.000000 -0.198196 7.000000 -0.139453 112.000000 0.474620 156.000000 -0.153965
37356.000000 2.011770 327.000000 326.000000 238.000000 -0.161743 265.000000 0.200171 287.000000 -0.140910 307.000000 -0.212869 17.000000 -0.134063 109.000000 0.466141 150.000000 -0.165799
38353.000000 2.010062 325.000000 323.000000 229.000000 -0.141753 263.000000 0.208547 282.000000 -0.179982 306.000000 -0.222381 15.000000 -0.041788 109.000000 0.455452 145.000000 -0.116768
39015.000000 2.061145 339.000000 326.000000 229.000000 -0.135011 267.000000 0.218782 298.000000 -0.160140 306.000000 -0.183431 17.000000 -0.151267 107.000000 0.453557 147.000000 -0.147194
39658.000000 2.022068 317.000000 326.000000 239.000000 -0.150944 267.000000 0.246439 299.000000 -0.210395 308.000000 -0.182901 15.000000 0.046927 112.000000 0.464306 148.000000 -0.130505
39984.000000 1.998574 326.000000 316.000000 228.000000 -0.108292 256.000000 0.233168 277.000000 -0.131614 299.000000 -0.159530 16.000000 -0.043980 112.000000 0.458812 142.000000 -0.106616
40300.000000 1.993993 316.000000 327.000000 244.000000 -0.158667 269.000000 0.191835 302.000000 -0.192383 310.000000 -0.154105 13.000000 0.055687 107.000000 0.411487 148.000000 -0.148054
40627.000000 2.010411 327.000000 325.000000 238.000000 -0.124799 268.000000 0.222225 292.000000 -0.155953 306.000000 -0.145310 15.000000 -0.035465 112.000000 0.424926 149.000000 -0.120752
40952.000000 2.003625 325.000000 327.000000 240.000000 -0.149872 269.000000 0.215800 291.000000 -0.195078 304.000000 -0.192399 15.000000 -0.041970 113.000000 0.429389 152.000000 -0.101125
41608.000000 2.045107 329.000000 328.000000 244.000000 -0.144636 273.000000 0.240832 302.000000 -0.183918 310.000000 -0.155469 15.000000 -0.056948 109.000000 0.435107 148.000000 -0.136504
41936.000000 2.003591 328.000000 192.000000 60.000000 -0.418416 116.000000 0.301710 136.000000 -0.124058 175.000000 0.346176 17.000000 -0.131112 114.000000 0.313795 136.000000 -0.124058
42927.000000 2.024373 331.000000 323.000000 238.000000 -0.144906 266.000000 0.243575 295.000000 -0.192290 302.000000 -0.161005 16.000000 -0.100001 110.000000 0.406838 150.000000 -0.132869
43562.000000 1.980659 312.000000 319.000000 235.000000 -0.146362 263.000000 0.227807 287.000000 -0.190219 304.000000 -0.175468 15.000000 -0.034105 110.000000 0.433166 153.000000 -0.123086
43881.000000 1.946898 319.000000 326.000000 239.000000 -0.166348 269.000000 0.203558 291.000000 -0.199547 306.000000 -0.167651 15.000000 -0.070076 111.000000 0.442836 152.000000 -0.092897
45492.000000 2.021914 462.000000 341.000000 257.000000 -0.111831 281.000000 0.241774 300.000000 -0.179278 325.000000 -0.215551 18.000000 -0.131783 120.000000 0.367804 152.000000 -0.051584
46481.000000 1.995222 320.000000 334.000000 243.000000 -0.135568 274.000000 0.246063 295.000000 -0.171755 318.000000 -0.168555 14.000000 0.030048 109.000000 0.459061 150.000000 -0.160469
48463.000000 2.000879 471.000000 239.000000 185.000000 -0.014939 218.000000 0.363447 209.000000 -0.042776 216.000000 0.131910 15.000000 0.021929 121.000000 0.169106 150.000000 -0.226459
49490.000000 1.927131 341.000000 317.000000 235.000000 -0.130030 260.000000 0.210660 279.000000 -0.151221 301.000000 -0.179716 15.000000 -0.041269 113.000000 0.387239 148.000000 -0.127272
49807.000000 1.974156 317.000000 197.000000 60.000000 -0.410766 119.000000 0.250518 143.000000 -0.107664 190.000000 2.074685 14.000000 0.037700 111.000000 0.269233 143.000000 -0.107664
50468.000000 2.056110 464.000000 327.000000 248.000000 -0.172842 273.000000 0.169999 295.000000 -0.218023 309.000000 -0.182458 14.000000 0.060812 119.000000 0.342401 151.000000 -0.081364
50795.000000 1.990489 327.000000 192.000000 53.000000 -0.422116 116.000000 0.235361 139.000000 -0.147899 168.000000 0.039923 15.000000 -0.014402 114.000000 0.239138 139.000000 -0.147899
51788.000000 1.995516 327.000000 327.000000 233.000000 -0.155707 269.000000 0.230093 289.000000 -0.136913 310.000000 -0.176143 16.000000 -0.082508 108.000000 0.419278 148.000000 -0.140471
52115.000000 1.963542 327.000000 320.000000 235.000000 -0.134293 262.000000 0.233905 281.000000 -0.195077 305.000000 -0.184748 15.000000 -0.015767 111.000000 0.417017 148.000000 -0.147651
53752.000000 1.909465 344.000000 328.000000 251.000000 -0.138285 272.000000 0.265663 290.000000 -0.206204 308.000000 -0.177868 15.000000 -0.049248 113.000000 0.436565 153.000000 -0.128684
55047.000000 2.057946 320.000000 320.000000 236.000000 -0.145202 264.000000 0.212994 282.000000 -0.176710 303.000000 -0.199749 14.000000 -0.003468 113.000000 0.423416 152.000000 -0.114340
55698.000000 2.049405 331.000000 322.000000 219.000000 -0.136819 262.000000 0.216395 288.000000 -0.163839 305.000000 -0.124436 14.000000 0.045081 110.000000 0.403686 145.000000 -0.162335
56337.000000 2.091929 317.000000 335.000000 249.000000 -0.160533 276.000000 0.247428 297.000000 -0.188026 319.000000 -0.179545 15.000000 -0.011723 112.000000 0.477982 152.000000 -0.154670
56672.000000 2.048495 335.000000 315.000000 232.000000 -0.124903 256.000000 0.247824 275.000000 -0.194481 298.000000 -0.199983 15.000000 -0.084436 109.000000 0.441266 142.000000 -0.145061
58624.000000 2.057165 467.000000 319.000000 234.000000 -0.171315 261.000000 0.192950 280.000000 -0.222789 300.000000 -0.183010 15.000000 0.014736 117.000000 0.327635 155.000000 -0.051064
58943.000000 2.094559 319.000000 197.000000 57.000000 -0.439139 119.000000 0.122761 143.000000 -0.168399 176.000000 0.110816 17.000000 -0.145410 111.000000 0.238498 143.000000 -0.168399
60257.000000 2.063901 466.000000 313.000000 218.000000 -0.141067 260.000000 0.190798 289.000000 -0.198886 296.000000 -0.169090 17.000000 -0.128718 117.000000 0.359078 155.000000 -0.104592
60570.000000 2.025425 313.000000 186.000000 49.000000 -0.410046 112.000000 0.178796 137.000000 -0.144699 160.000000 -0.025815 15.000000 -0.065360 107.000000 0.249798 137.000000 -0.144699
61208.000000 2.018479 452.000000 309.000000 234.000000 -0.132114 259.000000 0.172682 283.000000 -0.169983 285.000000 -0.187805 16.000000 -0.106521 114.000000 0.350329 153.000000 -0.105910
61517.000000 2.015815 309.000000 328.000000 227.000000 -0.134621 271.000000 0.214547 302.000000 -0.209201 308.000000 -0.186379 17.000000 -0.154845 106.000000 0.418871 148.000000 -0.174119
61845.000000 1.990989 328.000000 329.000000 250.000000 -0.111894 270.000000 0.245128 301.000000 -0.188809 309.000000 -0.153245 20.000000 -0.151283 112.000000 0.469970 145.000000 -0.143920
62492.000000 2.004342 318.000000 198.000000 60.000000 -0.397365 119.000000 0.121709 138.000000 -0.205064 171.000000 -0.049453 17.000000 -0.150673 108.000000 0.286427 138.000000 -0.205064
64213.000000 1.992669 496.000000 356.000000 272.000000 -0.144353 297.000000 0.229000 328.000000 -0.184326 334.000000 -0.219090 14.000000 0.049503 116.000000 0.329264 152.000000 -0.083306
65249.000000 2.032055 487.000000 337.000000 256.000000 -0.146458 282.000000 0.196176 316.000000 -0.198494 323.000000 -0.173025 15.000000 0.052212 121.000000 0.355046 152.000000 -0.085896
65586.000000 1.930110 337.000000 191.000000 53.000000 -0.418043 115.000000 0.216753 142.000000 -0.104516 174.000000 0.159309 14.000000 0.056989 110.000000 0.259700 142.000000 -0.104516
71598.000000 1.991238 473.000000 204.000000 59.000000 -0.420908 124.000000 0.207589 143.000000 -0.073179 177.000000 0.039094 19.000000 -0.166566 121.000000 0.209579 143.000000 -0.073179
72267.000000 2.058103 465.000000 339.000000 234.000000 -0.136066 282.000000 0.218197 305.000000 -0.182054 321.000000 -0.159765 15.000000 -0.016240 116.000000 0.394594 151.000000 -0.044468
73250.000000 2.062775 321.000000 345.000000 255.000000 -0.156477 285.000000 0.272442 305.000000 -0.179076 326.000000 -0.187539 16.000000 -0.070358 110.000000 0.439689 152.000000 -0.135408
73923.000000 2.039249 328.000000 188.000000 50.000000 -0.438353 113.000000 0.326663 152.000000 -0.097788 153.000000 -0.095735 14.000000 0.037838 111.000000 0.325519 152.000000 -0.097788
74595.000000 2.018419 484.000000 205.000000 64.000000 -0.437129 123.000000 0.105347 146.000000 -0.138823 181.000000 0.039703 15.000000 -0.039105 116.000000 0.201695 146.000000 -0.138823
75281.000000 2.006789 481.000000 333.000000 251.000000 -0.154861 283.000000 0.203619 295.000000 -0.174231 314.000000 -0.193353 16.000000 -0.091126 117.000000 0.383326 150.000000 -0.050735
77287.000000 2.053354 478.000000 199.000000 56.000000 -0.425866 120.000000 0.157162 157.000000 -0.043716 172.000000 0.059449 17.000000 -0.105519 116.000000 0.233808 157.000000 -0.043716
79275.000000 2.042382 333.000000 316.000000 234.000000 -0.134200 263.000000 0.207241 290.000000 -0.178685 298.000000 -0.173543 16.000000 -0.073983 109.000000 0.458713 156.000000 -0.137271
79924.000000 2.082835 333.000000 339.000000 256.000000 -0.128759 286.000000 0.243656 299.000000 -0.149182 319.000000 -0.180360 15.000000 -0.072479 109.000000 0.468976 150.000000 -0.134953
80263.000000 2.067084 339.000000 339.000000 249.000000 -0.122838 276.000000 0.250971 294.000000 -0.157131 322.000000 -0.174324 13.000000 0.073603 113.000000 0.443591 149.000000 -0.138666
81286.000000 2.089922 345.000000 349.000000 264.000000 -0.155043 289.000000 0.245741 323.000000 -0.213758 331.000000 -0.145011 16.000000 -0.135252 114.000000 0.456265 151.000000 -0.126569
82298.000000 2.092319 473.000000 343.000000 268.000000 -0.129673 288.000000 0.222584 318.000000 -0.204891 326.000000 -0.197134 15.000000 0.041520 120.000000 0.411552 152.000000 -0.093713
82641.000000 2.045234 343.000000 320.000000 236.000000 -0.118729 261.000000 0.227557 281.000000 -0.176095 302.000000 -0.199293 18.000000 -0.189593 104.000000 0.406096 147.000000 -0.131047
84305.000000 2.148700 479.000000 330.000000 248.000000 -0.170831 277.000000 0.218558 289.000000 -0.145220 313.000000 -0.160784 15.000000 0.053246 118.000000 0.364200 153.000000 -0.087132
84939.000000 2.082871 304.000000 198.000000 67.000000 -0.417428 120.000000 0.269549 146.000000 -0.122724 168.000000 -0.002363 15.000000 -0.037129 117.000000 0.293170 146.000000 -0.122724
85137.000000 2.974909 198.000000 466.000000 376.000000 -0.090487 416.000000 0.281568 447.000000 -0.163966 451.000000 -0.176552 25.000000 -0.185676 20.000000 1.257946 58.000000 -0.609970
85603.000000 2.150374 466.000000 198.000000 57.000000 -0.464294 119.000000 0.198824 141.000000 -0.095469 160.000000 0.007805 14.000000 0.051708 117.000000 0.177226 141.000000 -0.095469
86272.000000 2.126100 471.000000 316.000000 238.000000 -0.168962 264.000000 0.173828 293.000000 -0.202161 299.000000 -0.204514 16.000000 -0.063522 117.000000 0.341066 151.000000 -0.071864
87572.000000 2.113920 318.000000 199.000000 62.000000 -0.433903 120.000000 0.214560 140.000000 -0.167288 174.000000 -0.022366 15.000000 -0.032115 118.000000 0.239606 140.000000 -0.167288
88238.000000 2.139750 467.000000 336.000000 248.000000 -0.130677 278.000000 0.201612 296.000000 -0.166270 319.000000 -0.163149 15.000000 -0.049076 119.000000 0.315395 148.000000 -0.074170
91606.000000 2.123795 321.000000 313.000000 235.000000 -0.148416 256.000000 0.203479 275.000000 -0.192492 296.000000 -0.196299 16.000000 -0.103196 110.000000 0.406522 140.000000 -0.129170
92919.000000 2.154610 468.000000 344.000000 267.000000 -0.156551 289.000000 0.230408 321.000000 -0.167555 328.000000 -0.179750 17.000000 -0.095155 122.000000 0.363135 151.000000 -0.052413
93263.000000 2.102070 344.000000 329.000000 239.000000 -0.128011 273.000000 0.247272 298.000000 -0.185172 312.000000 -0.156660 14.000000 0.047022 112.000000 0.420474 152.000000 -0.133809
93592.000000 2.050489 329.000000 327.000000 241.000000 -0.124859 269.000000 0.213966 300.000000 -0.198338 310.000000 -0.179325 16.000000 -0.092222 114.000000 0.416948 147.000000 -0.151799
93919.000000 2.061351 327.000000 322.000000 234.000000 -0.125673 265.000000 0.222867 290.000000 -0.175268 305.000000 -0.164062 16.000000 -0.098538 112.000000 0.415161 145.000000 -0.133649
95566.000000 2.066242 320.000000 315.000000 237.000000 -0.158151 258.000000 0.196849 288.000000 -0.188543 294.000000 -0.172304 16.000000 -0.080874 113.000000 0.415330 156.000000 -0.168198
95881.000000 2.151098 315.000000 325.000000 247.000000 -0.128562 268.000000 0.239995 297.000000 -0.172810 305.000000 -0.172339 15.000000 0.013151 108.000000 0.421360 149.000000 -0.162526
96878.000000 2.102571 476.000000 336.000000 253.000000 -0.128730 281.000000 0.214075 299.000000 -0.148528 320.000000 -0.178527 18.000000 -0.153586 119.000000 0.366771 152.000000 -0.057617
97214.000000 2.106129 336.000000 338.000000 252.000000 -0.127730 281.000000 0.227977 307.000000 -0.217961 321.000000 -0.185736 13.000000 0.115080 111.000000 0.404157 148.000000 -0.130390
98533.000000 2.051566 468.000000 192.000000 56.000000 -0.480203 116.000000 0.213872 150.000000 -0.090047 164.000000 0.033025 13.000000 0.072853 112.000000 0.245549 150.000000 -0.090047
99531.000000 2.040047 329.000000 316.000000 235.000000 -0.149409 264.000000 0.173131 290.000000 -0.176521 298.000000 -0.181128 14.000000 0.049045 108.000000 0.404580 143.000000 -0.127180
100037.000000 2.888402 190.000000 475.000000 400.000000 -0.087808 423.000000 0.273259 452.000000 -0.133718 457.000000 -0.147731 13.000000 2.562493 20.000000 1.622166 65.000000 -0.688948
101812.000000 2.063528 468.000000 199.000000 60.000000 -0.458680 120.000000 0.260097 152.000000 -0.109261 184.000000 0.711492 15.000000 0.042808 118.000000 0.252275 152.000000 -0.109261
102471.000000 2.084926 460.000000 212.000000 142.000000 -0.179622 191.000000 0.147743 184.000000 0.051567 191.000000 0.147743 15.000000 0.011385 119.000000 0.152352 142.000000 -0.179622
103150.000000 2.078218 467.000000 318.000000 241.000000 -0.163231 264.000000 0.172851 296.000000 -0.170690 302.000000 -0.179403 14.000000 0.084111 117.000000 0.364655 154.000000 -0.067635
103468.000000 2.069876 318.000000 194.000000 52.000000 -0.410344 117.000000 0.144686 133.000000 -0.137524 165.000000 -0.027697 16.000000 -0.098259 109.000000 0.266252 133.000000 -0.137524
104112.000000 2.070518 450.000000 315.000000 233.000000 -0.125080 259.000000 0.199715 278.000000 -0.244280 296.000000 -0.179890 14.000000 0.044826 117.000000 0.320097 151.000000 -0.068306
105068.000000 2.176568 445.000000 315.000000 244.000000 -0.178507 261.000000 -0.019149 277.000000 -0.182442 295.000000 -0.169199 15.000000 0.063590 119.000000 0.331691 157.000000 -0.096149
105383.000000 2.070785 315.000000 212.000000 154.000000 -0.183713 191.000000 0.058841 176.000000 0.026632 183.000000 0.008152 15.000000 0.025957 116.000000 0.222933 138.000000 -0.186894
105595.000000 2.881881 212.000000 438.000000 355.000000 -0.085403 388.000000 0.083374 405.000000 -0.142395 416.000000 -0.138870 17.000000 1.531973 20.000000 0.408713 88.000000 -1.344589
106033.000000 2.100014 438.000000 189.000000 50.000000 -0.390316 114.000000 0.228607 134.000000 -0.120735 165.000000 0.045284 16.000000 -0.064297 112.000000 0.226365 134.000000 -0.120735
106700.000000 2.062914 478.000000 195.000000 60.000000 -0.376083 118.000000 0.239264 145.000000 -0.083714 172.000000 0.030771 18.000000 -0.140583 116.000000 0.213104 145.000000 -0.083714
107363.000000 2.093653 468.000000 211.000000 144.000000 -0.139091 177.000000 0.106801 179.000000 0.098949 185.000000 0.044718 16.000000 -0.009670 117.000000 0.207585 144.000000 -0.139091
108554.000000 2.884077 191.000000 462.000000 371.000000 -0.107666 409.000000 0.272522 437.000000 -0.140565 446.000000 -0.147995 20.000000 1.275878 20.000000 1.275878 48.000000 -0.520013
109016.000000 2.076659 462.000000 325.000000 243.000000 -0.144150 270.000000 0.194376 301.000000 -0.193509 306.000000 -0.211111 16.000000 -0.059361 120.000000 0.349184 152.000000 -0.072885
109997.000000 2.073995 465.000000 321.000000 223.000000 -0.126070 264.000000 0.183052 295.000000 -0.203609 303.000000 -0.195394 9.000000 -0.274063 115.000000 0.337369 149.000000 -0.054402
112937.000000 2.031240 464.000000 192.000000 60.000000 -0.447555 116.000000 0.202197 152.000000 -0.043541 166.000000 0.052680 15.000000 -0.000124 114.000000 0.184799 152.000000 -0.043541
114210.000000 2.090719 301.000000 315.000000 241.000000 -0.165420 260.000000 0.046525 285.000000 -0.158384 294.000000 -0.151395 16.000000 -0.067462 104.000000 0.450267 157.000000 -0.148601
114525.000000 2.048544 315.000000 304.000000 227.000000 -0.150358 251.000000 0.062919 277.000000 -0.187020 285.000000 -0.162961 17.000000 -0.104309 111.000000 0.446285 152.000000 -0.220238
114829.000000 2.085594 304.000000 320.000000 236.000000 -0.163859 263.000000 0.141704 285.000000 -0.178828 300.000000 -0.141178 18.000000 -0.127353 108.000000 0.447505 144.000000 -0.140412
116458.000000 2.072509 480.000000 198.000000 58.000000 -0.492636 119.000000 0.215311 142.000000 -0.100380 171.000000 0.066454 18.000000 -0.153669 113.000000 0.248665 142.000000 -0.100380
117751.000000 2.091129 309.000000 196.000000 58.000000 -0.423323 118.000000 0.205641 146.000000 -0.195362 161.000000 -0.065001 16.000000 -0.081972 114.000000 0.265265 146.000000 -0.195362
118412.000000 2.084590 465.000000 318.000000 236.000000 -0.133780 260.000000 0.191046 280.000000 -0.208309 299.000000 -0.201426 15.000000 -0.023153 114.000000 0.368811 153.000000 -0.045094
119706.000000 2.130614 314.000000 195.000000 56.000000 -0.436331 117.000000 0.243230 140.000000 -0.152318 169.000000 -0.009934 15.000000 0.037793 113.000000 0.234046 140.000000 -0.152318
120674.000000 2.099313 319.000000 195.000000 57.000000 -0.443290 117.000000 0.194720 140.000000 -0.133462 160.000000 -0.029935 15.000000 0.000691 111.000000 0.277682 140.000000 -0.133462
121310.000000 2.125580 441.000000 328.000000 249.000000 -0.160359 271.000000 0.187289 302.000000 -0.198589 308.000000 -0.216677 15.000000 -0.005532 121.000000 0.352116 154.000000 -0.094890
123876.000000 2.040202 318.000000 315.000000 229.000000 -0.172415 256.000000 0.194654 288.000000 -0.195770 295.000000 -0.170048 14.000000 0.002960 114.000000 0.408418 157.000000 -0.181379
128309.000000 2.097725 317.000000 336.000000 211.000000 -0.103572 278.000000 0.251884 309.000000 -0.182522 318.000000 -0.167492 16.000000 -0.066240 111.000000 0.464622 150.000000 -0.130630
129275.000000 2.128543 317.000000 333.000000 244.000000 -0.137520 277.000000 0.277009 309.000000 -0.194279 315.000000 -0.173151 17.000000 -0.134496 112.000000 0.470411 148.000000 -0.136864
129608.000000 2.071629 333.000000 313.000000 213.000000 -0.158777 254.000000 0.234544 273.000000 -0.183778 293.000000 -0.167570 18.000000 -0.174612 109.000000 0.411204 143.000000 -0.183464
129921.000000 2.092258 313.000000 187.000000 79.000000 -0.229515 113.000000 0.309218 143.000000 -0.129230 154.000000 -0.098854 15.000000 -0.011503 111.000000 0.349483 143.000000 -0.129230
131232.000000 2.128085 468.000000 326.000000 248.000000 -0.166895 271.000000 0.194954 303.000000 -0.177100 309.000000 -0.189356 16.000000 -0.094092 116.000000 0.377649 148.000000 -0.067723
131558.000000 2.113184 326.000000 307.000000 223.000000 -0.158840 252.000000 0.221475 284.000000 -0.212695 290.000000 -0.186630 13.000000 0.107917 109.000000 0.377915 151.000000 -0.234200
131865.000000 2.140347 307.000000 208.000000 151.000000 -0.167805 187.000000 0.327994 170.000000 -0.017210 177.000000 -0.009796 15.000000 0.005331 112.000000 0.268228 143.000000 -0.219702
132529.000000 2.156678 456.000000 194.000000 55.000000 -0.500812 121.000000 0.234641 142.000000 -0.045469 163.000000 0.024938 16.000000 -0.020405 114.000000 0.155519 142.000000 -0.045469
133185.000000 2.111351 462.000000 315.000000 238.000000 -0.155063 260.000000 0.179623 292.000000 -0.208933 298.000000 -0.220061 14.000000 0.029690 115.000000 0.343698 146.000000 -0.054547
136068.000000 2.172949 453.000000 319.000000 239.000000 -0.185549 268.000000 0.188745 294.000000 -0.200236 299.000000 -0.222729 19.000000 -0.151676 113.000000 0.359436 150.000000 -0.050797
136387.000000 2.129264 319.000000 198.000000 56.000000 -0.419703 119.000000 0.161064 147.000000 -0.184533 168.000000 0.001753 16.000000 -0.131428 113.000000 0.249403 147.000000 -0.184533
138974.000000 2.093135 451.000000 320.000000 238.000000 -0.138639 262.000000 0.222303 297.000000 -0.216019 302.000000 -0.178198 18.000000 -0.118825 115.000000 0.345767 151.000000 -0.071239
139294.000000 2.055908 320.000000 315.000000 231.000000 -0.158416 260.000000 0.213324 289.000000 -0.213228 298.000000 -0.178683 16.000000 -0.097009 105.000000 0.403868 149.000000 -0.180456
139609.000000 2.099010 315.000000 322.000000 243.000000 -0.126878 269.000000 0.258325 295.000000 -0.170061 301.000000 -0.205782 16.000000 -0.089200 110.000000 0.435940 144.000000 -0.171300
140264.000000 2.100611 333.000000 323.000000 229.000000 -0.124672 264.000000 0.236802 299.000000 -0.191363 301.000000 -0.191723 18.000000 -0.174107 107.000000 0.465138 149.000000 -0.173167
140587.000000 2.128970 323.000000 328.000000 247.000000 -0.160725 270.000000 0.236157 286.000000 -0.155109 311.000000 -0.166331 19.000000 -0.222910 109.000000 0.494503 150.000000 -0.158323
140915.000000 2.001349 328.000000 325.000000 242.000000 -0.146707 269.000000 0.238749 286.000000 -0.129655 310.000000 -0.135754 16.000000 -0.125172 113.000000 0.469970 151.000000 -0.141897
141240.000000 2.052821 325.000000 323.000000 241.000000 -0.150174 264.000000 0.210421 284.000000 -0.167339 309.000000 -0.177039 12.000000 0.085439 107.000000 0.436414 150.000000 -0.156458
141563.000000 2.081725 323.000000 336.000000 254.000000 -0.127367 277.000000 0.245814 306.000000 -0.185280 322.000000 -0.160689 16.000000 -0.128729 105.000000 0.486146 149.000000 -0.147678
142095.000000 2.830002 196.000000 469.000000 398.000000 -0.057305 421.000000 0.238526 443.000000 -0.167601 448.000000 -0.151018 40.000000 -0.452777 20.000000 0.894827 76.000000 -0.685455
142564.000000 2.069936 469.000000 347.000000 254.000000 -0.150107 288.000000 0.236177 311.000000 -0.171583 330.000000 -0.154202 22.000000 -0.167086 113.000000 0.411443 148.000000 -0.089323
143536.000000 2.040566 305.000000 329.000000 248.000000 -0.137461 272.000000 0.260423 299.000000 -0.186630 311.000000 -0.178949 17.000000 -0.143698 110.000000 0.454404 151.000000 -0.120201
144176.000000 2.055941 311.000000 319.000000 236.000000 -0.155834 266.000000 0.202804 293.000000 -0.200580 301.000000 -0.196911 14.000000 0.054889 109.000000 0.447553 151.000000 -0.158514
144495.000000 2.042636 319.000000 329.000000 241.000000 -0.125983 273.000000 0.272401 293.000000 -0.142365 312.000000 -0.170908 16.000000 -0.097978 113.000000 0.453255 152.000000 -0.138890
145458.000000 2.078702 322.000000 333.000000 249.000000 -0.150754 273.000000 0.235765 307.000000 -0.181959 312.000000 -0.182036 15.000000 0.007356 113.000000 0.463420 155.000000 -0.135110
145791.000000 2.044689 333.000000 318.000000 235.000000 -0.127317 259.000000 0.220568 276.000000 -0.171393 300.000000 -0.186331 16.000000 -0.077442 107.000000 0.424622 151.000000 -0.123087
146424.000000 2.104704 315.000000 330.000000 245.000000 -0.146266 275.000000 0.253120 303.000000 -0.179216 312.000000 -0.164106 16.000000 -0.106846 110.000000 0.476815 146.000000 -0.124125
147402.000000 2.060313 326.000000 323.000000 232.000000 -0.123042 266.000000 0.237051 300.000000 -0.184140 307.000000 -0.179265 14.000000 -0.010755 104.000000 0.465203 139.000000 -0.100092
148366.000000 2.105737 324.000000 322.000000 237.000000 -0.142660 264.000000 0.241005 298.000000 -0.169859 305.000000 -0.145329 16.000000 -0.132492 108.000000 0.435048 150.000000 -0.116158
148997.000000 2.039689 309.000000 320.000000 233.000000 -0.124468 262.000000 0.214357 294.000000 -0.188809 303.000000 -0.203510 9.000000 -0.350687 115.000000 0.412164 149.000000 -0.135959
149317.000000 2.123840 320.000000 328.000000 246.000000 -0.115328 269.000000 0.251584 305.000000 -0.186067 312.000000 -0.136789 17.000000 -0.153263 107.000000 0.428572 141.000000 -0.124247
149645.000000 2.059685 328.000000 322.000000 225.000000 -0.143698 261.000000 0.235797 281.000000 -0.166630 304.000000 -0.193463 15.000000 -0.069125 115.000000 0.419704 148.000000 -0.141458
150604.000000 2.085925 324.000000 328.000000 231.000000 -0.159525 267.000000 0.226256 287.000000 -0.136364 312.000000 -0.159202 15.000000 -0.035077 110.000000 0.423335 146.000000 -0.122773
150932.000000 2.079373 328.000000 303.000000 218.000000 -0.145092 245.000000 0.214311 274.000000 -0.206254 283.000000 -0.162258 14.000000 0.041550 110.000000 0.403090 152.000000 -0.173840
152195.000000 2.163196 455.000000 338.000000 254.000000 -0.151320 280.000000 0.248586 300.000000 -0.186429 322.000000 -0.207413 15.000000 -0.006146 113.000000 0.374186 150.000000 -0.046898
152858.000000 2.085802 325.000000 308.000000 222.000000 -0.132605 251.000000 0.209967 269.000000 -0.192728 293.000000 -0.172490 14.000000 0.018953 108.000000 0.413982 141.000000 -0.153967
153166.000000 2.112574 308.000000 325.000000 238.000000 -0.185818 271.000000 0.214590 283.000000 -0.136695 307.000000 -0.173653 14.000000 0.031147 109.000000 0.430002 149.000000 -0.140786
153491.000000 2.100877 325.000000 200.000000 62.000000 -0.417459 120.000000 0.212228 160.000000 -0.081614 174.000000 0.045362 14.000000 0.075455 115.000000 0.283780 160.000000 -0.081614
155124.000000 2.176064 321.000000 333.000000 249.000000 -0.135373 273.000000 0.252980 309.000000 -0.198495 315.000000 -0.203699 17.000000 -0.107149 113.000000 0.448038 150.000000 -0.132946
155768.000000 2.125015 311.000000 332.000000 243.000000 -0.172161 271.000000 0.244110 293.000000 -0.195562 313.000000 -0.192867 15.000000 -0.045472 108.000000 0.452803 143.000000 -0.132101
156760.000000 2.119046 320.000000 187.000000 46.000000 -0.440768 113.000000 0.184374 146.000000 -0.088196 158.000000 0.006632 16.000000 -0.083572 110.000000 0.254327 146.000000 -0.088196
157424.000000 2.075813 477.000000 327.000000 245.000000 -0.152667 268.000000 0.207835 301.000000 -0.174860 308.000000 -0.188700 15.000000 0.002115 118.000000 0.365474 150.000000 -0.061614
157751.000000 2.081458 327.000000 200.000000 62.000000 -0.418133 120.000000 0.108949 160.000000 -0.086036 172.000000 0.000719 15.000000 -0.060454 115.000000 0.205908 160.000000 -0.086036
158425.000000 2.107647 474.000000 324.000000 241.000000 -0.181898 267.000000 0.223573 289.000000 -0.214969 304.000000 -0.192679 17.000000 -0.105095 116.000000 0.326553 150.000000 -0.032524
160393.000000 2.157354 456.000000 323.000000 237.000000 -0.144526 272.000000 0.179173 299.000000 -0.188354 306.000000 -0.197321 14.000000 0.091226 117.000000 0.287948 148.000000 -0.081093
162334.000000 2.076519 317.000000 305.000000 231.000000 -0.155799 249.000000 0.182680 277.000000 -0.214231 283.000000 -0.244638 15.000000 -0.036696 110.000000 0.405093 152.000000 -0.223478
163305.000000 2.133399 476.000000 320.000000 236.000000 -0.166143 262.000000 0.191928 293.000000 -0.198356 302.000000 -0.183451 15.000000 -0.017966 114.000000 0.341992 148.000000 -0.057474
163950.000000 2.129390 325.000000 341.000000 253.000000 -0.155404 284.000000 0.254658 304.000000 -0.157568 327.000000 -0.180907 19.000000 -0.161098 112.000000 0.463431 154.000000 -0.147899
164291.000000 2.137949 341.000000 320.000000 236.000000 -0.196238 265.000000 0.209765 293.000000 -0.216629 300.000000 -0.147710 13.000000 0.066036 108.000000 0.455657 158.000000 -0.147615
164930.000000 2.104406 319.000000 335.000000 245.000000 -0.169856 277.000000 0.225285 296.000000 -0.163180 317.000000 -0.201096 13.000000 0.084485 114.000000 0.467900 152.000000 -0.118857
165265.000000 2.097506 335.000000 320.000000 241.000000 -0.119762 259.000000 0.207306 293.000000 -0.214406 301.000000 -0.189593 15.000000 -0.014390 108.000000 0.445843 148.000000 -0.155624
166257.000000 2.093292 481.000000 195.000000 56.000000 -0.457144 117.000000 0.255189 142.000000 -0.061819 164.000000 0.048527 17.000000 -0.101583 114.000000 0.270628 142.000000 -0.061819
167267.000000 2.131599 338.000000 311.000000 230.000000 -0.141320 252.000000 0.193290 286.000000 -0.217317 291.000000 -0.196314 17.000000 -0.120096 111.000000 0.396725 154.000000 -0.138262
168914.000000 2.120832 471.000000 198.000000 65.000000 -0.425983 119.000000 0.223638 141.000000 -0.034670 172.000000 0.095925 14.000000 0.110191 117.000000 0.219547 141.000000 -0.034670
170222.000000 2.057304 305.000000 317.000000 237.000000 -0.144686 263.000000 0.200064 280.000000 -0.183934 298.000000 -0.181189 13.000000 0.114843 114.000000 0.361539 153.000000 -0.132131
170539.000000 2.104342 317.000000 322.000000 243.000000 -0.160895 265.000000 0.233147 300.000000 -0.181223 306.000000 -0.168104 14.000000 -0.002116 108.000000 0.384369 148.000000 -0.133060
170861.000000 2.087774 322.000000 192.000000 55.000000 -0.426584 116.000000 0.214452 138.000000 -0.125468 159.000000 -0.039451 13.000000 0.083838 111.000000 0.248481 138.000000 -0.125468
172517.000000 2.138198 316.000000 321.000000 244.000000 -0.156021 265.000000 0.252114 286.000000 -0.156677 307.000000 -0.189451 15.000000 -0.044608 109.000000 0.437617 149.000000 -0.135642
172838.000000 2.061318 321.000000 199.000000 58.000000 -0.433855 120.000000 0.195251 142.000000 -0.163795 179.000000 0.078355 14.000000 0.091834 112.000000 0.282273 142.000000 -0.163795
173853.000000 2.120294 349.000000 328.000000 242.000000 -0.164958 272.000000 0.228193 288.000000 -0.178200 312.000000 -0.186974 15.000000 -0.007982 116.000000 0.398228 146.000000 -0.139010
174181.000000 2.043200 328.000000 315.000000 234.000000 -0.129920 257.000000 0.231380 280.000000 -0.167540 299.000000 -0.195549 16.000000 -0.052299 112.000000 0.367977 151.000000 -0.140158
174496.000000 2.153858 315.000000 338.000000 231.000000 -0.139528 278.000000 0.262603 300.000000 -0.150328 321.000000 -0.186551 17.000000 -0.166547 110.000000 0.453164 150.000000 -0.125129
174834.000000 2.109406 338.000000 318.000000 231.000000 -0.140408 258.000000 0.222839 285.000000 -0.185785 301.000000 -0.170156 16.000000 -0.054888 110.000000 0.412945 146.000000 -0.109123
175468.000000 2.150207 316.000000 338.000000 249.000000 -0.171521 279.000000 0.265078 312.000000 -0.201175 320.000000 -0.160250 17.000000 -0.151641 111.000000 0.447055 151.000000 -0.140268
178727.000000 2.133716 323.000000 326.000000 231.000000 -0.158123 266.000000 0.245953 270.000000 0.198210 307.000000 -0.181362 16.000000 -0.064480 108.000000 0.440202 139.000000 -0.066205
179376.000000 2.138698 323.000000 321.000000 229.000000 -0.138872 264.000000 0.246222 282.000000 -0.159232 304.000000 -0.186632 15.000000 -0.018608 108.000000 0.414687 143.000000 -0.105738
180659.000000 2.124153 323.000000 317.000000 229.000000 -0.151175 257.000000 0.210328 275.000000 -0.135800 296.000000 -0.172852 15.000000 0.039669 107.000000 0.398858 155.000000 -0.110076
181287.000000 2.139701 311.000000 325.000000 235.000000 -0.092026 268.000000 0.234512 285.000000 -0.153542 309.000000 -0.159311 21.000000 -0.181319 111.000000 0.406206 147.000000 -0.136786
181612.000000 2.147179 325.000000 325.000000 237.000000 -0.133732 263.000000 0.221158 289.000000 -0.201974 306.000000 -0.174326 16.000000 -0.076959 111.000000 0.394502 151.000000 -0.096383
182576.000000 2.118748 324.000000 324.000000 233.000000 -0.128685 267.000000 0.216802 281.000000 -0.147898 305.000000 -0.147334 18.000000 -0.168870 110.000000 0.423263 147.000000 -0.111681
183551.000000 2.088574 327.000000 323.000000 234.000000 -0.154278 263.000000 0.225799 297.000000 -0.201976 306.000000 -0.188731 15.000000 -0.044184 110.000000 0.429220 146.000000 -0.117273
184526.000000 2.086476 334.000000 322.000000 228.000000 -0.128213 263.000000 0.196520 297.000000 -0.187727 305.000000 -0.196802 13.000000 0.064548 111.000000 0.426067 150.000000 -0.138402
185171.000000 2.169795 323.000000 334.000000 249.000000 -0.158714 278.000000 0.219091 310.000000 -0.197836 317.000000 -0.183713 15.000000 0.002286 110.000000 0.458419 146.000000 -0.119154
186145.000000 2.200060 322.000000 324.000000 235.000000 -0.150768 265.000000 0.249969 297.000000 -0.181895 305.000000 -0.197569 15.000000 -0.031399 108.000000 0.439437 146.000000 -0.112036
186469.000000 2.127334 324.000000 316.000000 228.000000 -0.127461 255.000000 0.223541 276.000000 -0.145111 299.000000 -0.151507 16.000000 -0.091758 109.000000 0.442130 157.000000 -0.115689
187764.000000 2.108149 326.000000 314.000000 232.000000 -0.120892 253.000000 0.200598 286.000000 -0.208414 296.000000 -0.191800 17.000000 -0.115363 110.000000 0.411221 141.000000 -0.124466
188418.000000 2.146881 340.000000 335.000000 244.000000 -0.181317 273.000000 0.245126 294.000000 -0.148230 316.000000 -0.197070 16.000000 -0.067320 111.000000 0.428028 148.000000 -0.166490
188753.000000 2.136941 335.000000 311.000000 225.000000 -0.139245 250.000000 0.235441 271.000000 -0.169515 294.000000 -0.193951 15.000000 -0.074970 106.000000 0.412302 138.000000 -0.118179
189064.000000 2.185532 311.000000 330.000000 246.000000 -0.172664 271.000000 0.214329 303.000000 -0.203179 311.000000 -0.200829 17.000000 -0.159389 111.000000 0.421344 148.000000 -0.120065
189716.000000 2.124529 322.000000 319.000000 228.000000 -0.145738 257.000000 0.216754 279.000000 -0.206159 302.000000 -0.195265 15.000000 -0.035692 106.000000 0.381159 151.000000 -0.093618
190035.000000 2.148762 319.000000 327.000000 248.000000 -0.139499 271.000000 0.217854 302.000000 -0.162992 310.000000 -0.188619 12.000000 0.063354 109.000000 0.447566 151.000000 -0.123369
190362.000000 2.130093 327.000000 319.000000 234.000000 -0.181096 263.000000 0.256947 294.000000 -0.189529 302.000000 -0.164937 14.000000 0.014841 109.000000 0.435564 147.000000 -0.097380
191333.000000 2.169748 328.000000 317.000000 233.000000 -0.155660 258.000000 0.217961 294.000000 -0.213275 300.000000 -0.163040 16.000000 -0.107666 108.000000 0.431255 145.000000 -0.067009
191650.000000 2.106519 317.000000 318.000000 236.000000 -0.127066 259.000000 0.236022 280.000000 -0.191864 300.000000 -0.193919 13.000000 0.089766 114.000000 0.400153 157.000000 -0.139091
191968.000000 2.191378 318.000000 325.000000 243.000000 -0.124264 267.000000 0.242789 286.000000 -0.169796 306.000000 -0.182868 14.000000 0.051034 110.000000 0.413226 149.000000 -0.113429
192941.000000 2.195204 324.000000 325.000000 240.000000 -0.119196 268.000000 0.251148 288.000000 -0.123197 309.000000 -0.177148 18.000000 -0.182427 109.000000 0.416328 142.000000 -0.119707
193266.000000 2.163260 325.000000 325.000000 234.000000 -0.155091 264.000000 0.272511 288.000000 -0.152286 309.000000 -0.180625 15.000000 -0.070643 110.000000 0.385749 141.000000 -0.118794
193591.000000 2.141536 325.000000 316.000000 235.000000 -0.151758 255.000000 0.225217 290.000000 -0.198887 298.000000 -0.163934 13.000000 0.088024 110.000000 0.374531 137.000000 -0.114966
193907.000000 2.162775 316.000000 312.000000 230.000000 -0.148590 258.000000 0.223699 286.000000 -0.176553 292.000000 -0.193779 15.000000 -0.050783 115.000000 0.398203 154.000000 -0.152414
194219.000000 2.125971 312.000000 311.000000 228.000000 -0.159809 254.000000 0.195584 288.000000 -0.185985 292.000000 -0.184386 15.000000 -0.066255 114.000000 0.397099 153.000000 -0.154201
194530.000000 2.134957 311.000000 310.000000 221.000000 -0.149435 250.000000 0.238935 270.000000 -0.176692 294.000000 -0.171644 16.000000 -0.128524 109.000000 0.377008 139.000000 -0.100410
195154.000000 2.154575 314.000000 322.000000 235.000000 -0.159198 264.000000 0.228341 284.000000 -0.159232 306.000000 -0.200989 15.000000 -0.062949 117.000000 0.417147 149.000000 -0.140310
195783.000000 2.195174 307.000000 327.000000 230.000000 -0.161349 266.000000 0.260768 290.000000 -0.180940 309.000000 -0.191504 13.000000 0.072259 107.000000 0.412069 144.000000 -0.132948
197441.000000 2.088637 326.000000 316.000000 226.000000 -0.147223 256.000000 0.225065 274.000000 -0.187820 298.000000 -0.171523 14.000000 0.025361 110.000000 0.369561 141.000000 -0.142129
198092.000000 2.128295 335.000000 188.000000 52.000000 -0.440591 113.000000 0.264956 140.000000 -0.140328 170.000000 0.177241 14.000000 0.072309 110.000000 0.283577 140.000000 -0.140328
201102.000000 2.116222 342.000000 329.000000 233.000000 -0.132617 270.000000 0.279157 289.000000 -0.168852 311.000000 -0.180136 17.000000 -0.092508 111.000000 0.377262 148.000000 -0.123132
201431.000000 2.130583 329.000000 325.000000 241.000000 -0.112010 267.000000 0.224714 298.000000 -0.209624 306.000000 -0.180892 15.000000 0.041618 119.000000 0.360112 152.000000 -0.158121
202082.000000 2.118212 326.000000 189.000000 52.000000 -0.469015 114.000000 0.189844 138.000000 -0.154373 162.000000 -0.034921 14.000000 0.010954 109.000000 0.260784 138.000000 -0.154373
203087.000000 2.110863 342.000000 327.000000 243.000000 -0.137119 277.000000 0.224122 306.000000 -0.156049 308.000000 -0.165391 16.000000 -0.046130 112.000000 0.396789 151.000000 -0.147837
203414.000000 2.084059 327.000000 309.000000 229.000000 -0.121358 253.000000 0.212466 271.000000 -0.200624 288.000000 -0.182600 15.000000 -0.077414 109.000000 0.385531 153.000000 -0.171847
203723.000000 2.161475 309.000000 327.000000 231.000000 -0.123304 266.000000 0.246634 286.000000 -0.159906 310.000000 -0.174846 14.000000 0.056443 109.000000 0.423239 147.000000 -0.136085
204050.000000 2.116032 327.000000 317.000000 234.000000 -0.166784 258.000000 0.186209 284.000000 -0.217181 300.000000 -0.179218 16.000000 -0.047073 110.000000 0.404184 152.000000 -0.172759
204367.000000 2.119465 317.000000 194.000000 51.000000 -0.449450 117.000000 0.205458 150.000000 -0.121627 176.000000 0.261443 14.000000 0.007052 112.000000 0.247213 150.000000 -0.121627
205038.000000 2.080769 477.000000 323.000000 241.000000 -0.157723 263.000000 0.171602 300.000000 -0.215030 303.000000 -0.224247 15.000000 0.007446 115.000000 0.353133 146.000000 -0.065548
206045.000000 2.093479 493.000000 329.000000 247.000000 -0.156256 273.000000 0.212553 304.000000 -0.217103 309.000000 -0.186429 15.000000 -0.028889 118.000000 0.312419 148.000000 -0.085843
207049.000000 2.084546 486.000000 335.000000 260.000000 -0.119120 279.000000 0.227887 309.000000 -0.190578 317.000000 -0.140125 14.000000 0.089656 120.000000 0.294368 150.000000 -0.076083
208043.000000 2.065441 470.000000 335.000000 252.000000 -0.152881 278.000000 0.222606 313.000000 -0.222429 318.000000 -0.157773 17.000000 -0.105735 115.000000 0.315453 148.000000 -0.042102
208378.000000 2.050188 335.000000 196.000000 56.000000 -0.419873 118.000000 0.212885 144.000000 -0.134653 171.000000 0.023592 13.000000 0.070769 115.000000 0.249391 144.000000 -0.134653
209044.000000 2.081144 470.000000 334.000000 249.000000 -0.163478 275.000000 0.217009 306.000000 -0.202821 314.000000 -0.159326 17.000000 -0.121064 113.000000 0.280091 150.000000 -0.068087
209378.000000 2.099529 334.000000 194.000000 56.000000 -0.460237 117.000000 0.206129 142.000000 -0.156787 167.000000 0.007962 19.000000 -0.131725 113.000000 0.224263 142.000000 -0.156787
210719.000000 2.046222 476.000000 320.000000 231.000000 -0.156099 264.000000 0.195217 280.000000 -0.183074 302.000000 -0.215394 15.000000 -0.030425 116.000000 0.315660 149.000000 -0.028982
211039.000000 2.102257 320.000000 199.000000 57.000000 -0.446457 120.000000 0.156882 148.000000 -0.158386 171.000000 0.021458 17.000000 -0.126365 115.000000 0.190142 148.000000 -0.158386
212027.000000 2.052258 331.000000 199.000000 62.000000 -0.413279 120.000000 0.166005 157.000000 -0.081439 171.000000 0.033937 14.000000 0.063854 117.000000 0.215315 157.000000 -0.081439
213004.000000 2.013226 317.000000 188.000000 57.000000 -0.456333 113.000000 0.226225 133.000000 -0.093477 162.000000 0.015081 10.000000 -0.187730 111.000000 0.208528 133.000000 -0.093477
215270.000000 2.131869 448.000000 310.000000 231.000000 -0.139126 258.000000 0.006911 286.000000 -0.162133 292.000000 -0.160423 14.000000 0.078923 117.000000 0.295092 153.000000 -0.091162
215580.000000 2.070735 310.000000 194.000000 53.000000 -0.361521 117.000000 0.250817 148.000000 -0.133385 163.000000 -0.031817 12.000000 0.120469 114.000000 0.240096 148.000000 -0.133385
216253.000000 2.065564 479.000000 339.000000 256.000000 -0.145922 280.000000 0.174187 306.000000 -0.168056 319.000000 -0.161144 16.000000 -0.005928 117.000000 0.330706 150.000000 -0.091863
216592.000000 2.089450 339.000000 189.000000 51.000000 -0.410109 114.000000 0.240720 136.000000 -0.146286 165.000000 -0.006474 13.000000 0.092429 112.000000 0.245187 136.000000 -0.146286
217260.000000 2.077541 479.000000 333.000000 255.000000 -0.124799 277.000000 0.249652 308.000000 -0.180141 314.000000 -0.169310 15.000000 -0.006957 119.000000 0.337389 150.000000 -0.095246
217593.000000 2.069827 333.000000 330.000000 245.000000 -0.144325 278.000000 0.225345 298.000000 -0.220095 315.000000 -0.187617 16.000000 -0.061989 110.000000 0.406943 149.000000 -0.143983
217923.000000 2.043261 330.000000 322.000000 240.000000 -0.132660 263.000000 0.238468 299.000000 -0.182679 304.000000 -0.207242 16.000000 -0.066191 110.000000 0.409937 145.000000 -0.125800
218889.000000 2.083574 323.000000 331.000000 248.000000 -0.154202 271.000000 0.245485 290.000000 -0.136960 312.000000 -0.161961 14.000000 0.060061 112.000000 0.466728 149.000000 -0.110940
220210.000000 2.067354 474.000000 325.000000 242.000000 -0.166912 267.000000 0.228982 297.000000 -0.238057 306.000000 -0.179060 17.000000 -0.109933 120.000000 0.350280 153.000000 -0.075486
221864.000000 2.039545 475.000000 321.000000 241.000000 -0.153107 267.000000 0.195042 288.000000 -0.201210 304.000000 -0.151034 14.000000 0.075531 123.000000 0.325299 159.000000 -0.068717
222811.000000 2.068248 320.000000 320.000000 233.000000 -0.156721 263.000000 0.216335 282.000000 -0.162727 304.000000 -0.171096 14.000000 0.062057 115.000000 0.406821 157.000000 -0.155263
223771.000000 2.081139 327.000000 189.000000 59.000000 -0.416554 114.000000 0.231175 150.000000 -0.113637 162.000000 -0.003857 17.000000 -0.149487 108.000000 0.275032 150.000000 -0.113637
224430.000000 2.141537 470.000000 350.000000 267.000000 -0.158930 294.000000 0.243859 323.000000 -0.176220 330.000000 -0.200186 16.000000 -0.121190 117.000000 0.389921 152.000000 -0.063213
225405.000000 2.104856 310.000000 336.000000 253.000000 -0.137637 284.000000 0.223099 307.000000 -0.179986 321.000000 -0.165222 14.000000 0.071862 114.000000 0.452538 151.000000 -0.142730
225741.000000 2.091377 336.000000 191.000000 58.000000 -0.436586 115.000000 0.260954 136.000000 -0.127431 166.000000 0.011016 14.000000 0.047067 112.000000 0.271832 136.000000 -0.127431
226403.000000 2.136253 471.000000 351.000000 268.000000 -0.135567 294.000000 0.262882 317.000000 -0.166381 334.000000 -0.166317 17.000000 -0.052274 115.000000 0.351079 151.000000 -0.056273
226754.000000 2.141271 351.000000 329.000000 246.000000 -0.134531 271.000000 0.265140 303.000000 -0.147964 310.000000 -0.173152 16.000000 -0.084105 108.000000 0.408689 147.000000 -0.121111
227740.000000 2.137274 331.000000 188.000000 45.000000 -0.448182 113.000000 0.268290 152.000000 -0.089891 163.000000 0.012602 16.000000 -0.096081 109.000000 0.310344 152.000000 -0.089891
228418.000000 2.156584 490.000000 346.000000 261.000000 -0.134670 296.000000 0.238777 316.000000 -0.199012 327.000000 -0.190171 16.000000 -0.052835 117.000000 0.384108 150.000000 -0.059765
229723.000000 2.100596 327.000000 331.000000 245.000000 -0.153058 271.000000 0.222240 274.000000 0.192616 312.000000 -0.171566 16.000000 -0.074042 110.000000 0.441679 152.000000 -0.157620
230696.000000 2.096347 330.000000 332.000000 236.000000 -0.158259 274.000000 0.211520 293.000000 -0.179610 314.000000 -0.195064 14.000000 0.056206 117.000000 0.434344 154.000000 -0.083259
231666.000000 2.107462 325.000000 326.000000 241.000000 -0.106865 266.000000 0.244076 287.000000 -0.173714 310.000000 -0.207460 16.000000 -0.022976 114.000000 0.436533 149.000000 -0.131332
232310.000000 2.135894 318.000000 337.000000 251.000000 -0.145879 274.000000 0.233934 311.000000 -0.199795 318.000000 -0.169261 18.000000 -0.151459 109.000000 0.430911 147.000000 -0.130499
233282.000000 2.174826 316.000000 342.000000 245.000000 -0.149186 281.000000 0.265908 302.000000 -0.183527 323.000000 -0.198198 16.000000 -0.056054 114.000000 0.469856 153.000000 -0.115452
235583.000000 2.157901 471.000000 325.000000 237.000000 -0.116756 267.000000 0.203902 285.000000 -0.170533 309.000000 -0.171896 17.000000 -0.083430 119.000000 0.337430 150.000000 -0.061130
235908.000000 2.098731 325.000000 325.000000 239.000000 -0.128637 266.000000 0.199670 285.000000 -0.161051 310.000000 -0.158276 16.000000 -0.135641 109.000000 0.350942 152.000000 -0.141286
236233.000000 2.172568 325.000000 324.000000 241.000000 -0.136672 263.000000 0.249267 284.000000 -0.158165 307.000000 -0.151505 13.000000 0.128353 107.000000 0.401797 146.000000 -0.134844
237181.000000 2.148039 316.000000 330.000000 244.000000 -0.134372 274.000000 0.231897 301.000000 -0.203635 313.000000 -0.154809 16.000000 -0.106052 110.000000 0.399620 143.000000 -0.106646
238484.000000 2.061112 333.000000 327.000000 238.000000 -0.179811 269.000000 0.198792 300.000000 -0.215863 307.000000 -0.177195 15.000000 -0.052587 112.000000 0.419997 152.000000 -0.139214
238811.000000 2.080061 327.000000 326.000000 236.000000 -0.137129 265.000000 0.242244 285.000000 -0.169793 309.000000 -0.199998 17.000000 -0.152775 108.000000 0.405408 146.000000 -0.116049
239137.000000 2.136270 326.000000 329.000000 228.000000 -0.126143 274.000000 0.218464 289.000000 -0.137446 312.000000 -0.155534 15.000000 -0.001239 109.000000 0.421721 150.000000 -0.147553
239466.000000 2.053025 329.000000 326.000000 238.000000 -0.141879 265.000000 0.210785 284.000000 -0.149922 309.000000 -0.166725 16.000000 -0.039138 112.000000 0.401551 151.000000 -0.119515
240116.000000 2.084156 324.000000 341.000000 233.000000 -0.112462 279.000000 0.262537 300.000000 -0.169422 324.000000 -0.197869 14.000000 0.067683 111.000000 0.423168 147.000000 -0.132164
240457.000000 2.073339 341.000000 321.000000 228.000000 -0.133293 259.000000 0.201441 278.000000 -0.175456 302.000000 -0.182789 15.000000 0.024830 118.000000 0.388323 154.000000 -0.130189
241788.000000 2.097573 329.000000 194.000000 56.000000 -0.435122 117.000000 0.179590 159.000000 -0.016444 170.000000 0.052726 14.000000 0.076806 113.000000 0.222396 159.000000 -0.016444
242450.000000 2.101694 468.000000 327.000000 246.000000 -0.165313 267.000000 0.198669 286.000000 -0.177303 307.000000 -0.204340 15.000000 0.005707 121.000000 0.310283 149.000000 -0.032586
243764.000000 2.077260 317.000000 332.000000 240.000000 -0.129895 273.000000 0.251251 293.000000 -0.155188 316.000000 -0.170780 12.000000 0.070457 109.000000 0.343577 150.000000 -0.123978
244414.000000 2.034201 318.000000 307.000000 229.000000 -0.136333 251.000000 0.180736 282.000000 -0.178824 287.000000 -0.204639 15.000000 -0.020689 112.000000 0.364296 152.000000 -0.179529
245391.000000 2.084323 474.000000 327.000000 248.000000 -0.145380 270.000000 0.199918 304.000000 -0.175551 308.000000 -0.204720 16.000000 -0.046604 114.000000 0.311146 150.000000 -0.050940
246385.000000 2.046586 471.000000 322.000000 239.000000 -0.167886 269.000000 0.188775 290.000000 -0.196712 301.000000 -0.191618 17.000000 -0.142725 115.000000 0.317981 147.000000 -0.042256
246707.000000 1.969683 322.000000 322.000000 241.000000 -0.142898 268.000000 0.235379 290.000000 -0.168038 305.000000 -0.145313 17.000000 -0.093169 114.000000 0.351848 146.000000 -0.166957
247029.000000 2.061018 322.000000 319.000000 243.000000 -0.167996 264.000000 0.193069 283.000000 -0.155237 303.000000 -0.166975 14.000000 0.028102 112.000000 0.386412 148.000000 -0.118465
247665.000000 2.077869 317.000000 189.000000 52.000000 -0.439609 114.000000 0.165943 137.000000 -0.132520 173.000000 0.265601 16.000000 -0.088826 107.000000 0.272400 137.000000 -0.132520
249308.000000 2.109892 464.000000 339.000000 249.000000 -0.151098 285.000000 0.204185 313.000000 -0.181190 320.000000 -0.164873 18.000000 -0.158008 120.000000 0.331225 153.000000 -0.044416
249647.000000 2.047445 339.000000 329.000000 247.000000 -0.119016 273.000000 0.257865 302.000000 -0.204578 309.000000 -0.154058 17.000000 -0.103151 109.000000 0.352242 150.000000 -0.135094
250923.000000 2.023007 323.000000 317.000000 225.000000 -0.136334 258.000000 0.209842 280.000000 -0.164983 301.000000 -0.188856 18.000000 -0.158436 112.000000 0.390219 150.000000 -0.107196
251240.000000 2.061851 317.000000 317.000000 225.000000 -0.124704 258.000000 0.195670 277.000000 -0.149704 300.000000 -0.143996 16.000000 -0.057084 108.000000 0.380318 141.000000 -0.154215
251880.000000 2.059433 323.000000 324.000000 242.000000 -0.136975 266.000000 0.215752 297.000000 -0.178637 304.000000 -0.197290 15.000000 -0.006680 114.000000 0.403980 153.000000 -0.113929
252204.000000 2.074718 324.000000 323.000000 242.000000 -0.142379 264.000000 0.200787 296.000000 -0.164780 303.000000 -0.190267 17.000000 -0.143982 107.000000 0.378479 147.000000 -0.161488
252527.000000 2.117727 323.000000 315.000000 230.000000 -0.154341 255.000000 0.198044 287.000000 -0.191035 294.000000 -0.216772 16.000000 -0.068465 110.000000 0.397364 147.000000 -0.132851
252842.000000 2.016362 315.000000 322.000000 241.000000 -0.135764 264.000000 0.215395 292.000000 -0.187149 304.000000 -0.194830 17.000000 -0.103684 115.000000 0.439075 151.000000 -0.114684
253164.000000 2.042021 322.000000 315.000000 224.000000 -0.104640 257.000000 0.208870 281.000000 -0.200923 296.000000 -0.164341 16.000000 -0.112244 107.000000 0.373225 149.000000 -0.139404
254775.000000 2.045002 331.000000 192.000000 60.000000 -0.431957 116.000000 0.250894 139.000000 -0.118525 172.000000 0.069109 13.000000 0.067354 113.000000 0.256851 139.000000 -0.118525
255773.000000 2.072161 340.000000 318.000000 227.000000 -0.145505 260.000000 0.250875 279.000000 -0.149246 303.000000 -0.175170 16.000000 -0.036398 113.000000 0.358908 139.000000 -0.068682
256747.000000 2.062912 331.000000 189.000000 60.000000 -0.444281 114.000000 0.264642 135.000000 -0.077773 167.000000 0.014625 14.000000 0.022128 111.000000 0.263216 135.000000 -0.077773
257754.000000 2.037993 342.000000 316.000000 239.000000 -0.152567 262.000000 0.238795 295.000000 -0.153841 301.000000 -0.181787 18.000000 -0.116628 114.000000 0.340671 157.000000 -0.147835
258697.000000 2.077933 312.000000 192.000000 52.000000 -0.423309 116.000000 0.188246 140.000000 -0.101003 170.000000 0.050094 14.000000 0.038104 110.000000 0.272854 140.000000 -0.101003
258889.000000 2.976207 192.000000 469.000000 395.000000 -0.057098 418.000000 0.285395 446.000000 -0.124371 452.000000 -0.166551 16.000000 1.929058 20.000000 0.689842 40.000000 -0.451707
259358.000000 2.146114 469.000000 331.000000 250.000000 -0.149766 275.000000 0.242506 305.000000 -0.189831 313.000000 -0.159297 15.000000 -0.040439 112.000000 0.302318 147.000000 -0.059331
259689.000000 2.070407 331.000000 321.000000 230.000000 -0.139580 262.000000 0.253556 283.000000 -0.128606 311.000000 -0.226347 16.000000 -0.092727 110.000000 0.354847 149.000000 -0.104028
260010.000000 2.069264 321.000000 319.000000 241.000000 -0.124813 260.000000 0.223964 278.000000 -0.176317 303.000000 -0.195330 13.000000 0.085691 116.000000 0.360770 158.000000 -0.164015
260329.000000 2.155187 319.000000 329.000000 238.000000 -0.171193 271.000000 0.242412 291.000000 -0.167290 311.000000 -0.180252 16.000000 -0.085565 109.000000 0.404891 148.000000 -0.146100
260658.000000 2.090875 329.000000 187.000000 60.000000 -0.411241 113.000000 0.195207 136.000000 -0.145310 151.000000 -0.092803 16.000000 -0.121398 105.000000 0.262244 136.000000 -0.145310
261322.000000 2.131550 477.000000 348.000000 263.000000 -0.136207 289.000000 0.255532 313.000000 -0.186303 329.000000 -0.145361 15.000000 -0.029750 114.000000 0.362543 151.000000 -0.042035
262001.000000 2.051801 331.000000 325.000000 237.000000 -0.146769 265.000000 0.221164 285.000000 -0.144870 307.000000 -0.171691 11.000000 -0.017008 106.000000 0.353323 149.000000 -0.142821
262326.000000 2.087946 325.000000 339.000000 239.000000 -0.142148 278.000000 0.262099 296.000000 -0.129092 322.000000 -0.157650 16.000000 -0.086584 109.000000 0.402694 148.000000 -0.144042
262987.000000 2.051239 322.000000 192.000000 49.000000 -0.406238 116.000000 0.174718 135.000000 -0.137790 164.000000 0.004467 13.000000 0.063150 109.000000 0.238527 135.000000 -0.137790
263983.000000 2.043684 325.000000 190.000000 52.000000 -0.434169 114.000000 0.188228 136.000000 -0.144797 163.000000 0.011128 17.000000 -0.125014 110.000000 0.199200 136.000000 -0.144797
264658.000000 2.054091 485.000000 327.000000 245.000000 -0.119973 268.000000 0.208384 291.000000 -0.183232 308.000000 -0.161522 13.000000 0.082116 115.000000 0.280708 147.000000 -0.058167
265654.000000 2.074923 480.000000 199.000000 62.000000 -0.462416 120.000000 0.068182 142.000000 -0.099373 174.000000 0.045878 17.000000 -0.086834 117.000000 0.096426 142.000000 -0.099373
266668.000000 2.033196 324.000000 333.000000 243.000000 -0.125937 275.000000 0.228027 294.000000 -0.143822 330.000000 1.620408 15.000000 -0.001773 111.000000 0.325957 151.000000 -0.131360
267001.000000 2.030878 333.000000 339.000000 253.000000 -0.148777 281.000000 0.241096 301.000000 -0.171679 322.000000 -0.196442 9.000000 -0.284546 115.000000 0.383842 146.000000 -0.136096
267655.000000 2.084562 315.000000 191.000000 54.000000 -0.441550 115.000000 0.143073 141.000000 -0.150155 167.000000 0.018715 14.000000 0.046443 109.000000 0.219844 141.000000 -0.150155
268324.000000 1.988905 478.000000 198.000000 58.000000 -0.464092 121.000000 0.171129 146.000000 -0.072759 180.000000 0.280014 16.000000 -0.065076 115.000000 0.157210 146.000000 -0.072759
269324.000000 1.971347 331.000000 314.000000 232.000000 -0.144235 255.000000 0.214997 286.000000 -0.210187 297.000000 -0.194121 14.000000 0.062931 111.000000 0.349877 153.000000 -0.145252
269638.000000 2.069702 314.000000 195.000000 58.000000 -0.415941 117.000000 0.179107 158.000000 -0.100971 169.000000 0.002885 15.000000 -0.037086 108.000000 0.202493 158.000000 -0.100971
270302.000000 2.029088 469.000000 197.000000 59.000000 -0.454783 119.000000 0.196705 156.000000 -0.033921 170.000000 0.048242 15.000000 -0.050285 117.000000 0.197865 156.000000 -0.033921
270976.000000 2.080051 477.000000 340.000000 264.000000 -0.158180 285.000000 0.240722 315.000000 -0.204720 321.000000 -0.152683 17.000000 -0.098587 117.000000 0.329278 154.000000 -0.070487
272282.000000 2.035750 330.000000 322.000000 241.000000 -0.136157 264.000000 0.226728 296.000000 -0.183386 303.000000 -0.208198 14.000000 0.006801 109.000000 0.367457 150.000000 -0.141989
273597.000000 2.055344 330.000000 194.000000 58.000000 -0.456680 117.000000 0.156851 132.000000 -0.114514 162.000000 -0.010892 16.000000 -0.066868 113.000000 0.220926 132.000000 -0.114514
274261.000000 2.087272 470.000000 323.000000 241.000000 -0.120396 264.000000 0.199668 286.000000 -0.166819 308.000000 -0.206331 15.000000 -0.012605 118.000000 0.293218 149.000000 -0.074703
274584.000000 2.035236 323.000000 191.000000 53.000000 -0.424452 115.000000 0.173513 142.000000 -0.113008 162.000000 0.003889 14.000000 0.055533 111.000000 0.240425 142.000000 -0.113008
275579.000000 2.052774 329.000000 188.000000 55.000000 -0.433447 113.000000 0.221803 141.000000 -0.126629 158.000000 -0.023572 16.000000 -0.107101 110.000000 0.234938 141.000000 -0.126629
276916.000000 2.057038 473.000000 196.000000 53.000000 -0.432384 119.000000 0.192287 158.000000 0.003166 170.000000 0.082806 16.000000 -0.032227 116.000000 0.154091 158.000000 0.003166
277574.000000 2.080878 462.000000 335.000000 259.000000 -0.160801 278.000000 0.228995 311.000000 -0.183810 319.000000 -0.200613 14.000000 0.067398 120.000000 0.343920 152.000000 -0.049311
278882.000000 2.063261 473.000000 331.000000 252.000000 -0.116155 277.000000 0.219707 298.000000 -0.174591 312.000000 -0.185000 15.000000 -0.039563 121.000000 0.317255 152.000000 -0.066524
279213.000000 2.060547 331.000000 187.000000 58.000000 -0.421834 113.000000 0.109107 135.000000 -0.151473 154.000000 -0.088400 16.000000 -0.140707 104.000000 0.185581 135.000000 -0.151473
281862.000000 2.096349 465.000000 325.000000 241.000000 -0.110971 267.000000 0.214751 288.000000 -0.159904 310.000000 -0.167664 15.000000 -0.030597 110.000000 0.282992 141.000000 -0.061508
282187.000000 2.106504 325.000000 193.000000 54.000000 -0.435768 116.000000 0.181285 138.000000 -0.136708 166.000000 0.037133 13.000000 0.119123 111.000000 0.206567 138.000000 -0.136708
282839.000000 2.095973 459.000000 197.000000 59.000000 -0.454263 120.000000 0.136615 142.000000 -0.061348 182.000000 0.566019 13.000000 0.105455 117.000000 0.155612 142.000000 -0.061348
285191.000000 2.040077 343.000000 325.000000 244.000000 -0.147739 269.000000 0.227181 299.000000 -0.165752 306.000000 -0.171865 15.000000 -0.001490 114.000000 0.366250 147.000000 -0.163027
285839.000000 2.045061 323.000000 326.000000 243.000000 -0.157742 267.000000 0.207070 287.000000 -0.144498 308.000000 -0.177507 15.000000 -0.029045 107.000000 0.406957 147.000000 -0.161929
286165.000000 1.989815 326.000000 186.000000 47.000000 -0.400563 112.000000 0.252571 137.000000 -0.075110 163.000000 0.049074 17.000000 -0.130030 107.000000 0.283777 137.000000 -0.075110
286834.000000 2.077931 483.000000 346.000000 242.000000 -0.138460 288.000000 0.230206 309.000000 -0.166331 331.000000 -0.180878 15.000000 -0.032617 118.000000 0.340217 150.000000 -0.072872
287502.000000 2.013903 322.000000 322.000000 236.000000 -0.130579 264.000000 0.201302 287.000000 -0.193793 301.000000 -0.176207 14.000000 0.077603 111.000000 0.384373 150.000000 -0.131472
288487.000000 2.012584 329.000000 314.000000 237.000000 -0.161143 256.000000 0.211475 276.000000 -0.188980 297.000000 -0.195452 17.000000 -0.108199 110.000000 0.381973 153.000000 -0.184152
288801.000000 2.132214 314.000000 328.000000 228.000000 -0.121677 268.000000 0.254169 304.000000 -0.151003 311.000000 -0.157320 14.000000 0.055726 109.000000 0.417325 150.000000 -0.132806
289457.000000 2.038858 328.000000 328.000000 244.000000 -0.116836 270.000000 0.268150 288.000000 -0.177397 312.000000 -0.185548 15.000000 0.001741 112.000000 0.402293 148.000000 -0.122711
290108.000000 2.047054 323.000000 320.000000 237.000000 -0.170443 261.000000 0.219951 278.000000 -0.143385 300.000000 -0.168651 17.000000 -0.128653 111.000000 0.402570 148.000000 -0.113091
290744.000000 2.138200 316.000000 333.000000 249.000000 -0.147759 276.000000 0.252883 301.000000 -0.181206 318.000000 -0.160188 15.000000 -0.002021 111.000000 0.420045 149.000000 -0.108541
291077.000000 2.109796 333.000000 310.000000 232.000000 -0.114358 252.000000 0.218589 271.000000 -0.141270 292.000000 -0.158635 13.000000 0.059434 112.000000 0.401596 156.000000 -0.183009
291387.000000 2.139516 310.000000 313.000000 232.000000 -0.147522 262.000000 0.198763 286.000000 -0.190392 292.000000 -0.213934 14.000000 0.035943 107.000000 0.384313 149.000000 -0.165831
291700.000000 2.181129 313.000000 335.000000 246.000000 -0.106881 274.000000 0.262915 293.000000 -0.157837 317.000000 -0.182195 17.000000 -0.126880 107.000000 0.411376 147.000000 -0.138137
292661.000000 2.160844 311.000000 331.000000 247.000000 -0.108226 273.000000 0.267244 290.000000 -0.146598 316.000000 -0.166976 13.000000 0.040107 105.000000 0.410044 149.000000 -0.110486
293625.000000 2.138028 322.000000 330.000000 239.000000 -0.167008 271.000000 0.241034 292.000000 -0.168902 314.000000 -0.171459 18.000000 -0.167377 111.000000 0.423167 152.000000 -0.124424
293955.000000 2.123572 330.000000 188.000000 52.000000 -0.449062 113.000000 0.221536 140.000000 -0.097148 153.000000 -0.042037 14.000000 -0.013826 108.000000 0.288934 140.000000 -0.097148
294953.000000 2.101270 342.000000 320.000000 227.000000 -0.138635 263.000000 0.237871 284.000000 -0.191504 302.000000 -0.202242 14.000000 0.025924 113.000000 0.347959 144.000000 -0.096192
296239.000000 2.129735 317.000000 196.000000 53.000000 -0.438728 118.000000 0.207572 137.000000 -0.171770 162.000000 -0.027083 15.000000 -0.028728 116.000000 0.251992 137.000000 -0.171770
297594.000000 2.113385 480.000000 340.000000 256.000000 -0.151024 285.000000 0.253462 316.000000 -0.211959 325.000000 -0.171347 16.000000 -0.085063 118.000000 0.382880 151.000000 -0.063419
297934.000000 2.088010 340.000000 318.000000 240.000000 -0.137260 258.000000 0.235828 292.000000 -0.185379 300.000000 -0.196020 14.000000 0.000033 105.000000 0.339531 145.000000 -0.178275
298924.000000 2.106942 486.000000 201.000000 78.000000 -0.333571 123.000000 0.179578 144.000000 -0.081581 187.000000 0.939751 13.000000 0.095094 119.000000 0.183748 144.000000 -0.081581
299596.000000 2.076303 471.000000 336.000000 234.000000 -0.136269 278.000000 0.248431 298.000000 -0.146915 319.000000 -0.194939 17.000000 -0.103354 119.000000 0.311974 151.000000 -0.069517
299932.000000 2.044794 336.000000 324.000000 230.000000 -0.128169 267.000000 0.231988 300.000000 -0.193796 304.000000 -0.164831 15.000000 0.012961 112.000000 0.348272 152.000000 -0.141098
300923.000000 2.041601 475.000000 340.000000 254.000000 -0.141109 280.000000 0.225066 317.000000 -0.197352 324.000000 -0.201411 14.000000 0.079830 116.000000 0.333101 147.000000 -0.072334
301263.000000 2.047287 340.000000 191.000000 58.000000 -0.453277 115.000000 0.202995 136.000000 -0.106834 173.000000 0.223011 15.000000 -0.064279 113.000000 0.237619 136.000000 -0.106834
301938.000000 2.062870 484.000000 194.000000 66.000000 -0.402729 121.000000 0.184418 134.000000 0.013854 165.000000 0.053995 16.000000 -0.051364 113.000000 0.161582 134.000000 0.013854
302611.000000 2.030503 479.000000 328.000000 240.000000 -0.108312 269.000000 0.203241 302.000000 -0.185596 309.000000 -0.202805 17.000000 -0.122709 119.000000 0.325704 151.000000 -0.069029
303254.000000 2.059110 315.000000 318.000000 230.000000 -0.144279 259.000000 0.231599 277.000000 -0.176630 299.000000 -0.175752 13.000000 0.062323 104.000000 0.392651 141.000000 -0.116944
303572.000000 2.026191 318.000000 315.000000 225.000000 -0.142334 255.000000 0.226523 275.000000 -0.137177 296.000000 -0.172742 17.000000 -0.141707 109.000000 0.389668 141.000000 -0.142102
304532.000000 2.027666 333.000000 326.000000 240.000000 -0.122394 265.000000 0.259596 286.000000 -0.156442 309.000000 -0.192711 14.000000 0.059048 108.000000 0.427223 151.000000 -0.135438
305525.000000 1.994437 346.000000 335.000000 233.000000 -0.128524 271.000000 0.249579 307.000000 -0.152116 314.000000 -0.175736 14.000000 0.032240 111.000000 0.417678 150.000000 -0.100753
306180.000000 2.084528 320.000000 339.000000 246.000000 -0.149951 276.000000 0.267399 297.000000 -0.144404 323.000000 -0.130094 15.000000 0.004639 110.000000 0.409777 147.000000 -0.128986
306844.000000 2.009480 325.000000 331.000000 231.000000 -0.173351 270.000000 0.239940 295.000000 -0.168212 313.000000 -0.189185 13.000000 0.061095 105.000000 0.401315 146.000000 -0.135720
307502.000000 2.032912 327.000000 316.000000 232.000000 -0.154469 255.000000 0.189543 281.000000 -0.214154 296.000000 -0.182257 15.000000 -0.019125 107.000000 0.430361 144.000000 -0.093197
307818.000000 2.022118 316.000000 197.000000 68.000000 -0.359168 119.000000 0.138278 144.000000 -0.191581 181.000000 0.431692 17.000000 -0.125577 114.000000 0.245597 144.000000 -0.191581
308499.000000 2.085846 484.000000 323.000000 221.000000 -0.161726 261.000000 0.219888 298.000000 -0.177180 307.000000 -0.179688 18.000000 -0.178998 111.000000 0.333624 138.000000 -0.052256
308822.000000 2.049153 323.000000 330.000000 244.000000 -0.147569 270.000000 0.220173 302.000000 -0.173665 309.000000 -0.190578 14.000000 0.061787 110.000000 0.357636 146.000000 -0.111989
309152.000000 2.101645 330.000000 331.000000 236.000000 -0.116947 272.000000 0.246974 292.000000 -0.133433 314.000000 -0.181425 17.000000 -0.121193 112.000000 0.388177 147.000000 -0.114205
309483.000000 2.056195 331.000000 325.000000 239.000000 -0.095265 263.000000 0.255269 282.000000 -0.179104 308.000000 -0.159561 14.000000 0.050256 109.000000 0.393421 149.000000 -0.145750
310443.000000 2.025549 318.000000 325.000000 244.000000 -0.112803 265.000000 0.212434 298.000000 -0.183634 308.000000 -0.182365 16.000000 -0.066240 115.000000 0.368129 151.000000 -0.140893
310768.000000 2.013825 325.000000 312.000000 234.000000 -0.150784 252.000000 0.201629 271.000000 -0.176034 296.000000 -0.183947 16.000000 -0.149830 109.000000 0.411599 156.000000 -0.152918
311391.000000 2.102509 311.000000 315.000000 227.000000 -0.109718 256.000000 0.205124 284.000000 -0.197118 300.000000 -0.163528 17.000000 -0.128274 115.000000 0.384408 156.000000 -0.135626
311706.000000 2.035374 315.000000 314.000000 230.000000 -0.129227 253.000000 0.206556 275.000000 -0.170656 294.000000 -0.173727 14.000000 0.022662 106.000000 0.390186 154.000000 -0.146911
312664.000000 2.115016 314.000000 189.000000 52.000000 -0.438433 114.000000 0.205988 152.000000 -0.093948 156.000000 -0.026346 15.000000 -0.025628 108.000000 0.302055 152.000000 -0.093948
313328.000000 2.104457 475.000000 328.000000 243.000000 -0.145567 267.000000 0.214558 291.000000 -0.201380 310.000000 -0.182789 15.000000 -0.024508 116.000000 0.361520 149.000000 -0.055472
315299.000000 2.063731 327.000000 311.000000 230.000000 -0.148007 252.000000 0.202401 271.000000 -0.153604 294.000000 -0.154733 18.000000 -0.137004 105.000000 0.404091 154.000000 -0.186739
316574.000000 2.063540 307.000000 328.000000 242.000000 -0.165709 269.000000 0.235453 300.000000 -0.223871 308.000000 -0.186522 19.000000 -0.152209 112.000000 0.430378 151.000000 -0.158056
316902.000000 2.153194 328.000000 330.000000 248.000000 -0.146973 270.000000 0.232431 309.000000 -0.174593 315.000000 -0.144813 17.000000 -0.150615 108.000000 0.469433 150.000000 -0.124637
319221.000000 2.149389 337.000000 337.000000 251.000000 -0.129297 279.000000 0.241675 308.000000 -0.187304 316.000000 -0.165925 16.000000 -0.066394 113.000000 0.392836 150.000000 -0.114153
319558.000000 2.125723 337.000000 318.000000 229.000000 -0.127914 261.000000 0.215142 289.000000 -0.178592 298.000000 -0.166977 17.000000 -0.180107 108.000000 0.417417 140.000000 -0.155878
319876.000000 2.130969 318.000000 332.000000 244.000000 -0.131908 270.000000 0.269188 292.000000 -0.154438 316.000000 -0.168450 19.000000 -0.156945 110.000000 0.395828 151.000000 -0.124075
320208.000000 2.117161 332.000000 194.000000 54.000000 -0.457208 117.000000 0.280218 152.000000 -0.074704 167.000000 0.020485 15.000000 -0.032100 115.000000 0.269168 152.000000 -0.074704
321863.000000 2.166804 317.000000 337.000000 247.000000 -0.147867 277.000000 0.263184 313.000000 -0.182052 319.000000 -0.207193 17.000000 -0.154639 108.000000 0.413183 151.000000 -0.156596
322200.000000 2.153120 337.000000 321.000000 234.000000 -0.156912 263.000000 0.234187 281.000000 -0.183210 305.000000 -0.198164 16.000000 -0.115203 107.000000 0.410786 145.000000 -0.111409
323181.000000 2.077709 337.000000 316.000000 230.000000 -0.129872 254.000000 0.220802 286.000000 -0.214592 297.000000 -0.210141 15.000000 -0.000284 107.000000 0.393006 148.000000 -0.112758
324177.000000 2.137667 492.000000 196.000000 57.000000 -0.480047 122.000000 0.204811 143.000000 -0.058653 170.000000 0.063135 15.000000 -0.015687 115.000000 0.204450 143.000000 -0.058653
325496.000000 2.084985 317.000000 198.000000 58.000000 -0.471240 119.000000 0.210907 146.000000 -0.149621 175.000000 0.040659 19.000000 -0.162289 115.000000 0.270343 146.000000 -0.149621
327478.000000 2.196129 460.000000 332.000000 251.000000 -0.169307 277.000000 0.229878 303.000000 -0.204670 316.000000 -0.158903 15.000000 -0.030739 113.000000 0.374621 144.000000 -0.065034
327810.000000 2.111677 332.000000 328.000000 244.000000 -0.154183 269.000000 0.240849 307.000000 -0.169092 313.000000 -0.193654 13.000000 0.074953 112.000000 0.375639 151.000000 -0.121710
328138.000000 2.118651 328.000000 320.000000 239.000000 -0.143150 260.000000 0.212761 295.000000 -0.195468 305.000000 -0.180421 14.000000 0.015797 113.000000 0.402959 143.000000 -0.152462
328458.000000 2.148621 320.000000 199.000000 147.000000 -0.167192 178.000000 0.078292 165.000000 0.036552 172.000000 0.022729 15.000000 -0.023808 107.000000 0.229044 138.000000 -0.215734
329456.000000 2.141503 325.000000 331.000000 252.000000 -0.151127 272.000000 0.248512 294.000000 -0.150926 313.000000 -0.173402 17.000000 -0.128841 109.000000 0.377886 147.000000 -0.145075
330113.000000 2.157775 326.000000 331.000000 240.000000 -0.126047 271.000000 0.232478 290.000000 -0.147523 312.000000 -0.157758 17.000000 -0.171438 109.000000 0.443479 150.000000 -0.137914
330761.000000 2.169216 317.000000 334.000000 250.000000 -0.119576 277.000000 0.279659 299.000000 -0.157427 318.000000 -0.211705 16.000000 -0.076068 110.000000 0.432487 152.000000 -0.169375
331095.000000 2.159329 334.000000 328.000000 230.000000 -0.111829 268.000000 0.287168 287.000000 -0.139965 312.000000 -0.184327 15.000000 -0.004388 111.000000 0.402249 152.000000 -0.152713
331423.000000 2.144152 328.000000 313.000000 229.000000 -0.112289 255.000000 0.213712 274.000000 -0.180597 296.000000 -0.206112 13.000000 0.038259 109.000000 0.401456 151.000000 -0.123543
332412.000000 2.143796 470.000000 319.000000 230.000000 -0.150441 258.000000 0.258619 292.000000 -0.200000 300.000000 -0.222430 14.000000 0.038858 114.000000 0.367554 144.000000 -0.050989
333045.000000 2.251662 314.000000 318.000000 232.000000 -0.157539 261.000000 0.247945 281.000000 -0.169137 303.000000 -0.180594 13.000000 0.092038 107.000000 0.409281 149.000000 -0.126161
333682.000000 2.108351 319.000000 309.000000 230.000000 -0.151034 250.000000 0.252069 268.000000 -0.217195 290.000000 -0.197020 15.000000 -0.024016 113.000000 0.382175 154.000000 -0.184496
334976.000000 2.260534 473.000000 341.000000 260.000000 -0.148839 284.000000 0.229220 318.000000 -0.200248 324.000000 -0.180171 24.000000 -0.153087 120.000000 0.345406 152.000000 -0.106569
336305.000000 2.134563 337.000000 334.000000 243.000000 -0.174089 277.000000 0.247540 301.000000 -0.198903 316.000000 -0.136488 13.000000 0.085440 112.000000 0.448461 152.000000 -0.112399
336639.000000 2.100093 334.000000 318.000000 228.000000 -0.138697 257.000000 0.224579 281.000000 -0.171755 299.000000 -0.157336 17.000000 -0.094671 108.000000 0.398386 153.000000 -0.130314
336957.000000 2.227679 318.000000 337.000000 242.000000 -0.132528 276.000000 0.262051 310.000000 -0.192398 319.000000 -0.186018 15.000000 -0.021960 106.000000 0.438118 146.000000 -0.126301
337294.000000 2.144264 337.000000 328.000000 247.000000 -0.152443 267.000000 0.265236 302.000000 -0.160346 311.000000 -0.149234 16.000000 -0.086691 109.000000 0.442698 151.000000 -0.135127
337940.000000 2.192553 318.000000 341.000000 250.000000 -0.144075 279.000000 0.302570 314.000000 -0.161396 322.000000 -0.184951 14.000000 0.052616 110.000000 0.447802 148.000000 -0.115818
338612.000000 2.155662 331.000000 329.000000 238.000000 -0.178500 267.000000 0.260091 288.000000 -0.167759 314.000000 -0.178997 17.000000 -0.142787 110.000000 0.409782 146.000000 -0.130285
338941.000000 2.185800 329.000000 345.000000 244.000000 -0.173967 285.000000 0.281208 311.000000 -0.164574 327.000000 -0.171957 15.000000 0.011302 116.000000 0.433953 150.000000 -0.152286
339286.000000 2.160473 345.000000 327.000000 231.000000 -0.129155 268.000000 0.234277 288.000000 -0.158682 310.000000 -0.194670 14.000000 0.072448 110.000000 0.419611 148.000000 -0.148655
339948.000000 2.185891 335.000000 333.000000 241.000000 -0.110815 271.000000 0.256897 290.000000 -0.129249 311.000000 -0.184060 15.000000 0.052269 111.000000 0.419324 146.000000 -0.111820
341262.000000 2.080204 473.000000 332.000000 247.000000 -0.147555 272.000000 0.233150 303.000000 -0.211490 312.000000 -0.198904 15.000000 0.009938 116.000000 0.324419 147.000000 -0.059607
341594.000000 2.175611 332.000000 202.000000 64.000000 -0.432587 122.000000 0.098571 141.000000 -0.147276 168.000000 0.053979 16.000000 -0.087306 119.000000 0.166080 141.000000 -0.147276
342594.000000 2.144920 334.000000 192.000000 60.000000 -0.424451 116.000000 0.189830 135.000000 -0.155281 170.000000 0.019061 15.000000 -0.034798 113.000000 0.201068 135.000000 -0.155281
343245.000000 2.118212 459.000000 331.000000 249.000000 -0.133669 274.000000 0.201441 296.000000 -0.170203 316.000000 -0.195517 16.000000 -0.028275 117.000000 0.249954 148.000000 -0.029104
343576.000000 2.134595 331.000000 192.000000 55.000000 -0.430297 116.000000 0.121849 137.000000 -0.127728 165.000000 0.041192 13.000000 0.073373 109.000000 0.202288 137.000000 -0.127728
344236.000000 2.103339 468.000000 336.000000 254.000000 -0.105373 279.000000 0.234721 298.000000 -0.146815 318.000000 -0.192398 17.000000 -0.105139 122.000000 0.254608 152.000000 -0.059656
345562.000000 2.064938 325.000000 193.000000 50.000000 -0.429498 116.000000 0.217524 136.000000 -0.087321 167.000000 0.023040 16.000000 -0.056489 113.000000 0.214264 136.000000 -0.087321
347186.000000 2.024512 469.000000 313.000000 229.000000 -0.120909 256.000000 0.201441 287.000000 -0.196082 290.000000 -0.179170 16.000000 -0.056758 113.000000 0.267074 154.000000 -0.088714
347499.000000 2.019920 313.000000 190.000000 48.000000 -0.398699 114.000000 0.131460 132.000000 -0.179293 167.000000 0.010549 16.000000 -0.095471 110.000000 0.186915 132.000000 -0.179293
348820.000000 2.018604 465.000000 195.000000 54.000000 -0.414813 117.000000 0.135957 136.000000 -0.036394 176.000000 0.256664 18.000000 -0.164732 114.000000 0.177039 136.000000 -0.036394
349472.000000 2.061408 457.000000 333.000000 251.000000 -0.111519 281.000000 0.205454 298.000000 -0.152853 315.000000 -0.170390 17.000000 -0.113200 120.000000 0.304735 153.000000 -0.059263
349805.000000 1.980458 333.000000 311.000000 226.000000 -0.127494 257.000000 0.207677 275.000000 -0.192306 294.000000 -0.137303 17.000000 -0.104636 112.000000 0.350097 154.000000 -0.176662
350116.000000 1.948701 311.000000 308.000000 225.000000 -0.145500 250.000000 0.181615 269.000000 -0.138918 293.000000 -0.141253 13.000000 0.063121 106.000000 0.357135 155.000000 -0.165895
350424.000000 2.020704 308.000000 319.000000 232.000000 -0.149217 261.000000 0.242022 281.000000 -0.160141 306.000000 -0.215548 12.000000 0.036613 109.000000 0.355908 150.000000 -0.150191
350743.000000 2.036648 319.000000 197.000000 66.000000 -0.396708 119.000000 0.071225 132.000000 -0.141816 179.000000 0.170628 14.000000 0.062399 110.000000 0.243529 132.000000 -0.141816
351397.000000 2.110848 457.000000 332.000000 254.000000 -0.153041 277.000000 0.215187 306.000000 -0.165534 314.000000 -0.171301 15.000000 -0.036785 115.000000 0.302928 150.000000 -0.083389
351729.000000 2.088464 332.000000 320.000000 236.000000 -0.141288 267.000000 0.219764 286.000000 -0.167882 303.000000 -0.172913 16.000000 -0.082196 109.000000 0.384154 146.000000 -0.095249
352049.000000 2.021019 320.000000 318.000000 237.000000 -0.152537 261.000000 0.200361 279.000000 -0.162303 299.000000 -0.176255 15.000000 0.004483 112.000000 0.372758 155.000000 -0.148460
353031.000000 1.979515 472.000000 205.000000 65.000000 -0.446850 126.000000 0.128900 164.000000 0.056455 180.000000 0.061111 15.000000 0.009044 117.000000 0.197176 164.000000 0.056455
353236.000000 2.877050 205.000000 469.000000 380.000000 -0.042586 421.000000 0.256002 439.000000 -0.108934 445.000000 -0.164750 31.000000 -0.288197 20.000000 0.315752 39.000000 -0.442225
353705.000000 2.052006 469.000000 337.000000 254.000000 -0.138290 281.000000 0.250017 300.000000 -0.178402 318.000000 -0.149233 19.000000 -0.147788 114.000000 0.366070 147.000000 -0.051109
354355.000000 2.000597 313.000000 192.000000 58.000000 -0.426017 116.000000 0.114812 151.000000 -0.092069 152.000000 -0.094562 19.000000 -0.149372 111.000000 0.237492 151.000000 -0.092069
356638.000000 1.973292 323.000000 325.000000 244.000000 -0.118072 267.000000 0.247806 284.000000 -0.184276 309.000000 -0.161048 13.000000 0.094984 110.000000 0.418820 145.000000 -0.107306
358611.000000 2.059388 491.000000 208.000000 150.000000 -0.134169 180.000000 0.104295 186.000000 0.032902 195.000000 0.746632 13.000000 0.099955 113.000000 0.162208 140.000000 -0.154342
359288.000000 2.065896 469.000000 338.000000 254.000000 -0.151095 281.000000 0.225739 310.000000 -0.164091 317.000000 -0.169091 17.000000 -0.099181 115.000000 0.363859 143.000000 -0.050796
359940.000000 2.004233 314.000000 327.000000 241.000000 -0.140141 268.000000 0.239828 288.000000 -0.153588 311.000000 -0.170281 17.000000 -0.111692 111.000000 0.396191 149.000000 -0.120844
360588.000000 1.988338 321.000000 318.000000 226.000000 -0.140716 258.000000 0.228671 278.000000 -0.154529 302.000000 -0.194152 17.000000 -0.128511 110.000000 0.376784 143.000000 -0.149183
360906.000000 2.051129 318.000000 324.000000 246.000000 -0.119091 267.000000 0.228465 299.000000 -0.161473 307.000000 -0.196848 14.000000 0.057289 109.000000 0.357399 150.000000 -0.136396
361561.000000 2.027914 331.000000 313.000000 226.000000 -0.150281 252.000000 0.199139 276.000000 -0.178058 295.000000 -0.168889 14.000000 0.015249 111.000000 0.377522 142.000000 -0.133275
361874.000000 2.043371 313.000000 317.000000 237.000000 -0.128607 266.000000 0.195452 279.000000 -0.165987 301.000000 -0.169452 17.000000 -0.130673 111.000000 0.392495 155.000000 -0.141084
362191.000000 2.102460 317.000000 326.000000 238.000000 -0.105560 266.000000 0.257841 284.000000 -0.124887 311.000000 -0.154093 16.000000 -0.029799 109.000000 0.403067 152.000000 -0.118291
362517.000000 2.025985 326.000000 319.000000 231.000000 -0.138655 257.000000 0.217303 292.000000 -0.201834 301.000000 -0.180737 13.000000 0.071392 108.000000 0.357696 147.000000 -0.142426
363154.000000 2.108920 318.000000 322.000000 233.000000 -0.128852 263.000000 0.213845 297.000000 -0.151943 306.000000 -0.163869 17.000000 -0.117335 106.000000 0.376160 141.000000 -0.100595
364121.000000 2.064640 323.000000 325.000000 248.000000 -0.116288 269.000000 0.266298 301.000000 -0.158340 309.000000 -0.182008 17.000000 -0.119656 110.000000 0.394514 152.000000 -0.129717
364446.000000 2.056206 325.000000 321.000000 234.000000 -0.165675 266.000000 0.232193 293.000000 -0.173968 302.000000 -0.166961 13.000000 0.104889 111.000000 0.378354 150.000000 -0.123040
365409.000000 2.067838 327.000000 327.000000 237.000000 -0.133728 269.000000 0.206160 288.000000 -0.118886 309.000000 -0.153795 15.000000 -0.007365 112.000000 0.379252 145.000000 -0.085438
365736.000000 2.050028 327.000000 315.000000 227.000000 -0.123476 258.000000 0.203201 286.000000 -0.177822 292.000000 -0.216317 15.000000 -0.037495 106.000000 0.349825 142.000000 -0.104481
366051.000000 2.061570 315.000000 334.000000 248.000000 -0.126176 273.000000 0.253949 307.000000 -0.167055 310.000000 -0.182556 19.000000 -0.162207 112.000000 0.364391 142.000000 -0.114185
367046.000000 2.101472 469.000000 336.000000 254.000000 -0.131209 283.000000 0.206955 312.000000 -0.172822 320.000000 -0.151300 14.000000 0.022743 115.000000 0.281245 146.000000 -0.050842
367382.000000 2.027211 336.000000 319.000000 241.000000 -0.108683 262.000000 0.259781 292.000000 -0.182506 300.000000 -0.165547 15.000000 0.008779 106.000000 0.302449 136.000000 -0.104183
368663.000000 2.073057 460.000000 200.000000 64.000000 -0.420481 120.000000 0.144470 162.000000 0.007760 175.000000 0.046332 13.000000 0.106758 111.000000 0.184580 162.000000 0.007760
369332.000000 2.144971 469.000000 340.000000 260.000000 -0.143013 284.000000 0.235765 316.000000 -0.147744 323.000000 -0.165817 13.000000 0.097446 115.000000 0.313450 153.000000 -0.082526
369672.000000 2.074450 340.000000 318.000000 234.000000 -0.123099 257.000000 0.243217 275.000000 -0.135121 301.000000 -0.141253 15.000000 -0.032461 107.000000 0.373436 144.000000 -0.117898
371295.000000 2.117928 322.000000 325.000000 239.000000 -0.116379 264.000000 0.241050 285.000000 -0.132149 308.000000 -0.149955 12.000000 0.061314 105.000000 0.427098 148.000000 -0.160833
371620.000000 2.026063 325.000000 331.000000 253.000000 -0.120670 273.000000 0.251479 306.000000 -0.174560 313.000000 -0.174483 16.000000 -0.051101 114.000000 0.425749 153.000000 -0.115033
372915.000000 2.029058 321.000000 316.000000 233.000000 -0.152821 257.000000 0.201145 275.000000 -0.152774 299.000000 -0.163339 16.000000 -0.114157 108.000000 0.397396 150.000000 -0.152728
373231.000000 2.025656 316.000000 340.000000 241.000000 -0.126910 283.000000 0.262307 296.000000 -0.103586 323.000000 -0.151737 15.000000 -0.055850 106.000000 0.402441 149.000000 -0.115473
374561.000000 2.078053 348.000000 337.000000 230.000000 -0.119966 275.000000 0.268077 307.000000 -0.198979 322.000000 -0.140062 16.000000 -0.073733 107.000000 0.382159 142.000000 -0.121477
374898.000000 2.026457 337.000000 319.000000 237.000000 -0.123760 259.000000 0.209377 276.000000 -0.144888 301.000000 -0.158510 17.000000 -0.137760 106.000000 0.378226 151.000000 -0.123322
375889.000000 2.007617 330.000000 189.000000 47.000000 -0.438746 114.000000 0.182415 136.000000 -0.113761 159.000000 -0.022508 17.000000 -0.149671 111.000000 0.229029 136.000000 -0.113761
378209.000000 2.097322 314.000000 318.000000 236.000000 -0.132226 263.000000 0.216112 293.000000 -0.173556 301.000000 -0.133729 16.000000 -0.108841 109.000000 0.372931 151.000000 -0.136441
378527.000000 2.007605 318.000000 319.000000 230.000000 -0.139606 256.000000 0.219314 277.000000 -0.143695 301.000000 -0.185358 18.000000 -0.131251 107.000000 0.372996 147.000000 -0.129593
379478.000000 2.008101 319.000000 326.000000 240.000000 -0.145956 265.000000 0.198716 296.000000 -0.196051 305.000000 -0.146739 15.000000 -0.028184 103.000000 0.376206 139.000000 -0.090454
380441.000000 2.023056 321.000000 319.000000 233.000000 -0.112446 259.000000 0.209779 280.000000 -0.158779 303.000000 -0.157133 16.000000 -0.066803 109.000000 0.413338 147.000000 -0.109124
380760.000000 2.045798 319.000000 319.000000 240.000000 -0.139951 261.000000 0.214531 281.000000 -0.167368 303.000000 -0.173606 14.000000 -0.002618 106.000000 0.396050 146.000000 -0.145329
381079.000000 2.056833 319.000000 333.000000 246.000000 -0.129776 271.000000 0.238704 299.000000 -0.175469 317.000000 -0.158432 16.000000 -0.067460 109.000000 0.421440 146.000000 -0.112977
381736.000000 2.036352 324.000000 326.000000 239.000000 -0.136915 265.000000 0.229137 291.000000 -0.159275 307.000000 -0.153664 16.000000 -0.078071 103.000000 0.377792 144.000000 -0.134641
382403.000000 2.008012 341.000000 327.000000 244.000000 -0.139548 264.000000 0.219874 297.000000 -0.173430 305.000000 -0.204810 15.000000 0.030959 110.000000 0.388539 149.000000 -0.163606
383410.000000 2.063763 489.000000 199.000000 66.000000 -0.481644 120.000000 0.185063 159.000000 0.011051 174.000000 0.039312 14.000000 0.054955 118.000000 0.183574 159.000000 0.011051
384108.000000 2.044232 499.000000 203.000000 64.000000 -0.459889 122.000000 0.181991 166.000000 0.069767 178.000000 0.083010 13.000000 0.126851 120.000000 0.190878 166.000000 0.069767
384806.000000 2.060596 495.000000 360.000000 256.000000 -0.147728 301.000000 0.252070 336.000000 -0.150688 343.000000 -0.168009 14.000000 0.063838 118.000000 0.320961 152.000000 -0.035859
385504.000000 2.019767 338.000000 338.000000 225.000000 -0.133748 276.000000 0.246881 297.000000 -0.127571 320.000000 -0.156159 14.000000 0.027260 107.000000 0.346816 141.000000 -0.101744
385842.000000 2.014359 338.000000 337.000000 251.000000 -0.125459 283.000000 0.227365 310.000000 -0.183230 315.000000 -0.168009 14.000000 0.058810 114.000000 0.381901 146.000000 -0.122523
386179.000000 2.009922 337.000000 335.000000 246.000000 -0.102994 274.000000 0.251364 302.000000 -0.198966 315.000000 -0.172209 16.000000 -0.079325 112.000000 0.361035 146.000000 -0.142460
386514.000000 2.009530 335.000000 346.000000 249.000000 -0.128810 284.000000 0.271549 305.000000 -0.150864 325.000000 -0.178434 16.000000 -0.085546 112.000000 0.357450 150.000000 -0.124354
387543.000000 2.015691 342.000000 202.000000 63.000000 -0.412979 122.000000 0.144953 139.000000 -0.123434 184.000000 0.194670 14.000000 -0.004560 115.000000 0.216488 139.000000 -0.123434
388238.000000 2.114516 493.000000 353.000000 251.000000 -0.138916 295.000000 0.213011 331.000000 -0.193447 337.000000 -0.149341 13.000000 0.096239 111.000000 0.310841 141.000000 -0.057605
388591.000000 2.012463 353.000000 189.000000 51.000000 -0.426959 114.000000 0.213825 136.000000 -0.105673 162.000000 0.010001 16.000000 -0.079199 109.000000 0.234843 136.000000 -0.105673
390990.000000 2.025268 341.000000 330.000000 239.000000 -0.121524 274.000000 0.230984 305.000000 -0.195658 313.000000 -0.177899 7.000000 -0.271910 112.000000 0.333375 149.000000 -0.143150
391507.000000 2.931789 187.000000 493.000000 415.000000 -0.064313 440.000000 0.283146 478.000000 -0.124813 486.000000 0.177069 19.000000 1.356632 20.000000 1.051789 43.000000 -0.456220
392000.000000 2.014122 493.000000 344.000000 258.000000 -0.148149 287.000000 0.261036 319.000000 -0.175784 323.000000 -0.154717 4.000000 1.157743 119.000000 0.317915 152.000000 -0.032272
392344.000000 1.993890 344.000000 331.000000 248.000000 -0.135374 269.000000 0.221082 290.000000 -0.123008 313.000000 -0.176442 14.000000 0.123309 111.000000 0.348908 146.000000 -0.119871
393355.000000 2.012898 337.000000 332.000000 238.000000 -0.118603 271.000000 0.218435 289.000000 -0.128181 317.000000 -0.187131 15.000000 -0.020366 108.000000 0.433258 151.000000 -0.125721
395734.000000 2.055752 482.000000 360.000000 281.000000 -0.116688 303.000000 0.243468 322.000000 -0.145248 341.000000 -0.174278 13.000000 0.123150 119.000000 0.304261 151.000000 -0.064876
396094.000000 2.019262 360.000000 331.000000 246.000000 -0.140561 273.000000 0.242120 310.000000 -0.147898 313.000000 -0.147742 16.000000 -0.065958 108.000000 0.360420 146.000000 -0.099372
397409.000000 1.997164 340.000000 325.000000 240.000000 -0.166579 266.000000 0.253122 291.000000 -0.154561 309.000000 -0.145000 18.000000 -0.126646 112.000000 0.374023 150.000000 -0.128026
397734.000000 1.976740 325.000000 319.000000 232.000000 -0.122808 261.000000 0.214513 296.000000 -0.177303 303.000000 -0.184483 14.000000 -0.047101 110.000000 0.387962 145.000000 -0.167444
398053.000000 1.971006 319.000000 196.000000 57.000000 -0.407523 118.000000 0.201787 138.000000 -0.153024 171.000000 -0.008591 15.000000 -0.007756 115.000000 0.240158 138.000000 -0.153024
398919.000000 2.941663 186.000000 475.000000 392.000000 -0.048965 430.000000 0.281426 443.000000 -0.092836 446.000000 -0.125987 29.000000 -0.226738 20.000000 0.269768 73.000000 -0.752398
400071.000000 1.987210 478.000000 336.000000 257.000000 -0.155629 279.000000 0.180110 308.000000 -0.169055 316.000000 -0.173635 16.000000 -0.075880 118.000000 0.310565 153.000000 -0.060801
401385.000000 1.980268 313.000000 291.000000 218.000000 -0.168131 239.000000 -0.001972 253.000000 -0.219401 271.000000 -0.152820 17.000000 -0.076914 106.000000 0.365049 151.000000 -0.197583
403036.000000 2.204279 325.000000 194.000000 54.000000 -0.463729 117.000000 0.184295 141.000000 -0.137100 170.000000 0.083529 15.000000 -0.024764 108.000000 0.315722 141.000000 -0.137100
405899.000000 2.110658 303.000000 185.000000 60.000000 -0.391912 111.000000 0.187417 145.000000 -0.157662 148.000000 -0.128304 18.000000 -0.209139 104.000000 0.303623 145.000000 -0.157662
406561.000000 2.027507 477.000000 311.000000 235.000000 -0.124246 260.000000 0.207540 285.000000 -0.179185 289.000000 -0.189530 16.000000 -0.071270 113.000000 0.368684 154.000000 -0.128009
406872.000000 2.012730 311.000000 310.000000 228.000000 -0.143396 254.000000 0.216460 283.000000 -0.169326 290.000000 -0.174892 17.000000 -0.150940 100.000000 0.378138 134.000000 -0.164135
408172.000000 2.067635 479.000000 190.000000 53.000000 -0.427618 114.000000 0.203763 134.000000 -0.072273 164.000000 0.057116 20.000000 -0.195845 112.000000 0.225988 134.000000 -0.072273
408829.000000 2.040314 467.000000 211.000000 68.000000 -0.397774 127.000000 0.088603 150.000000 -0.152039 181.000000 0.054340 15.000000 0.024924 117.000000 0.131441 150.000000 -0.152039
410160.000000 2.048775 467.000000 191.000000 54.000000 -0.460083 115.000000 0.197334 139.000000 -0.062697 166.000000 0.101017 16.000000 -0.039250 113.000000 0.172413 139.000000 -0.062697
410811.000000 2.117024 460.000000 308.000000 239.000000 -0.135378 258.000000 0.079357 275.000000 -0.174970 290.000000 -0.163887 15.000000 -0.030030 116.000000 0.309528 154.000000 -0.124279
411119.000000 2.078842 308.000000 289.000000 222.000000 -0.139639 240.000000 0.017603 266.000000 -0.149672 270.000000 -0.162885 13.000000 0.117634 105.000000 0.389705 138.000000 -0.221518
411716.000000 2.152117 308.000000 305.000000 236.000000 -0.176286 254.000000 0.021991 273.000000 -0.153354 286.000000 -0.144984 16.000000 -0.042022 105.000000 0.384814 150.000000 -0.230657
412215.000000 2.906928 194.000000 451.000000 387.000000 -0.095186 404.000000 0.100551 425.000000 -0.123335 431.000000 -0.096346 25.000000 -0.197695 20.000000 0.826333 42.000000 -0.468305
412666.000000 2.169201 451.000000 192.000000 56.000000 -0.406866 117.000000 0.141129 151.000000 -0.089105 175.000000 0.361598 17.000000 -0.099232 109.000000 0.234389 151.000000 -0.089105
413313.000000 2.138983 455.000000 204.000000 64.000000 -0.384889 123.000000 0.193323 141.000000 -0.121849 175.000000 0.026410 17.000000 -0.027131 121.000000 0.200690 141.000000 -0.121849
413952.000000 2.188716 435.000000 310.000000 153.000000 -0.140501 254.000000 0.028399 274.000000 -0.155143 294.000000 -0.162241 14.000000 0.126081 108.000000 0.319187 140.000000 -0.096065
414262.000000 2.113183 310.000000 296.000000 212.000000 -0.134327 244.000000 0.021756 275.000000 -0.174513 281.000000 -0.109732 14.000000 0.133667 112.000000 0.395484 153.000000 -0.232932
414558.000000 2.088531 296.000000 294.000000 219.000000 -0.131679 239.000000 0.014309 267.000000 -0.174639 276.000000 -0.132978 14.000000 0.030803 103.000000 0.403137 149.000000 -0.197917
415042.000000 2.850328 190.000000 415.000000 198.000000 0.207853 249.000000 0.112647 266.000000 0.005985 396.000000 -0.091412 25.000000 -0.201691 20.000000 1.247211 53.000000 -0.548320
415457.000000 2.127068 415.000000 188.000000 59.000000 -0.381943 113.000000 0.192759 137.000000 -0.111050 160.000000 0.018041 16.000000 -0.041850 108.000000 0.260878 137.000000 -0.111050
415645.000000 3.002525 188.000000 422.000000 355.000000 -0.092206 374.000000 0.092103 400.000000 -0.112444 403.000000 -0.123871 23.000000 -0.155343 20.000000 0.588544 35.000000 -0.369824
416067.000000 2.166330 422.000000 215.000000 149.000000 -0.203762 179.000000 0.092525 172.000000 0.022932 179.000000 0.092525 15.000000 0.057805 115.000000 0.138355 139.000000 -0.207789
416667.000000 2.166711 385.000000 195.000000 65.000000 -0.401191 117.000000 0.099593 153.000000 -0.131411 169.000000 0.034216 14.000000 0.099233 109.000000 0.169938 153.000000 -0.131411
417277.000000 2.152368 415.000000 210.000000 152.000000 -0.138372 184.000000 0.064089 176.000000 -0.008543 183.000000 0.063697 16.000000 -0.025500 117.000000 0.185297 141.000000 -0.181522
417487.000000 2.953761 210.000000 375.000000 202.000000 0.221395 225.000000 0.130628 277.000000 -0.063380 359.000000 -0.079029 37.000000 -0.473796 20.000000 0.717788 87.000000 -1.467694
417862.000000 2.182442 375.000000 272.000000 145.000000 -0.207572 221.000000 0.042571 241.000000 -0.201614 256.000000 -0.146192 15.000000 0.011316 108.000000 0.374703 134.000000 -0.153103
418976.000000 2.100844 290.000000 188.000000 49.000000 -0.389359 114.000000 0.165093 148.000000 -0.152947 160.000000 -0.088715 15.000000 -0.015676 104.000000 0.302585 148.000000 -0.152947
419935.000000 2.093041 325.000000 310.000000 227.000000 -0.116195 261.000000 0.057116 285.000000 -0.110015 291.000000 -0.126143 15.000000 0.058151 107.000000 0.423154 154.000000 -0.168560
420245.000000 2.111492 310.000000 319.000000 239.000000 -0.147629 269.000000 0.018889 284.000000 -0.170218 300.000000 -0.135485 15.000000 -0.024292 100.000000 0.397475 148.000000 -0.154189
420564.000000 2.087197 319.000000 312.000000 230.000000 -0.129779 261.000000 0.203341 285.000000 -0.150140 293.000000 -0.124718 16.000000 -0.065328 103.000000 0.419089 144.000000 -0.179638
420876.000000 2.095208 312.000000 191.000000 61.000000 -0.404560 115.000000 0.127572 135.000000 -0.164104 164.000000 -0.032286 20.000000 -0.137332 109.000000 0.220190 135.000000 -0.164104
421844.000000 2.058089 320.000000 190.000000 52.000000 -0.428808 114.000000 0.113575 133.000000 -0.146361 181.000000 1.963151 15.000000 -0.027053 106.000000 0.231160 133.000000 -0.146361
423419.000000 2.145254 440.000000 309.000000 240.000000 -0.121596 257.000000 0.106789 287.000000 -0.187036 291.000000 -0.200813 16.000000 -0.087491 114.000000 0.272635 153.000000 -0.118559
423728.000000 2.048763 309.000000 191.000000 52.000000 -0.381928 115.000000 0.116724 130.000000 -0.115830 166.000000 -0.010110 13.000000 0.097054 108.000000 0.258558 130.000000 -0.115830
424648.000000 2.114468 302.000000 196.000000 59.000000 -0.389812 118.000000 0.034153 137.000000 -0.188637 165.000000 -0.031473 17.000000 -0.074701 105.000000 0.202005 137.000000 -0.188637
425470.000000 2.861048 197.000000 426.000000 203.000000 0.203934 256.000000 0.062975 279.000000 -0.060849 410.000000 -0.102254 19.000000 1.152821 20.000000 0.762805 36.000000 -0.355894
425896.000000 2.054597 426.000000 202.000000 147.000000 -0.143728 174.000000 0.072839 171.000000 0.054970 178.000000 0.045378 14.000000 0.045771 113.000000 0.182274 135.000000 -0.127757
426098.000000 2.808153 202.000000 429.000000 360.000000 -0.083418 379.000000 0.081911 401.000000 -0.120000 405.000000 -0.118338 18.000000 1.616427 20.000000 0.991772 94.000000 -1.343988
426527.000000 2.037289 429.000000 196.000000 61.000000 -0.394764 118.000000 0.192274 139.000000 -0.091615 166.000000 0.071566 17.000000 -0.074733 116.000000 0.164139 139.000000 -0.091615
427142.000000 2.058335 419.000000 190.000000 70.000000 -0.321709 114.000000 0.161176 137.000000 -0.117021 165.000000 0.084452 16.000000 -0.080801 113.000000 0.157273 137.000000 -0.117021
429248.000000 2.005672 429.000000 197.000000 62.000000 -0.371647 172.000000 0.061207 166.000000 -0.023432 173.000000 0.042758 14.000000 0.138244 111.000000 0.245282 159.000000 -0.054795
429863.000000 2.139875 418.000000 302.000000 149.000000 -0.195111 182.000000 -0.013683 195.000000 -0.046975 285.000000 -0.153338 15.000000 0.052711 111.000000 0.351347 150.000000 -0.205425
430165.000000 2.076334 302.000000 296.000000 208.000000 -0.138338 240.000000 0.019921 258.000000 -0.196583 278.000000 -0.137805 14.000000 0.120973 108.000000 0.445499 150.000000 -0.252177
430761.000000 2.030454 300.000000 189.000000 55.000000 -0.355092 114.000000 0.071317 135.000000 -0.175076 177.000000 0.998150 13.000000 0.106050 100.000000 0.253700 135.000000 -0.175076
431676.000000 2.068934 295.000000 301.000000 220.000000 -0.145895 247.000000 -0.045331 263.000000 -0.195158 283.000000 -0.170141 16.000000 -0.013761 107.000000 0.413197 151.000000 -0.279403
433763.000000 1.967130 288.000000 188.000000 58.000000 -0.329012 113.000000 0.037823 129.000000 -0.202364 170.000000 0.106163 13.000000 0.114920 101.000000 0.251977 129.000000 -0.202364
434334.000000 1.946865 383.000000 286.000000 229.000000 -0.113106 260.000000 0.087209 265.000000 -0.046474 266.000000 -0.044938 16.000000 -0.101567 108.000000 0.315612 152.000000 -0.254827
434620.000000 2.018731 286.000000 270.000000 139.000000 -0.151268 164.000000 -0.023666 200.000000 -0.229575 252.000000 -0.309184 19.000000 0.009280 107.000000 0.518121 140.000000 -0.174356
434890.000000 1.832853 270.000000 191.000000 57.000000 -0.431538 115.000000 0.080515 145.000000 -0.102541 159.000000 -0.083997 13.000000 0.016599 105.000000 0.310296 145.000000 -0.102541
435458.000000 2.045768 377.000000 277.000000 149.000000 -0.237242 185.000000 0.006349 195.000000 -0.143024 260.000000 -0.200346 16.000000 0.021207 110.000000 0.386506 149.000000 -0.237242
435735.000000 2.040485 277.000000 276.000000 139.000000 -0.163369 181.000000 0.029389 205.000000 -0.110769 265.000000 -0.183619 17.000000 -0.046945 108.000000 0.334924 140.000000 -0.134811
436011.000000 2.079357 276.000000 196.000000 123.000000 -0.175205 175.000000 0.241080 178.000000 0.582350 185.000000 1.799152 17.000000 -0.083496 98.000000 0.160437 129.000000 -0.255377
436821.000000 1.822370 267.000000 198.000000 133.000000 -0.140753 177.000000 0.090313 178.000000 0.165784 185.000000 1.040188 14.000000 0.036992 105.000000 0.183997 137.000000 -0.146145
437019.000000 2.720988 198.000000 357.000000 136.000000 -0.130671 219.000000 0.135972 281.000000 -0.089576 336.000000 -0.127867 17.000000 1.217885 20.000000 0.234186 90.000000 -1.259448
437597.000000 2.820597 221.000000 257.000000 94.000000 -1.285343 209.000000 0.444450 235.000000 -0.010972 241.000000 0.009373 21.000000 -0.209592 20.000000 -0.075078 93.000000 -1.296127
438133.000000 1.972004 279.000000 268.000000 190.000000 -0.084299 219.000000 0.226297 245.000000 -0.148463 251.000000 -0.148839 16.000000 -0.089374 102.000000 0.310755 146.000000 -0.202274
439286.000000 2.053854 295.000000 187.000000 58.000000 -0.402304 113.000000 0.138825 131.000000 -0.160297 163.000000 0.019294 20.000000 -0.195080 101.000000 0.268511 131.000000 -0.160297
439933.000000 1.980800 460.000000 323.000000 252.000000 -0.153851 273.000000 0.175458 291.000000 -0.184966 305.000000 -0.174890 20.000000 -0.110249 111.000000 0.372272 149.000000 -0.128683
440256.000000 2.046253 323.000000 188.000000 59.000000 -0.415407 113.000000 0.140708 142.000000 -0.180829 157.000000 -0.131048 14.000000 -0.038558 103.000000 0.314564 142.000000 -0.180829
444743.000000 2.007318 486.000000 195.000000 54.000000 -0.474562 117.000000 0.111582 137.000000 -0.114201 170.000000 0.088496 17.000000 -0.126710 110.000000 0.171347 137.000000 -0.114201
446086.000000 2.069279 468.000000 324.000000 247.000000 -0.144440 277.000000 0.216391 299.000000 -0.155003 307.000000 -0.163419 19.000000 -0.196426 118.000000 0.299328 152.000000 -0.096409
447053.000000 2.049593 318.000000 312.000000 229.000000 -0.125554 258.000000 0.242300 285.000000 -0.157714 292.000000 -0.175644 15.000000 -0.058120 104.000000 0.403431 152.000000 -0.144481
447365.000000 2.043150 312.000000 197.000000 145.000000 -0.170970 175.000000 0.046927 160.000000 -0.064748 167.000000 0.007305 16.000000 -0.114795 105.000000 0.244923 152.000000 -0.109137
448367.000000 2.007086 333.000000 186.000000 56.000000 -0.425200 112.000000 0.186709 131.000000 -0.121426 161.000000 -0.001301 17.000000 -0.165483 108.000000 0.230534 131.000000 -0.121426
450007.000000 1.996929 315.000000 187.000000 60.000000 -0.369092 113.000000 0.184342 152.000000 -0.076175 164.000000 0.015973 13.000000 0.066535 105.000000 0.238323 152.000000 -0.076175
450667.000000 2.008228 473.000000 320.000000 240.000000 -0.137463 272.000000 0.202805 283.000000 -0.140580 305.000000 -0.171175 15.000000 -0.021192 114.000000 0.252993 145.000000 -0.109765
