603.000000 1.389576 160.000000 322.000000 67.000000 -0.506340 194.000000 0.052853 206.000000 0.026257 303.000000 -0.000546 19.000000 0.336675 23.000000 0.560938 67.000000 -0.506340
3064.000000 1.564219 238.000000 462.000000 414.000000 -0.042695 441.000000 0.010767 445.000000 0.009436 447.000000 0.018856 13.000000 -0.156956 105.000000 0.101467 171.000000 0.019852
4489.000000 1.587525 360.000000 350.000000 256.000000 -0.045593 294.000000 0.000366 315.000000 -0.058429 334.000000 -0.033509 12.000000 -0.049434 108.000000 0.118920 166.000000 -0.011899
5355.000000 1.588951 262.000000 181.000000 103.000000 0.109578 160.000000 0.142511 162.000000 0.167699 169.000000 0.553640 16.000000 -0.110531 105.000000 0.123214 181.000000 1.313703
6099.000000 1.617646 250.000000 253.000000 130.000000 -0.105990 172.000000 -0.019499 185.000000 -0.090957 234.000000 -0.031538 14.000000 -0.078608 81.000000 0.059590 99.000000 0.041817
10816.000000 1.346208 174.000000 311.000000 187.000000 0.055691 212.000000 0.063591 215.000000 0.039688 291.000000 -0.045081 22.000000 0.313684 25.000000 0.593433 51.000000 -0.417699
13026.000000 1.585296 283.000000 178.000000 49.000000 -0.242103 107.000000 0.074183 129.000000 -0.061019 150.000000 -0.042006 14.000000 -0.115882 105.000000 0.086864 129.000000 -0.061019
17428.000000 1.578902 229.000000 255.000000 149.000000 -0.060076 167.000000 -0.003573 179.000000 -0.028011 236.000000 -0.058918 14.000000 -0.103981 88.000000 0.108956 89.000000 0.092828
18758.000000 1.529706 293.000000 313.000000 178.000000 -0.056735 204.000000 -0.020766 213.000000 -0.080609 296.000000 -0.028289 16.000000 -0.086550 108.000000 0.160097 149.000000 -0.051970
19071.000000 1.522010 313.000000 568.000000 330.000000 -0.034989 390.000000 0.119821 398.000000 0.065214 548.000000 -0.059277 16.000000 -0.070515 194.000000 1.244939 212.000000 0.280910
24601.000000 1.630690 240.000000 280.000000 104.000000 0.133816 168.000000 -0.000060 203.000000 -0.039658 263.000000 -0.032039 17.000000 -0.108197 108.000000 0.168863 165.000000 0.002432
26620.000000 1.603916 279.000000 248.000000 110.000000 0.086438 175.000000 0.038867 190.000000 -0.042292 229.000000 -0.068573 13.000000 -0.050411 110.000000 0.086438 177.000000 0.023304
26868.000000 1.641962 248.000000 278.000000 186.000000 -0.034009 204.000000 -0.005467 232.000000 -0.066019 262.000000 -0.041505 13.000000 -0.085168 107.000000 0.081619 131.000000 -0.097268
27311.000000 1.436722 165.000000 381.000000 196.000000 0.045428 229.000000 -0.004873 253.000000 -0.032037 363.000000 -0.041318 7.000000 1.022051 24.000000 0.536473 55.000000 -0.486157
27957.000000 1.605173 265.000000 229.000000 146.000000 -0.060115 176.000000 0.001078 184.000000 -0.051618 214.000000 -0.012289 15.000000 -0.076787 98.000000 0.058538 146.000000 -0.060115
31547.000000 1.458308 423.000000 246.000000 111.000000 0.104180 173.000000 -0.007489 192.000000 -0.021783 230.000000 -0.052663 13.000000 -0.094405 113.000000 0.114415 172.000000 -0.021878
31793.000000 1.445646 246.000000 368.000000 267.000000 -0.051194 299.000000 -0.023951 306.000000 -0.045440 351.000000 -0.031631 15.000000 -0.128604 100.000000 0.161014 179.000000 0.023206
34677.000000 1.298307 157.000000 291.000000 140.000000 -0.081759 192.000000 0.071364 261.000000 -0.051333 274.000000 -0.020391 19.000000 0.175155 24.000000 0.524480 66.000000 -0.485682
34968.000000 1.414736 291.000000 260.000000 132.000000 -0.086217 172.000000 0.026978 195.000000 -0.023291 243.000000 -0.012290 13.000000 -0.084260 99.000000 0.127594 132.000000 -0.086217
41018.000000 1.468960 336.000000 325.000000 259.000000 -0.074000 287.000000 -0.025772 297.000000 -0.073561 308.000000 -0.020754 14.000000 -0.049926 106.000000 0.148626 160.000000 0.004412
43363.000000 1.175317 235.000000 227.000000 178.000000 -0.024731 205.000000 -0.000170 210.000000 0.037870 211.000000 0.032400 12.000000 -0.093664 102.000000 0.027841 164.000000 -0.045828
44042.000000 1.147355 235.000000 294.000000 249.000000 -0.058100 273.000000 -0.015904 268.000000 -0.025498 275.000000 0.013720 14.000000 -0.041562 100.000000 0.077370 146.000000 -0.134060
44336.000000 1.197887 294.000000 172.000000 105.000000 0.080799 150.000000 0.158525 141.000000 0.001818 148.000000 0.116410 16.000000 -0.073807 101.000000 0.100141 111.000000 0.068778
44840.000000 1.141065 332.000000 273.000000 105.000000 0.053880 166.000000 0.023183 173.000000 0.008404 258.000000 0.028636 15.000000 -0.039500 107.000000 0.085981 160.000000 -0.011959
46634.000000 1.149077 320.000000 272.000000 108.000000 0.085164 184.000000 -0.004825 191.000000 -0.006456 253.000000 -0.039326 15.000000 -0.002926 106.000000 0.108675 143.000000 -0.078381
47560.000000 1.104247 163.000000 307.000000 183.000000 0.006001 217.000000 0.038465 236.000000 -0.004986 291.000000 0.009031 21.000000 0.193696 25.000000 0.379118 64.000000 -0.470181
48304.000000 1.181363 171.000000 265.000000 125.000000 -0.107063 181.000000 0.070410 196.000000 0.036537 248.000000 0.034185 15.000000 0.344655 24.000000 0.472445 125.000000 -0.107063
49847.000000 1.337443 221.000000 221.000000 169.000000 -0.039248 199.000000 -0.014640 193.000000 -0.050346 200.000000 -0.025596 12.000000 -0.069250 96.000000 0.020799 99.000000 -0.013857
52870.000000 1.527728 271.000000 242.000000 145.000000 -0.052961 174.000000 0.006979 186.000000 -0.024245 227.000000 -0.032916 15.000000 -0.121837 102.000000 0.059306 134.000000 -0.091725
53112.000000 1.559592 242.000000 347.000000 304.000000 -0.026865 322.000000 -0.010875 320.000000 -0.020749 327.000000 -0.026408 13.000000 -0.110395 106.000000 0.115637 167.000000 0.035874
57610.000000 1.432886 259.000000 231.000000 146.000000 -0.134545 185.000000 -0.013699 198.000000 -0.025392 213.000000 -0.051254 15.000000 -0.120706 95.000000 0.112946 146.000000 -0.134545
57841.000000 1.409184 231.000000 502.000000 339.000000 0.048357 374.000000 0.095328 396.000000 -0.017210 483.000000 -0.034540 16.000000 -0.139031 176.000000 1.279516 195.000000 0.328873
58969.000000 1.337398 159.000000 293.000000 132.000000 -0.102616 190.000000 0.078009 207.000000 0.024249 272.000000 -0.002020 21.000000 0.430769 23.000000 0.545848 112.000000 -0.079606
64925.000000 1.361819 156.000000 318.000000 159.000000 0.005577 194.000000 0.068243 207.000000 0.036992 303.000000 0.002654 9.000000 0.815015 23.000000 0.543590 46.000000 -0.448655
67044.000000 1.537426 301.000000 162.000000 47.000000 -0.237966 98.000000 0.102146 132.000000 -0.087225 147.000000 0.324578 14.000000 -0.151713 91.000000 0.087677 162.000000 1.458746
68504.000000 1.547227 294.000000 480.000000 233.000000 0.006450 288.000000 0.021348 316.000000 -0.042917 462.000000 0.003808 14.000000 -0.104842 107.000000 0.129581 138.000000 -0.061732
73108.000000 1.108107 352.000000 487.000000 278.000000 -0.091322 326.000000 0.062456 399.000000 -0.028699 469.000000 -0.053947 13.000000 -0.013978 236.000000 0.832737 278.000000 -0.091322
74610.000000 1.013606 519.000000 283.000000 109.000000 0.110492 186.000000 0.001130 201.000000 -0.042850 265.000000 -0.044416 15.000000 -0.016571 108.000000 0.115571 146.000000 -0.105584
74893.000000 1.299486 283.000000 169.000000 39.000000 -0.268635 102.000000 0.170848 107.000000 0.158543 144.000000 0.016693 15.000000 -0.165421 95.000000 0.158496 104.000000 0.138998
75824.000000 1.349997 224.000000 224.000000 175.000000 -0.066775 196.000000 -0.009893 198.000000 -0.030426 205.000000 -0.052008 15.000000 -0.067917 93.000000 0.102020 136.000000 -0.079032
76048.000000 1.509326 224.000000 256.000000 134.000000 -0.092929 164.000000 -0.013526 171.000000 -0.033324 237.000000 -0.043090 16.000000 -0.123243 86.000000 0.136461 134.000000 -0.092929
77117.000000 1.477351 359.000000 280.000000 105.000000 0.166068 193.000000 0.016871 216.000000 -0.055310 261.000000 -0.057428 15.000000 -0.069125 108.000000 0.186240 184.000000 -0.020165
77676.000000 1.462288 279.000000 173.000000 48.000000 -0.265517 152.000000 0.113088 142.000000 -0.061709 149.000000 0.065846 12.000000 -0.092179 101.000000 0.116346 172.000000 1.311195
77849.000000 1.321274 173.000000 259.000000 150.000000 -0.065597 187.000000 0.067428 197.000000 0.019717 239.000000 -0.011709 14.000000 0.420537 24.000000 0.658986 68.000000 -0.524193
78108.000000 1.534609 259.000000 214.000000 140.000000 -0.091499 167.000000 0.010709 181.000000 -0.076188 195.000000 -0.035029 14.000000 -0.062413 102.000000 0.102107 148.000000 -0.065921
79674.000000 1.496444 368.000000 268.000000 174.000000 -0.034233 192.000000 -0.015707 217.000000 -0.081147 249.000000 -0.044108 14.000000 -0.039416 101.000000 0.131121 138.000000 -0.121251
80653.000000 1.498525 219.000000 230.000000 187.000000 -0.057910 208.000000 -0.004979 210.000000 -0.025120 212.000000 -0.020214 17.000000 -0.078438 107.000000 0.036109 156.000000 -0.072033
82765.000000 1.235639 234.000000 222.000000 162.000000 -0.028025 196.000000 -0.009185 201.000000 -0.010502 205.000000 -0.016772 14.000000 -0.102762 100.000000 0.040875 107.000000 0.038618
84717.000000 1.231347 154.000000 336.000000 169.000000 0.065748 206.000000 0.013884 225.000000 -0.035220 320.000000 0.023198 18.000000 0.183506 23.000000 0.388130 108.000000 -0.039084
86280.000000 1.533682 245.000000 230.000000 147.000000 -0.075710 166.000000 -0.004940 194.000000 -0.043653 212.000000 -0.034811 15.000000 -0.077276 94.000000 0.074020 147.000000 -0.075710
86964.000000 1.556235 294.000000 256.000000 99.000000 0.098695 172.000000 0.025003 184.000000 -0.000089 238.000000 0.001257 13.000000 -0.057070 100.000000 0.099699 171.000000 0.020191
88108.000000 1.398057 538.000000 229.000000 136.000000 -0.094922 168.000000 0.035958 190.000000 -0.011062 212.000000 -0.005547 13.000000 -0.103370 101.000000 0.021612 110.000000 -0.003575
88337.000000 1.440361 229.000000 259.000000 97.000000 0.065758 167.000000 0.002004 186.000000 -0.036571 242.000000 -0.054685 16.000000 -0.059623 95.000000 0.087215 130.000000 -0.149324
88596.000000 1.385973 259.000000 161.000000 30.000000 -0.230170 100.000000 0.104561 128.000000 -0.049308 132.000000 -0.063257 14.000000 -0.128650 95.000000 0.065784 161.000000 1.280535
90818.000000 1.292227 230.000000 252.000000 206.000000 -0.049576 229.000000 -0.001284 235.000000 0.014609 236.000000 0.024797 15.000000 -0.071189 91.000000 0.083105 168.000000 -0.033211
91725.000000 1.299219 223.000000 241.000000 106.000000 0.024012 168.000000 0.014291 173.000000 -0.007276 224.000000 0.007363 12.000000 -0.060420 108.000000 0.044748 170.000000 -0.026524
96189.000000 1.431053 230.000000 174.000000 95.000000 0.072459 153.000000 0.103602 138.000000 -0.023293 145.000000 -0.024658 14.000000 -0.172443 95.000000 0.072459 174.000000 1.256959
98684.000000 1.520169 238.000000 187.000000 102.000000 0.040611 166.000000 0.182648 158.000000 0.021708 165.000000 0.161284 13.000000 -0.125284 102.000000 0.040611 188.000000 1.240943
98871.000000 1.271146 187.000000 297.000000 130.000000 -0.090384 203.000000 0.085973 254.000000 -0.035436 279.000000 -0.034917 23.000000 0.376632 28.000000 0.555143 52.000000 -0.433385
100602.000000 1.576507 301.000000 287.000000 110.000000 0.110703 176.000000 0.023540 202.000000 -0.074924 269.000000 -0.044453 14.000000 -0.088383 104.000000 0.121832 145.000000 -0.140300
106100.000000 1.350562 423.000000 238.000000 129.000000 -0.087746 173.000000 0.008178 208.000000 -0.030035 217.000000 -0.056303 14.000000 -0.063500 100.000000 0.086612 129.000000 -0.087746
106944.000000 1.417588 173.000000 303.000000 139.000000 -0.056694 187.000000 0.076347 204.000000 0.049342 278.000000 -0.037743 21.000000 0.220644 25.000000 0.449186 54.000000 -0.473605
107891.000000 1.331599 163.000000 288.000000 133.000000 -0.055749 176.000000 0.077774 189.000000 0.028337 273.000000 -0.022351 19.000000 0.315362 23.000000 0.504125 70.000000 -0.650466
108179.000000 1.776709 288.000000 307.000000 243.000000 -0.127553 277.000000 -0.021283 288.000000 -0.043869 292.000000 -0.072365 13.000000 -0.058857 97.000000 0.157303 149.000000 -0.102194
110516.000000 1.493874 301.000000 212.000000 138.000000 -0.066083 172.000000 0.016989 179.000000 -0.022760 194.000000 0.000172 14.000000 -0.078869 100.000000 0.111598 127.000000 -0.079876
111084.000000 1.599171 356.000000 262.000000 133.000000 -0.106389 162.000000 0.002311 176.000000 -0.063881 242.000000 -0.086483 14.000000 -0.080970 96.000000 0.167467 133.000000 -0.106389
111637.000000 1.544027 291.000000 171.000000 42.000000 -0.262290 107.000000 0.083293 136.000000 -0.087617 147.000000 0.005879 16.000000 -0.143716 100.000000 0.089578 136.000000 -0.087617
114093.000000 1.644530 239.000000 249.000000 130.000000 -0.161962 169.000000 -0.002695 194.000000 -0.041518 227.000000 -0.067977 15.000000 -0.124827 103.000000 0.019460 142.000000 -0.125659
115209.000000 1.590880 222.000000 238.000000 97.000000 0.076869 163.000000 -0.027476 182.000000 -0.046488 219.000000 -0.050360 17.000000 -0.168351 91.000000 0.090475 135.000000 -0.138023
117641.000000 1.684704 497.000000 305.000000 151.000000 -0.147550 190.000000 -0.007100 219.000000 -0.088889 284.000000 -0.077947 17.000000 -0.071566 100.000000 0.151569 151.000000 -0.147550
118469.000000 1.629373 351.000000 238.000000 51.000000 -0.094139 153.000000 0.016490 161.000000 0.006475 216.000000 -0.051408 16.000000 -0.064343 106.000000 0.095346 151.000000 -0.020892
122966.000000 1.544373 396.000000 438.000000 232.000000 -0.055211 265.000000 0.030762 293.000000 -0.068515 419.000000 -0.032648 16.000000 -0.069450 91.000000 0.123527 137.000000 -0.084364
127291.000000 1.389483 172.000000 328.000000 177.000000 0.015937 198.000000 0.063743 227.000000 -0.021426 311.000000 -0.011159 22.000000 0.302289 25.000000 0.521850 71.000000 -0.526380
127619.000000 1.468542 328.000000 424.000000 375.000000 -0.037491 398.000000 0.001268 402.000000 -0.048702 407.000000 -0.033075 15.000000 -0.062023 104.000000 0.161674 150.000000 0.005478
128865.000000 1.445143 374.000000 222.000000 143.000000 -0.078119 172.000000 0.000426 184.000000 -0.029355 204.000000 -0.006767 14.000000 -0.045484 113.000000 0.091379 135.000000 -0.062163
130546.000000 1.080973 238.000000 188.000000 108.000000 0.027349 167.000000 0.209718 174.000000 0.590533 181.000000 1.050468 14.000000 -0.045360 110.000000 0.056206 187.000000 1.254622
130734.000000 1.274497 188.000000 367.000000 86.000000 -0.581392 222.000000 0.065847 260.000000 -0.068136 347.000000 -0.009328 10.000000 0.782599 27.000000 0.391691 63.000000 -0.512696
132199.000000 1.294345 324.000000 216.000000 140.000000 -0.091737 173.000000 0.008135 178.000000 -0.012570 199.000000 -0.024686 13.000000 -0.050935 95.000000 0.054595 130.000000 -0.085671
132415.000000 1.329182 216.000000 225.000000 146.000000 -0.123024 178.000000 -0.008951 195.000000 -0.070142 205.000000 -0.055768 15.000000 -0.065881 101.000000 0.048839 146.000000 -0.123024
133799.000000 1.395349 436.000000 229.000000 150.000000 -0.081493 175.000000 0.025482 194.000000 -0.038010 211.000000 -0.004325 17.000000 -0.069355 109.000000 0.054729 142.000000 -0.112480
135407.000000 1.566908 279.000000 276.000000 138.000000 -0.140500 186.000000 -0.012852 221.000000 -0.064954 256.000000 -0.048982 17.000000 -0.047399 96.000000 0.133217 138.000000 -0.140500
135855.000000 1.396927 172.000000 332.000000 165.000000 0.051341 205.000000 0.038482 214.000000 -0.012836 312.000000 -0.029800 14.000000 0.366174 23.000000 0.509309 50.000000 -0.495143
136397.000000 1.491725 210.000000 228.000000 128.000000 -0.128604 192.000000 -0.006207 204.000000 -0.019796 208.000000 -0.040877 14.000000 -0.071205 95.000000 0.032917 136.000000 -0.097821
137571.000000 1.425332 248.000000 169.000000 107.000000 0.073308 148.000000 0.145674 127.000000 -0.040751 134.000000 -0.037365 15.000000 -0.167506 97.000000 0.078903 111.000000 0.042713
138514.000000 1.358431 163.000000 298.000000 140.000000 -0.076171 191.000000 0.084638 218.000000 0.009749 281.000000 -0.007133 8.000000 0.927475 24.000000 0.529938 131.000000 -0.066297
138812.000000 1.524827 298.000000 224.000000 134.000000 -0.088858 176.000000 0.036691 187.000000 -0.010818 206.000000 -0.009923 15.000000 -0.017274 98.000000 0.086879 134.000000 -0.088858
139585.000000 1.476255 223.000000 231.000000 187.000000 -0.044549 207.000000 0.007629 210.000000 -0.027950 215.000000 -0.013874 16.000000 -0.068386 99.000000 0.031015 150.000000 -0.103000
139816.000000 1.454545 231.000000 221.000000 172.000000 -0.027493 191.000000 0.007865 197.000000 -0.003969 201.000000 -0.015300 13.000000 -0.068557 101.000000 0.064103 141.000000 -0.087371
141278.000000 1.481066 305.000000 342.000000 275.000000 -0.086709 320.000000 -0.021458 314.000000 -0.051583 321.000000 -0.026412 15.000000 -0.079135 103.000000 0.155833 137.000000 -0.062073
142710.000000 1.499125 228.000000 231.000000 141.000000 -0.074219 176.000000 -0.014893 204.000000 -0.091602 211.000000 -0.043169 16.000000 -0.125093 87.000000 0.058996 124.000000 -0.106133
143619.000000 1.550346 456.000000 272.000000 139.000000 -0.097156 168.000000 0.010397 188.000000 -0.061911 253.000000 -0.033932 14.000000 -0.057601 102.000000 0.156654 139.000000 -0.097156
145566.000000 1.650043 320.000000 285.000000 145.000000 -0.086693 177.000000 0.017272 187.000000 -0.018215 265.000000 -0.072633 14.000000 -0.013279 111.000000 0.145482 145.000000 -0.086693
149019.000000 1.727208 224.000000 239.000000 164.000000 -0.039733 184.000000 -0.011722 210.000000 -0.070625 219.000000 -0.077976 13.000000 -0.062372 100.000000 0.040884 130.000000 -0.091024
150193.000000 1.327228 190.000000 331.000000 181.000000 0.074136 204.000000 0.057177 210.000000 0.051643 313.000000 -0.012507 8.000000 1.002652 26.000000 0.507761 50.000000 -0.437742
150524.000000 1.329090 331.000000 287.000000 112.000000 0.141271 173.000000 0.016534 211.000000 -0.044167 267.000000 -0.049260 15.000000 -0.079530 113.000000 0.160894 165.000000 -0.002902
151599.000000 1.652477 337.000000 243.000000 109.000000 0.055797 166.000000 0.022653 187.000000 -0.063162 225.000000 -0.050907 14.000000 -0.073242 107.000000 0.085812 135.000000 -0.127163
152159.000000 1.666099 317.000000 172.000000 37.000000 -0.245157 109.000000 0.137868 136.000000 -0.050641 140.000000 -0.054434 15.000000 -0.104764 102.000000 0.098934 136.000000 -0.050641
153871.000000 1.369203 221.000000 225.000000 132.000000 -0.108982 162.000000 0.007963 181.000000 -0.041787 206.000000 -0.046960 13.000000 -0.132772 101.000000 0.025106 124.000000 -0.115002
155833.000000 1.529684 250.000000 305.000000 162.000000 -0.030318 184.000000 -0.031603 205.000000 -0.067714 285.000000 -0.072804 11.000000 -0.060472 89.000000 0.105998 129.000000 -0.080198
156935.000000 1.691792 264.000000 252.000000 168.000000 -0.032489 192.000000 0.002964 214.000000 -0.100109 233.000000 -0.053025 13.000000 -0.079728 90.000000 0.080760 135.000000 -0.144650
158845.000000 1.690047 225.000000 257.000000 154.000000 -0.083430 171.000000 0.009844 212.000000 -0.050047 236.000000 -0.036003 16.000000 -0.093980 106.000000 0.038860 147.000000 -0.107175
160700.000000 1.592683 225.000000 177.000000 129.000000 -0.050107 156.000000 0.105848 158.000000 0.183936 165.000000 0.546694 12.000000 -0.091267 104.000000 0.056868 129.000000 -0.050107
161954.000000 1.417460 184.000000 254.000000 139.000000 -0.049547 200.000000 0.100845 227.000000 -0.007994 234.000000 0.000955 16.000000 0.466143 26.000000 0.571187 139.000000 -0.049547
165166.000000 1.525187 325.000000 284.000000 147.000000 -0.083937 178.000000 0.032021 216.000000 -0.043119 266.000000 -0.048884 13.000000 -0.119297 111.000000 0.146111 149.000000 -0.072244
167446.000000 1.545132 334.000000 255.000000 142.000000 -0.062081 196.000000 0.016159 211.000000 -0.049264 238.000000 -0.009328 16.000000 -0.072219 106.000000 0.096734 142.000000 -0.062081
168517.000000 1.611757 237.000000 228.000000 136.000000 -0.147143 164.000000 -0.002537 196.000000 -0.089232 212.000000 -0.016961 15.000000 -0.086518 91.000000 0.059252 131.000000 -0.118599
169219.000000 1.497621 312.000000 220.000000 147.000000 -0.080370 168.000000 0.025804 173.000000 0.004001 202.000000 -0.041485 15.000000 -0.078021 97.000000 0.112326 137.000000 -0.076435
169670.000000 1.539908 231.000000 168.000000 129.000000 -0.038101 147.000000 0.100787 121.000000 -0.060782 128.000000 -0.043431 14.000000 -0.149028 95.000000 0.062790 129.000000 -0.038101
171675.000000 1.449559 334.000000 301.000000 175.000000 -0.043837 201.000000 0.000553 234.000000 -0.098228 283.000000 -0.052396 16.000000 -0.075711 100.000000 0.117519 148.000000 -0.098399
172152.000000 1.375409 176.000000 391.000000 348.000000 -0.037333 366.000000 -0.008618 368.000000 -0.024088 374.000000 -0.015405 21.000000 0.206897 24.000000 0.397071 52.000000 -0.494417
173585.000000 1.512855 324.000000 301.000000 147.000000 -0.131810 192.000000 0.019940 201.000000 -0.026237 285.000000 -0.011205 14.000000 -0.013887 102.000000 0.106352 152.000000 -0.107532
176538.000000 1.295845 246.000000 264.000000 138.000000 -0.079155 173.000000 0.002162 195.000000 -0.055740 243.000000 -0.039079 15.000000 -0.048954 96.000000 0.118443 144.000000 -0.086648
179358.000000 1.387352 304.000000 224.000000 131.000000 -0.072396 166.000000 -0.021769 179.000000 -0.037254 207.000000 -0.026593 13.000000 0.014764 94.000000 0.092164 128.000000 -0.108587
180299.000000 1.340381 317.000000 265.000000 138.000000 -0.077234 167.000000 0.025070 176.000000 -0.003332 247.000000 -0.027978 13.000000 -0.014197 101.000000 0.114209 138.000000 -0.077234
180564.000000 1.279231 265.000000 268.000000 102.000000 0.079523 167.000000 0.014151 179.000000 -0.001459 252.000000 -0.012429 17.000000 -0.038062 100.000000 0.081482 134.000000 -0.104235
181014.000000 1.289147 182.000000 340.000000 134.000000 -0.043316 220.000000 0.025379 253.000000 -0.072083 319.000000 -0.053163 7.000000 0.998600 25.000000 0.399700 73.000000 -0.579434
181586.000000 1.417365 232.000000 259.000000 150.000000 -0.105504 188.000000 -0.038652 211.000000 -0.083163 240.000000 -0.043400 15.000000 -0.067227 86.000000 0.108602 126.000000 -0.109408
182153.000000 1.362684 308.000000 162.000000 42.000000 -0.229010 101.000000 0.118495 118.000000 0.017886 132.000000 -0.022912 14.000000 -0.118399 95.000000 0.119985 118.000000 0.017886
182956.000000 1.215578 297.000000 178.000000 112.000000 0.073369 157.000000 0.189675 155.000000 0.129314 162.000000 0.433061 17.000000 -0.145143 105.000000 0.064357 140.000000 -0.058243
183134.000000 1.329990 178.000000 362.000000 210.000000 -0.012382 235.000000 0.025032 254.000000 -0.042739 345.000000 0.031932 19.000000 0.202828 26.000000 0.394960 67.000000 -0.482141
183496.000000 1.302981 362.000000 430.000000 388.000000 -0.070249 408.000000 -0.005923 404.000000 -0.049763 411.000000 -0.001909 14.000000 -0.060828 108.000000 0.161729 136.000000 -0.023835
187443.000000 1.391110 172.000000 384.000000 143.000000 -0.045913 258.000000 -0.009778 295.000000 -0.042523 364.000000 -0.007585 21.000000 0.296660 25.000000 0.461253 75.000000 -0.534682
188055.000000 1.408403 228.000000 202.000000 129.000000 -0.111144 167.000000 0.014185 174.000000 -0.009702 189.000000 -0.000170 14.000000 -0.041629 95.000000 0.077024 129.000000 -0.111144
188257.000000 1.421617 202.000000 213.000000 156.000000 -0.053669 182.000000 0.007818 192.000000 -0.000928 197.000000 -0.023185 13.000000 -0.020954 98.000000 0.043133 115.000000 -0.068624
193177.000000 1.823482 332.000000 254.000000 111.000000 0.065867 168.000000 0.021346 195.000000 -0.043450 233.000000 -0.069546 12.000000 -0.017097 103.000000 0.090335 134.000000 -0.102098
202780.000000 1.594794 276.000000 174.000000 129.000000 -0.072445 153.000000 0.164327 133.000000 -0.060862 140.000000 -0.043041 14.000000 -0.099970 103.000000 0.066583 134.000000 -0.065565
206043.000000 1.427542 162.000000 316.000000 147.000000 -0.069290 198.000000 0.071160 211.000000 0.042710 297.000000 -0.031320 10.000000 0.661789 25.000000 0.604658 41.000000 -0.405450
206652.000000 1.538827 293.000000 249.000000 135.000000 -0.108681 166.000000 0.020454 189.000000 -0.035911 228.000000 -0.042037 13.000000 -0.089338 106.000000 0.039047 131.000000 -0.125860
207980.000000 1.348844 170.000000 399.000000 195.000000 0.057630 242.000000 0.012032 265.000000 -0.054394 380.000000 -0.016020 10.000000 0.633123 24.000000 0.684847 45.000000 -0.434214
211369.000000 1.683573 308.000000 163.000000 41.000000 -0.254687 102.000000 0.097226 126.000000 -0.021552 135.000000 -0.105140 14.000000 -0.092085 93.000000 0.083903 126.000000 -0.021552
211851.000000 1.575473 319.000000 244.000000 152.000000 -0.023295 179.000000 0.037601 189.000000 -0.023698 224.000000 -0.061738 13.000000 -0.051656 94.000000 0.093888 126.000000 -0.080628
212519.000000 1.315129 180.000000 250.000000 127.000000 -0.128844 200.000000 0.075203 209.000000 0.032194 232.000000 -0.005207 20.000000 0.360772 24.000000 0.614580 73.000000 -0.580254
213253.000000 1.614829 255.000000 174.000000 128.000000 -0.073433 152.000000 0.135624 136.000000 -0.040220 143.000000 0.013039 16.000000 -0.127946 96.000000 0.080942 131.000000 -0.062054
215161.000000 1.539266 335.000000 247.000000 140.000000 -0.120556 179.000000 0.017668 207.000000 -0.065531 232.000000 -0.004342 14.000000 -0.051407 101.000000 0.060681 140.000000 -0.120556
215881.000000 1.556427 230.000000 167.000000 125.000000 -0.071379 146.000000 0.113213 143.000000 0.057038 150.000000 0.250486 13.000000 -0.107241 90.000000 0.075140 117.000000 -0.056239
217529.000000 1.507526 364.000000 268.000000 137.000000 -0.122137 174.000000 0.027473 191.000000 -0.023201 248.000000 -0.022228 16.000000 -0.082648 108.000000 0.072031 142.000000 -0.105867
218495.000000 1.570991 272.000000 227.000000 166.000000 -0.019547 198.000000 0.003149 205.000000 -0.073495 210.000000 -0.014828 15.000000 -0.058616 90.000000 0.096900 121.000000 -0.109374
219708.000000 1.477600 282.000000 172.000000 102.000000 0.046895 151.000000 0.112620 134.000000 -0.069200 141.000000 -0.047647 14.000000 -0.129954 95.000000 0.069826 130.000000 -0.064373
220583.000000 1.498024 356.000000 248.000000 136.000000 -0.100170 167.000000 0.031568 191.000000 -0.025970 229.000000 -0.049670 16.000000 -0.068574 78.000000 0.029219 91.000000 -0.007803
222815.000000 1.462534 292.000000 219.000000 143.000000 -0.035317 173.000000 0.018981 184.000000 0.006771 205.000000 -0.020847 14.000000 -0.077138 101.000000 0.106606 121.000000 -0.061261
223034.000000 1.482100 219.000000 224.000000 144.000000 -0.048322 169.000000 0.028039 182.000000 0.014621 204.000000 -0.003964 15.000000 -0.103166 98.000000 0.004767 129.000000 -0.111049
225239.000000 1.040066 291.000000 299.000000 151.000000 -0.083107 190.000000 0.008481 209.000000 -0.067521 281.000000 -0.008402 13.000000 0.004642 106.000000 0.101882 151.000000 -0.083107
225538.000000 1.373038 299.000000 280.000000 129.000000 -0.116227 173.000000 -0.004122 195.000000 -0.019917 263.000000 0.011837 16.000000 -0.062415 100.000000 0.072318 129.000000 -0.116227
226049.000000 1.310425 231.000000 286.000000 100.000000 0.086878 178.000000 -0.002354 180.000000 -0.042494 264.000000 -0.052884 16.000000 -0.045047 106.000000 0.087614 172.000000 -0.018404
226864.000000 1.437287 296.000000 450.000000 265.000000 -0.034718 286.000000 0.022384 318.000000 -0.072568 433.000000 -0.017759 15.000000 -0.046348 94.000000 0.136893 132.000000 -0.075823
228446.000000 1.528730 240.000000 281.000000 134.000000 -0.129716 173.000000 0.017226 193.000000 -0.055969 265.000000 -0.010455 13.000000 -0.069498 103.000000 0.110224 134.000000 -0.129716
228727.000000 1.532257 281.000000 204.000000 131.000000 -0.138085 180.000000 0.012022 181.000000 0.001880 186.000000 -0.003982 13.000000 -0.019561 90.000000 0.059472 125.000000 -0.126235
228931.000000 1.556674 204.000000 218.000000 147.000000 -0.101483 181.000000 0.012872 196.000000 -0.046956 200.000000 -0.018713 16.000000 -0.102747 90.000000 0.066101 113.000000 -0.077046
229149.000000 1.465297 218.000000 255.000000 152.000000 -0.105610 184.000000 0.005269 199.000000 -0.070623 239.000000 0.006179 16.000000 -0.066428 88.000000 0.106928 132.000000 -0.076786
229607.000000 1.646586 203.000000 302.000000 244.000000 -0.079674 280.000000 0.007082 276.000000 -0.017495 283.000000 0.021847 16.000000 -0.065183 93.000000 0.073020 118.000000 -0.064505
230925.000000 1.413670 225.000000 165.000000 94.000000 0.143950 144.000000 0.151443 142.000000 0.115753 149.000000 0.443403 13.000000 -0.215611 93.000000 0.152524 114.000000 -0.030690
231432.000000 1.500721 342.000000 216.000000 131.000000 -0.083124 167.000000 0.035876 177.000000 -0.011334 197.000000 -0.016913 15.000000 -0.017822 102.000000 0.090075 136.000000 -0.113155
232973.000000 1.549801 235.000000 240.000000 144.000000 -0.096067 169.000000 -0.008685 213.000000 -0.070662 221.000000 -0.048373 13.000000 -0.037205 103.000000 0.034125 137.000000 -0.129436
234924.000000 1.512039 234.000000 260.000000 99.000000 0.016978 167.000000 0.010674 196.000000 -0.041584 242.000000 -0.034498 13.000000 -0.065986 101.000000 0.042808 167.000000 0.010674
236081.000000 1.503290 259.000000 168.000000 103.000000 0.046318 147.000000 0.080129 136.000000 -0.043445 143.000000 0.018812 14.000000 -0.114407 97.000000 0.050862 130.000000 -0.060170
237689.000000 1.824815 346.000000 260.000000 131.000000 -0.106674 185.000000 0.047149 210.000000 -0.065046 243.000000 -0.059730 14.000000 -0.057915 90.000000 0.041116 131.000000 -0.106674
238222.000000 1.688106 273.000000 157.000000 48.000000 -0.208103 96.000000 0.115065 125.000000 -0.068634 145.000000 0.616006 15.000000 -0.222318 90.000000 0.098404 125.000000 -0.068634
245863.000000 1.669501 238.000000 240.000000 133.000000 -0.088357 167.000000 0.036942 179.000000 -0.012073 221.000000 -0.023483 18.000000 -0.107555 103.000000 0.017755 127.000000 -0.066570
246278.000000 1.554075 175.000000 308.000000 71.000000 -0.767447 186.000000 0.102427 219.000000 0.012807 287.000000 -0.023430 13.000000 0.680313 23.000000 0.729905 40.000000 -0.455958
247627.000000 1.674656 289.000000 180.000000 131.000000 -0.060455 159.000000 0.165924 145.000000 -0.022274 152.000000 0.022287 13.000000 -0.035030 103.000000 0.046991 142.000000 -0.057822
248551.000000 1.394638 161.000000 318.000000 169.000000 0.038404 192.000000 0.078138 229.000000 0.002584 296.000000 -0.005381 20.000000 0.425639 23.000000 0.600764 64.000000 -0.645005
250193.000000 1.575521 334.000000 284.000000 135.000000 -0.091243 182.000000 0.026972 201.000000 -0.026239 268.000000 0.023792 17.000000 -0.074419 110.000000 0.075040 140.000000 -0.085349
251582.000000 1.588646 209.000000 179.000000 139.000000 -0.049309 158.000000 0.147507 143.000000 -0.013103 150.000000 -0.010815 14.000000 -0.085914 106.000000 0.003244 139.000000 -0.049309
254915.000000 1.413073 163.000000 281.000000 116.000000 -0.020947 170.000000 0.090863 178.000000 0.044454 263.000000 0.010517 21.000000 0.452318 25.000000 0.706157 71.000000 -0.594928
258923.000000 1.476180 177.000000 261.000000 173.000000 0.077118 198.000000 0.107414 213.000000 0.050673 244.000000 -0.000687 21.000000 0.472760 25.000000 0.802197 74.000000 -0.771992
259184.000000 1.614783 261.000000 220.000000 138.000000 -0.080297 165.000000 0.008320 177.000000 -0.033781 204.000000 -0.027400 14.000000 -0.031706 99.000000 0.031821 125.000000 -0.089419
260117.000000 1.611349 235.000000 180.000000 109.000000 0.040908 159.000000 0.360034 142.000000 -0.043887 149.000000 0.061239 18.000000 -0.141362 107.000000 0.051896 134.000000 -0.054106
260610.000000 1.593233 313.000000 223.000000 160.000000 -0.013649 191.000000 0.036570 193.000000 -0.054089 200.000000 -0.021486 16.000000 -0.074855 106.000000 0.054362 136.000000 -0.088632
261243.000000 1.864233 163.000000 283.000000 231.000000 0.073776 254.000000 0.255892 252.000000 0.098479 259.000000 -0.232227 20.000000 0.336866 23.000000 0.556209 43.000000 -0.501956
261526.000000 1.522916 283.000000 251.000000 178.000000 -0.006912 207.000000 0.153764 231.000000 -0.002287 235.000000 -0.039216 15.000000 -0.056753 128.000000 0.179124 145.000000 -0.046990
261944.000000 1.402839 167.000000 323.000000 251.000000 -0.039244 278.000000 0.193231 296.000000 0.042243 304.000000 -0.063589 21.000000 0.450439 26.000000 0.566803 66.000000 -0.597400
262267.000000 1.488964 323.000000 293.000000 231.000000 -0.070737 269.000000 0.103982 268.000000 0.072979 275.000000 -0.007412 16.000000 -0.079170 110.000000 0.268966 130.000000 -0.010706
262738.000000 1.376819 178.000000 332.000000 136.000000 -0.076337 204.000000 0.080295 240.000000 0.033276 318.000000 0.029486 9.000000 0.858293 25.000000 0.544124 72.000000 -0.614656
264366.000000 1.457820 236.000000 249.000000 100.000000 0.034831 166.000000 0.009737 176.000000 -0.026266 232.000000 -0.004969 15.000000 -0.082584 105.000000 0.036869 157.000000 -0.041346
266500.000000 1.520694 230.000000 257.000000 208.000000 -0.039623 233.000000 0.009152 235.000000 -0.001396 240.000000 0.012492 15.000000 -0.051264 84.000000 -0.015104 105.000000 -0.080262
267209.000000 1.500566 224.000000 259.000000 122.000000 -0.064322 167.000000 0.001774 197.000000 -0.038353 240.000000 -0.055624 16.000000 -0.058415 94.000000 0.063954 136.000000 -0.096783
268984.000000 1.463618 277.000000 234.000000 144.000000 -0.093523 167.000000 -0.017618 177.000000 -0.032806 217.000000 -0.028434 16.000000 -0.054547 100.000000 0.040710 138.000000 -0.090386
271593.000000 1.422928 361.000000 417.000000 355.000000 -0.053575 395.000000 0.022758 402.000000 0.042555 407.000000 0.191756 17.000000 -0.066539 107.000000 0.146399 147.000000 -0.010509
275562.000000 1.471605 373.000000 253.000000 148.000000 -0.111333 186.000000 0.008024 206.000000 -0.072053 237.000000 -0.046331 15.000000 -0.065681 90.000000 0.093643 104.000000 0.039550
281284.000000 1.550506 471.000000 251.000000 129.000000 -0.121295 163.000000 0.013526 184.000000 -0.054799 234.000000 -0.026553 15.000000 -0.091814 103.000000 0.066275 141.000000 -0.079370
282126.000000 1.499091 356.000000 274.000000 130.000000 -0.077579 166.000000 0.004757 181.000000 -0.050369 256.000000 0.003311 14.000000 -0.058823 100.000000 0.122984 135.000000 -0.101577
283761.000000 1.405819 223.000000 239.000000 131.000000 -0.070674 168.000000 0.027912 181.000000 -0.021977 232.000000 0.343823 13.000000 -0.054102 91.000000 0.017025 123.000000 -0.091442
285426.000000 1.510568 217.000000 376.000000 202.000000 0.023784 255.000000 -0.008949 279.000000 -0.048075 356.000000 -0.010596 15.000000 -0.081595 94.000000 0.084972 121.000000 -0.053460
288235.000000 1.598107 240.000000 261.000000 125.000000 -0.102633 164.000000 0.011099 198.000000 -0.062258 243.000000 -0.038900 14.000000 -0.066359 97.000000 0.102952 135.000000 -0.123887
288663.000000 1.492069 167.000000 499.000000 388.000000 -0.058164 432.000000 0.020678 441.000000 -0.020153 480.000000 -0.007143 20.000000 0.252195 24.000000 0.525629 71.000000 -0.563238
289413.000000 1.567492 251.000000 167.000000 115.000000 -0.035720 146.000000 0.101803 125.000000 -0.060706 132.000000 -0.022870 16.000000 -0.178494 96.000000 0.029075 120.000000 -0.033072
290115.000000 1.587871 242.000000 404.000000 316.000000 -0.058766 354.000000 0.004542 377.000000 -0.028575 384.000000 -0.005439 13.000000 -0.078070 102.000000 0.094905 128.000000 -0.041789
292623.000000 1.748922 405.000000 254.000000 140.000000 -0.089813 167.000000 0.055374 199.000000 -0.036364 236.000000 -0.073072 16.000000 -0.041518 113.000000 0.060452 148.000000 -0.112102
294997.000000 1.496991 167.000000 295.000000 176.000000 0.082253 199.000000 0.078913 222.000000 -0.021855 274.000000 -0.059285 6.000000 1.313808 26.000000 0.709749 62.000000 -0.570155
295768.000000 1.796282 228.000000 343.000000 297.000000 -0.080156 322.000000 0.040909 317.000000 -0.016881 324.000000 0.015079 16.000000 -0.097701 87.000000 0.163363 119.000000 -0.044113
297272.000000 1.784057 399.000000 336.000000 244.000000 -0.057632 275.000000 0.010142 282.000000 -0.037867 318.000000 -0.018415 15.000000 -0.048278 102.000000 0.085778 136.000000 -0.114377
297608.000000 1.618653 336.000000 326.000000 279.000000 -0.033182 299.000000 0.009763 307.000000 -0.046679 311.000000 -0.001867 16.000000 -0.102506 107.000000 0.121140 167.000000 0.053664
298752.000000 1.642920 356.000000 221.000000 130.000000 -0.134864 163.000000 -0.006947 169.000000 -0.022887 202.000000 -0.036645 15.000000 -0.076300 97.000000 0.101796 143.000000 -0.105335
301526.000000 1.573683 393.000000 245.000000 142.000000 -0.046288 172.000000 0.040201 194.000000 -0.032277 228.000000 -0.053669 14.000000 -0.063387 113.000000 0.089556 143.000000 -0.056069
302024.000000 1.543729 253.000000 178.000000 134.000000 -0.074375 157.000000 0.119012 159.000000 0.177555 166.000000 0.552288 12.000000 -0.099406 105.000000 0.057098 134.000000 -0.074375
308712.000000 1.519232 295.000000 158.000000 31.000000 -0.241364 95.000000 0.095500 124.000000 -0.072023 125.000000 -0.061804 14.000000 -0.159217 93.000000 0.078886 124.000000 -0.072023
310482.000000 1.517021 265.000000 413.000000 350.000000 -0.058307 382.000000 0.000315 391.000000 -0.025440 393.000000 -0.035581 14.000000 -0.051804 107.000000 0.106707 137.000000 -0.035924
315216.000000 1.449609 292.000000 223.000000 127.000000 -0.061706 171.000000 0.041331 176.000000 0.010877 206.000000 -0.022495 16.000000 -0.042679 100.000000 0.089048 122.000000 -0.061644
321987.000000 1.489438 359.000000 226.000000 147.000000 -0.046268 185.000000 0.034782 194.000000 0.000080 211.000000 -0.020486 13.000000 -0.007568 101.000000 0.072826 134.000000 -0.085719
323342.000000 1.388933 180.000000 357.000000 122.000000 -0.093800 228.000000 0.031191 243.000000 -0.040219 342.000000 -0.004219 21.000000 0.326130 25.000000 0.558951 114.000000 -0.058674
323977.000000 1.260931 278.000000 163.000000 33.000000 -0.259151 142.000000 0.134750 139.000000 0.115393 146.000000 0.353935 15.000000 -0.143695 96.000000 0.017758 128.000000 0.002914
325509.000000 1.561945 226.000000 289.000000 134.000000 -0.129402 178.000000 0.024205 201.000000 -0.052944 275.000000 0.041712 15.000000 -0.068274 101.000000 0.072229 134.000000 -0.129402
326718.000000 1.392146 154.000000 422.000000 368.000000 -0.038240 397.000000 0.011791 401.000000 -0.015075 406.000000 0.003310 19.000000 0.314324 22.000000 0.405374 138.000000 -0.015444
327876.000000 1.462540 221.000000 168.000000 124.000000 -0.085877 146.000000 0.121318 131.000000 -0.093494 138.000000 -0.036347 13.000000 -0.101614 97.000000 0.077948 128.000000 -0.054420
330428.000000 1.541798 226.000000 220.000000 143.000000 -0.038585 173.000000 0.087244 188.000000 -0.000046 204.000000 -0.045517 16.000000 -0.136116 102.000000 0.038623 127.000000 -0.087471
333287.000000 1.591447 210.000000 270.000000 148.000000 -0.065659 176.000000 0.008105 193.000000 -0.026910 254.000000 -0.011784 15.000000 -0.087753 98.000000 0.117435 148.000000 -0.065659
334472.000000 1.479043 170.000000 407.000000 272.000000 -0.081297 299.000000 -0.004482 313.000000 -0.063480 388.000000 -0.039848 20.000000 0.272196 24.000000 0.582759 50.000000 -0.491067
335091.000000 1.598715 212.000000 229.000000 139.000000 -0.051006 165.000000 0.000168 172.000000 -0.031366 213.000000 0.004026 14.000000 -0.029872 88.000000 0.022352 114.000000 -0.117901
336103.000000 1.580659 292.000000 278.000000 137.000000 -0.077534 178.000000 0.023061 222.000000 -0.036960 261.000000 -0.039079 16.000000 -0.030844 107.000000 0.096513 137.000000 -0.077534
336381.000000 1.592643 278.000000 238.000000 141.000000 -0.097826 177.000000 0.008228 191.000000 -0.058057 221.000000 -0.074090 15.000000 -0.000806 110.000000 0.054680 141.000000 -0.097826
339142.000000 1.448215 159.000000 312.000000 181.000000 0.077885 218.000000 0.074783 262.000000 -0.073304 293.000000 -0.047413 20.000000 0.367366 25.000000 0.675736 71.000000 -0.649218
343306.000000 1.539416 337.000000 230.000000 144.000000 -0.030034 168.000000 0.037505 194.000000 -0.019141 213.000000 -0.028733 14.000000 -0.043265 102.000000 0.055775 132.000000 -0.046369
347469.000000 1.835109 390.000000 202.000000 143.000000 -0.125125 179.000000 0.029112 172.000000 0.008295 179.000000 0.029112 15.000000 -0.098027 102.000000 0.073476 151.000000 -0.120955
350377.000000 1.529296 272.000000 163.000000 101.000000 0.001932 141.000000 0.115597 122.000000 -0.102725 129.000000 -0.018227 16.000000 -0.235168 96.000000 0.011555 112.000000 -0.025655
350540.000000 1.501693 163.000000 323.000000 180.000000 0.071335 204.000000 0.127508 217.000000 0.010956 306.000000 -0.017491 20.000000 0.387383 24.000000 0.730487 47.000000 -0.444153
354919.000000 1.362590 162.000000 349.000000 174.000000 0.091157 215.000000 0.027446 235.000000 -0.021347 332.000000 -0.033593 20.000000 0.318623 25.000000 0.558372 48.000000 -0.466238
355268.000000 1.551159 349.000000 230.000000 105.000000 0.066810 167.000000 0.051426 183.000000 -0.000705 211.000000 0.017007 14.000000 -0.037695 105.000000 0.066810 166.000000 0.046003
355758.000000 1.690063 260.000000 227.000000 172.000000 -0.077350 205.000000 0.005908 204.000000 -0.003951 211.000000 -0.000158 13.000000 0.010705 103.000000 0.041179 128.000000 -0.094591
356897.000000 1.436572 234.000000 221.000000 177.000000 -0.016205 193.000000 0.031771 197.000000 -0.010221 202.000000 -0.014060 15.000000 -0.051202 92.000000 -0.014652 102.000000 -0.036126
358017.000000 1.527524 399.000000 337.000000 280.000000 -0.025151 315.000000 0.013579 311.000000 -0.006907 318.000000 -0.005794 14.000000 0.022916 112.000000 0.037644 135.000000 -0.102325
358807.000000 1.477855 212.000000 236.000000 192.000000 -0.019406 215.000000 -0.004328 216.000000 -0.010487 221.000000 -0.003498 17.000000 -0.096581 90.000000 0.014056 93.000000 -0.006618
359751.000000 1.409499 281.000000 171.000000 110.000000 0.036095 150.000000 0.253180 154.000000 0.488791 161.000000 1.040373 13.000000 -0.081881 99.000000 -0.022825 117.000000 0.020202
360533.000000 1.502100 241.000000 243.000000 131.000000 -0.117770 170.000000 0.023763 191.000000 -0.034181 228.000000 -0.050783 15.000000 -0.030735 97.000000 0.032871 146.000000 -0.046830
360776.000000 1.490972 243.000000 161.000000 101.000000 0.075989 140.000000 0.088811 120.000000 0.006366 127.000000 -0.055907 14.000000 -0.150220 94.000000 0.074906 101.000000 0.075989
361271.000000 1.506540 334.000000 242.000000 126.000000 -0.069322 169.000000 0.055129 215.000000 -0.039886 224.000000 0.005051 16.000000 -0.072976 103.000000 0.052025 134.000000 -0.105546
361513.000000 1.466632 242.000000 397.000000 246.000000 -0.068769 283.000000 0.081956 312.000000 -0.035563 380.000000 -0.055455 13.000000 -0.079514 107.000000 0.069181 153.000000 -0.016900
361910.000000 1.467238 397.000000 278.000000 141.000000 -0.097343 184.000000 0.019657 220.000000 -0.036992 259.000000 -0.025238 16.000000 -0.031507 106.000000 0.062611 147.000000 -0.096560
362352.000000 1.399172 164.000000 323.000000 209.000000 0.060674 229.000000 0.071131 250.000000 -0.041863 305.000000 0.002853 20.000000 0.341052 24.000000 0.586507 48.000000 -0.446971
362675.000000 1.402650 323.000000 320.000000 182.000000 0.003161 211.000000 -0.005598 221.000000 -0.052102 303.000000 -0.032773 14.000000 -0.025156 103.000000 0.122414 142.000000 -0.040756
362995.000000 1.416194 320.000000 220.000000 176.000000 -0.032648 198.000000 0.027117 196.000000 -0.017491 203.000000 0.016005 7.000000 -0.054997 95.000000 0.046460 124.000000 -0.023151
363215.000000 1.519361 220.000000 257.000000 93.000000 0.029467 168.000000 0.028558 185.000000 -0.046365 238.000000 -0.059373 15.000000 -0.015702 84.000000 0.064687 93.000000 0.029467
364178.000000 1.781912 244.000000 228.000000 144.000000 -0.141925 172.000000 0.025471 180.000000 -0.010046 210.000000 -0.054576 17.000000 -0.090046 100.000000 0.003828 140.000000 -0.153555
364406.000000 1.812634 228.000000 263.000000 129.000000 -0.144181 172.000000 0.030615 198.000000 -0.055312 247.000000 -0.041755 16.000000 -0.046739 100.000000 0.066241 142.000000 -0.098022
364836.000000 1.413006 167.000000 315.000000 178.000000 0.101930 205.000000 0.124359 217.000000 0.053699 295.000000 -0.002465 14.000000 0.514668 24.000000 0.539717 62.000000 -0.603554
366347.000000 1.331179 163.000000 348.000000 172.000000 0.099644 210.000000 0.101696 254.000000 -0.023213 328.000000 -0.033011 20.000000 0.358547 23.000000 0.442748 118.000000 -0.116733
366695.000000 1.496474 348.000000 237.000000 153.000000 -0.068068 189.000000 0.016585 200.000000 -0.013383 221.000000 0.001005 15.000000 -0.053212 113.000000 0.030773 138.000000 -0.042660
367916.000000 1.284247 235.000000 182.000000 103.000000 0.025249 161.000000 0.225780 162.000000 0.229856 164.000000 0.276282 13.000000 -0.071725 93.000000 0.064746 128.000000 -0.087918
368381.000000 1.416099 283.000000 170.000000 110.000000 0.039453 149.000000 0.132492 132.000000 -0.017382 139.000000 -0.023480 14.000000 -0.076691 101.000000 0.011788 125.000000 -0.016943
371009.000000 1.501880 361.000000 295.000000 152.000000 -0.083519 186.000000 -0.005623 203.000000 -0.035516 278.000000 -0.025064 14.000000 -0.051944 107.000000 0.123425 152.000000 -0.083519
372706.000000 1.435583 177.000000 337.000000 189.000000 0.038889 217.000000 0.031836 231.000000 -0.009076 320.000000 -0.017168 21.000000 0.333026 25.000000 0.547932 65.000000 -0.545708
375869.000000 1.622398 339.000000 236.000000 127.000000 -0.147584 167.000000 0.015362 181.000000 -0.050986 219.000000 -0.010750 19.000000 -0.108638 101.000000 0.046206 127.000000 -0.147584
380036.000000 1.325691 184.000000 288.000000 141.000000 -0.061738 193.000000 0.146694 207.000000 0.041396 271.000000 0.009185 20.000000 0.482542 24.000000 0.641225 76.000000 -0.702208
380777.000000 1.617383 226.000000 167.000000 101.000000 0.043779 146.000000 0.075472 128.000000 -0.061285 135.000000 -0.048917 15.000000 -0.197694 99.000000 0.056177 120.000000 -0.053102
384223.000000 1.782148 397.000000 267.000000 106.000000 0.051006 169.000000 0.044504 202.000000 -0.093225 250.000000 -0.059811 14.000000 -0.002414 106.000000 0.051006 168.000000 0.034535
385710.000000 1.815391 343.000000 266.000000 147.000000 -0.098416 186.000000 -0.005613 222.000000 -0.102571 247.000000 -0.010471 15.000000 -0.068995 97.000000 0.079894 147.000000 -0.098416
386436.000000 1.517648 168.000000 343.000000 294.000000 0.053902 322.000000 0.669466 311.000000 0.269685 318.000000 0.524843 21.000000 0.311705 25.000000 0.601031 69.000000 -0.598392
387185.000000 1.393401 166.000000 329.000000 178.000000 0.042549 199.000000 0.061108 202.000000 0.037989 310.000000 -0.036082 19.000000 0.372712 23.000000 0.627320 105.000000 -0.099566
387914.000000 1.646100 400.000000 330.000000 268.000000 -0.054515 292.000000 -0.014513 304.000000 -0.041254 308.000000 -0.061597 13.000000 0.002260 107.000000 0.068688 142.000000 -0.032049
395314.000000 1.520000 258.000000 157.000000 49.000000 -0.208213 96.000000 0.101521 124.000000 -0.054889 145.000000 0.488575 15.000000 -0.190957 93.000000 0.112697 124.000000 -0.054889
396396.000000 1.698009 256.000000 245.000000 190.000000 -0.004061 216.000000 0.124828 218.000000 -0.070438 225.000000 -0.015986 15.000000 -0.085079 107.000000 0.067302 138.000000 -0.134974
398032.000000 1.392005 166.000000 398.000000 130.000000 -0.016950 239.000000 0.025303 285.000000 -0.040503 376.000000 -0.034628 19.000000 0.444562 24.000000 0.682024 76.000000 -0.694837
400910.000000 1.521504 309.000000 236.000000 150.000000 -0.076537 182.000000 0.030000 200.000000 -0.006004 220.000000 -0.059139 14.000000 -0.012320 116.000000 0.074446 150.000000 -0.076537
401146.000000 1.395296 236.000000 462.000000 264.000000 0.029735 294.000000 0.039944 318.000000 -0.023364 445.000000 -0.020456 11.000000 -0.082150 108.000000 0.051930 138.000000 -0.069593
404622.000000 1.364939 282.000000 158.000000 41.000000 -0.193260 100.000000 0.104375 124.000000 -0.011659 135.000000 0.092480 16.000000 -0.129796 93.000000 0.087165 124.000000 -0.011659
405317.000000 1.402960 243.000000 267.000000 135.000000 -0.099121 173.000000 -0.008335 203.000000 -0.029797 248.000000 -0.014390 15.000000 -0.057587 100.000000 0.054027 126.000000 -0.108729
406131.000000 1.503837 371.000000 239.000000 142.000000 -0.053914 167.000000 0.025613 194.000000 -0.048666 220.000000 -0.022413 14.000000 -0.043623 102.000000 0.088717 142.000000 -0.053914
406779.000000 1.353276 165.000000 409.000000 306.000000 -0.045625 342.000000 0.014842 351.000000 -0.026443 388.000000 0.009920 20.000000 0.404797 24.000000 0.598779 50.000000 -0.473963
408610.000000 1.466663 251.000000 160.000000 52.000000 -0.199639 100.000000 0.110252 126.000000 -0.080296 148.000000 0.407086 15.000000 -0.154623 94.000000 0.117054 126.000000 -0.080296
409071.000000 1.469278 301.000000 222.000000 149.000000 -0.041163 179.000000 0.028242 187.000000 -0.018954 205.000000 -0.028890 14.000000 -0.045643 107.000000 0.025154 147.000000 -0.071932
409293.000000 1.509700 222.000000 243.000000 133.000000 -0.098641 167.000000 0.053493 180.000000 0.004199 227.000000 -0.000943 14.000000 -0.104421 107.000000 0.001610 133.000000 -0.098641
410396.000000 1.632269 323.000000 163.000000 110.000000 0.046974 142.000000 0.107274 127.000000 -0.060361 134.000000 -0.041599 14.000000 -0.089720 96.000000 0.075815 123.000000 -0.077602
411132.000000 1.737510 231.000000 234.000000 118.000000 -0.155437 187.000000 -0.015815 210.000000 -0.065910 216.000000 -0.033402 14.000000 -0.081454 92.000000 0.050317 149.000000 -0.084011
411366.000000 1.730892 234.000000 175.000000 123.000000 -0.056776 154.000000 0.202379 158.000000 0.503288 165.000000 1.161518 15.000000 -0.090801 104.000000 0.085983 133.000000 -0.040679
412418.000000 1.742794 250.000000 174.000000 107.000000 0.097728 153.000000 0.168182 149.000000 0.117915 156.000000 0.342054 14.000000 -0.048619 103.000000 0.075173 107.000000 0.097728
412592.000000 1.615987 174.000000 328.000000 185.000000 0.078591 221.000000 0.079231 239.000000 0.018855 313.000000 -0.000080 20.000000 0.617118 24.000000 0.806804 47.000000 -0.573117
413207.000000 1.615829 287.000000 164.000000 119.000000 -0.027963 143.000000 0.123229 133.000000 0.014467 140.000000 0.097132 13.000000 -0.079750 97.000000 0.040217 104.000000 0.066299
414387.000000 1.652730 233.000000 308.000000 220.000000 -0.018026 243.000000 -0.010173 257.000000 -0.060269 289.000000 -0.029481 13.000000 -0.046189 100.000000 0.075538 135.000000 -0.044510
415912.000000 1.422650 248.000000 166.000000 30.000000 -0.319245 100.000000 0.286017 123.000000 0.005688 134.000000 -0.015456 15.000000 -0.167099 92.000000 0.350109 123.000000 0.005688
418459.000000 1.555720 261.000000 296.000000 248.000000 -0.103324 275.000000 -0.013467 270.000000 -0.059375 277.000000 -0.038436 15.000000 -0.066255 101.000000 0.083776 148.000000 -0.106537
419075.000000 1.617696 320.000000 234.000000 96.000000 0.057951 168.000000 0.005743 198.000000 -0.037081 217.000000 -0.019591 15.000000 -0.078950 96.000000 0.057951 166.000000 -0.014680
420215.000000 1.525567 235.000000 252.000000 179.000000 -0.033482 198.000000 -0.012618 210.000000 -0.037445 234.000000 -0.031096 12.000000 -0.137174 91.000000 0.079600 141.000000 -0.122852
420467.000000 1.555488 252.000000 269.000000 134.000000 -0.102116 162.000000 -0.013592 173.000000 -0.036069 253.000000 -0.013451 14.000000 -0.044983 102.000000 0.087005 134.000000 -0.102116
425487.000000 1.885518 342.000000 249.000000 153.000000 -0.241018 170.000000 0.360204 180.000000 -0.006128 225.000000 -0.229310 17.000000 -0.001896 21.000000 0.156507 26.000000 -0.162851
425736.000000 1.622601 249.000000 238.000000 174.000000 -0.022774 199.000000 0.224060 208.000000 0.087524 225.000000 0.225815 16.000000 -0.092023 105.000000 0.207933 124.000000 -0.009012
426504.000000 1.650063 356.000000 328.000000 172.000000 -0.052758 197.000000 0.101020 211.000000 -0.076910 311.000000 -0.009276 15.000000 -0.089059 111.000000 0.144669 142.000000 -0.027398
426832.000000 1.650002 328.000000 245.000000 137.000000 -0.098759 168.000000 0.062977 180.000000 0.045924 228.000000 -0.007415 15.000000 -0.028885 109.000000 0.042324 145.000000 -0.117661
430138.000000 1.865549 237.000000 292.000000 155.000000 -0.096883 186.000000 -0.042649 215.000000 -0.085483 273.000000 -0.037461 15.000000 -0.087258 89.000000 0.106406 90.000000 0.096735
430736.000000 1.732443 306.000000 163.000000 92.000000 0.050047 142.000000 0.122449 129.000000 -0.054214 136.000000 -0.018696 17.000000 -0.180802 96.000000 0.069688 127.000000 -0.024339
430899.000000 1.552355 163.000000 333.000000 183.000000 0.025411 222.000000 0.029110 261.000000 -0.078024 310.000000 -0.054451 19.000000 0.268580 23.000000 0.588079 41.000000 -0.434631
437007.000000 1.511663 497.000000 162.000000 71.000000 -0.081928 101.000000 0.098010 118.000000 0.050613 131.000000 -0.015030 12.000000 -0.158965 94.000000 0.016317 118.000000 0.050613
438109.000000 1.420661 192.000000 302.000000 138.000000 -0.026593 204.000000 0.141286 247.000000 -0.004530 285.000000 -0.040281 19.000000 0.560095 23.000000 0.658824 78.000000 -0.744358
439411.000000 1.795399 339.000000 306.000000 260.000000 -0.069218 283.000000 -0.017745 280.000000 -0.063622 287.000000 -0.027212 13.000000 0.012043 103.000000 0.103302 134.000000 -0.084033
439717.000000 1.736818 306.000000 176.000000 103.000000 0.062681 155.000000 0.137805 155.000000 0.137805 162.000000 0.558025 14.000000 -0.093024 102.000000 0.065722 132.000000 -0.052618
440624.000000 1.883399 405.000000 221.000000 157.000000 -0.050136 178.000000 0.031493 200.000000 -0.049827 205.000000 -0.057086 14.000000 -0.046021 101.000000 0.044169 127.000000 -0.091659
441069.000000 1.914799 224.000000 167.000000 50.000000 -0.272871 104.000000 0.087099 123.000000 -0.055910 146.000000 0.058730 13.000000 -0.092571 94.000000 0.079247 118.000000 -0.074562
442502.000000 1.753653 249.000000 277.000000 141.000000 -0.083839 179.000000 0.019057 191.000000 -0.010221 260.000000 -0.030285 17.000000 -0.083903 102.000000 0.052461 125.000000 -0.103260
442779.000000 1.528134 277.000000 160.000000 64.000000 -0.159986 139.000000 0.131944 138.000000 0.111630 145.000000 0.398606 15.000000 -0.075094 95.000000 0.073557 127.000000 -0.019890
442939.000000 1.452462 160.000000 305.000000 147.000000 -0.071226 185.000000 0.110907 207.000000 0.024199 288.000000 0.024479 13.000000 0.391130 22.000000 0.485503 45.000000 -0.485940
445773.000000 1.510475 298.000000 426.000000 353.000000 -0.020612 387.000000 0.012086 406.000000 0.010706 412.000000 0.010879 16.000000 -0.034713 111.000000 0.122923 131.000000 -0.059474
446199.000000 1.569893 426.000000 264.000000 142.000000 -0.111122 182.000000 0.025398 206.000000 -0.027001 250.000000 -0.019198 12.000000 0.032763 105.000000 0.071105 142.000000 -0.111122
446463.000000 1.417523 264.000000 267.000000 141.000000 -0.095668 188.000000 -0.006814 207.000000 -0.042930 250.000000 -0.033731 12.000000 -0.080112 104.000000 0.084641 138.000000 -0.106781
447377.000000 1.492322 233.000000 283.000000 227.000000 -0.099249 252.000000 0.008636 265.000000 0.014215 268.000000 -0.013089 13.000000 -0.047038 90.000000 0.113934 130.000000 -0.138905
447660.000000 1.450250 283.000000 160.000000 48.000000 -0.182227 101.000000 0.121175 128.000000 -0.056350 133.000000 -0.050363 12.000000 -0.075485 95.000000 0.129137 128.000000 -0.056350
449260.000000 1.409936 162.000000 313.000000 128.000000 -0.054790 192.000000 0.085612 211.000000 0.046770 296.000000 0.035108 19.000000 0.357773 23.000000 0.475846 40.000000 -0.411942
451174.000000 1.274218 243.000000 170.000000 45.000000 -0.262352 149.000000 0.123182 150.000000 0.158496 157.000000 0.493386 13.000000 -0.080862 101.000000 0.043291 135.000000 -0.007961
452706.000000 1.259028 252.000000 491.000000 268.000000 -0.020115 303.000000 0.020481 318.000000 -0.024254 473.000000 -0.018467 16.000000 -0.013558 111.000000 0.069255 141.000000 -0.018317
456020.000000 1.342868 241.000000 250.000000 131.000000 -0.098776 167.000000 -0.001438 177.000000 -0.018020 235.000000 -0.008117 14.000000 -0.060031 103.000000 0.026462 133.000000 -0.082882
457576.000000 1.377905 264.000000 288.000000 147.000000 -0.093694 201.000000 -0.019072 212.000000 -0.045341 272.000000 -0.039293 12.000000 -0.034681 106.000000 0.104959 138.000000 -0.091138
457864.000000 1.290143 288.000000 159.000000 38.000000 -0.228730 106.000000 0.107916 120.000000 -0.030250 144.000000 0.359906 13.000000 -0.116159 94.000000 0.060518 120.000000 -0.030250
458023.000000 1.440079 159.000000 403.000000 218.000000 0.058941 242.000000 0.021526 262.000000 -0.059446 388.000000 0.002101 8.000000 0.985189 23.000000 0.408200 42.000000 -0.429055
458426.000000 1.425862 403.000000 243.000000 106.000000 0.127929 173.000000 0.048167 194.000000 -0.050329 225.000000 -0.045091 13.000000 -0.011709 108.000000 0.133525 164.000000 0.025331
461671.000000 1.448874 250.000000 260.000000 148.000000 -0.078774 185.000000 -0.017352 194.000000 -0.056819 242.000000 -0.050314 12.000000 -0.090796 95.000000 0.105554 144.000000 -0.060200
462101.000000 1.402538 170.000000 294.000000 139.000000 -0.086543 193.000000 0.078418 209.000000 0.029484 278.000000 -0.002817 8.000000 0.889591 24.000000 0.544433 40.000000 -0.345537
464577.000000 1.437901 226.000000 272.000000 125.000000 -0.120877 182.000000 0.004801 190.000000 -0.025465 252.000000 -0.040781 14.000000 -0.070437 98.000000 0.055220 125.000000 -0.120877
466401.000000 1.446744 263.000000 257.000000 201.000000 -0.038073 236.000000 0.004404 240.000000 -0.011302 243.000000 0.008511 16.000000 -0.041689 92.000000 0.018864 132.000000 -0.093992
469499.000000 1.613370 214.000000 471.000000 415.000000 -0.042274 448.000000 0.028229 446.000000 -0.006552 453.000000 -0.012179 13.000000 -0.040643 95.000000 0.084408 130.000000 -0.027959
470392.000000 1.617085 422.000000 235.000000 144.000000 -0.091813 180.000000 0.007638 188.000000 -0.022849 219.000000 -0.039588 15.000000 -0.062744 114.000000 0.041308 149.000000 -0.086672
470883.000000 1.427949 256.000000 162.000000 58.000000 -0.186563 102.000000 0.122290 117.000000 -0.018964 138.000000 0.069421 14.000000 -0.128055 90.000000 0.081413 117.000000 -0.018964
472266.000000 1.698873 235.000000 241.000000 174.000000 -0.045002 201.000000 -0.015627 209.000000 -0.068089 224.000000 -0.022572 13.000000 -0.048822 105.000000 0.048639 136.000000 -0.088089
473225.000000 1.551054 231.000000 221.000000 135.000000 -0.076253 166.000000 0.013665 173.000000 -0.014187 200.000000 -0.039575 14.000000 -0.065655 93.000000 0.017215 123.000000 -0.067098
479329.000000 1.639861 260.000000 380.000000 331.000000 -0.048118 353.000000 0.013403 355.000000 -0.006362 358.000000 -0.011048 14.000000 -0.050951 101.000000 0.097738 150.000000 -0.002372
482466.000000 1.593522 471.000000 268.000000 143.000000 -0.059420 168.000000 0.027790 189.000000 -0.035832 252.000000 -0.039215 17.000000 -0.047544 107.000000 0.130045 138.000000 -0.041206
484433.000000 1.295674 319.000000 228.000000 133.000000 -0.058730 168.000000 -0.001318 176.000000 -0.058591 211.000000 -0.029780 14.000000 -0.014482 108.000000 0.076225 145.000000 -0.036302
485381.000000 1.575580 478.000000 471.000000 252.000000 -0.008262 293.000000 0.024862 317.000000 -0.051328 452.000000 -0.016142 13.000000 0.011303 119.000000 0.141363 179.000000 0.093853
486080.000000 1.640646 228.000000 300.000000 245.000000 -0.082177 272.000000 -0.001346 280.000000 -0.014795 283.000000 -0.034341 15.000000 -0.051972 93.000000 0.150802 124.000000 -0.058053
488381.000000 1.345345 447.000000 257.000000 144.000000 -0.085002 173.000000 0.044182 192.000000 -0.051429 236.000000 -0.077666 15.000000 -0.013936 107.000000 0.059857 144.000000 -0.085002
492728.000000 1.364185 165.000000 300.000000 134.000000 -0.063002 187.000000 0.066759 197.000000 0.032164 282.000000 0.001081 19.000000 0.282541 24.000000 0.572196 51.000000 -0.487298
493028.000000 1.467193 300.000000 231.000000 133.000000 -0.062324 175.000000 0.020233 189.000000 -0.026664 213.000000 -0.045158 13.000000 0.039528 97.000000 0.064072 128.000000 -0.088593
494052.000000 1.420626 266.000000 280.000000 113.000000 0.049315 183.000000 0.008389 186.000000 -0.016315 262.000000 -0.031034 16.000000 -0.039860 116.000000 0.072826 168.000000 -0.021313
494572.000000 1.594346 240.000000 343.000000 282.000000 -0.068418 309.000000 -0.015847 321.000000 -0.046883 326.000000 -0.042542 15.000000 -0.043570 100.000000 0.091778 121.000000 -0.053063
495238.000000 1.520937 323.000000 256.000000 144.000000 -0.069345 189.000000 0.006350 203.000000 -0.037728 239.000000 -0.019186 14.000000 -0.018814 94.000000 0.054271 106.000000 0.052157
496675.000000 1.440529 298.000000 163.000000 97.000000 0.084436 142.000000 0.116115 144.000000 0.181193 151.000000 0.507714 11.000000 -0.096539 96.000000 0.083339 103.000000 0.089750
498705.000000 1.305782 311.000000 161.000000 52.000000 -0.187619 140.000000 0.105735 132.000000 -0.025207 139.000000 0.070515 17.000000 -0.156286 94.000000 0.021782 130.000000 -0.020254
498866.000000 1.322225 161.000000 419.000000 292.000000 -0.030576 322.000000 0.010869 351.000000 -0.039747 399.000000 -0.016251 20.000000 0.233371 24.000000 0.452070 67.000000 -0.491770
501353.000000 1.400489 429.000000 236.000000 146.000000 -0.014230 181.000000 -0.007257 213.000000 -0.068119 217.000000 -0.033527 15.000000 -0.049479 104.000000 0.084644 133.000000 -0.031485
504335.000000 1.500201 325.000000 329.000000 283.000000 -0.053728 307.000000 0.000473 304.000000 -0.064291 311.000000 -0.014981 14.000000 -0.020992 110.000000 0.123474 151.000000 -0.054565
505490.000000 1.465487 243.000000 292.000000 144.000000 -0.097360 183.000000 -0.006533 200.000000 -0.060439 275.000000 -0.017349 13.000000 -0.032944 106.000000 0.113206 151.000000 -0.110338
506287.000000 1.561273 505.000000 268.000000 137.000000 -0.085739 179.000000 0.006917 203.000000 -0.052645 248.000000 -0.094103 14.000000 -0.004165 106.000000 0.120594 140.000000 -0.109596
507061.000000 1.456305 329.000000 347.000000 254.000000 -0.093005 292.000000 0.005441 301.000000 -0.026394 330.000000 -0.005704 16.000000 -0.012660 112.000000 0.167941 171.000000 0.007187
508340.000000 1.462744 341.000000 285.000000 238.000000 -0.062992 262.000000 -0.009074 263.000000 -0.018572 268.000000 -0.000373 13.000000 0.007022 111.000000 0.140271 151.000000 -0.070091
509327.000000 1.459434 279.000000 261.000000 143.000000 -0.092088 174.000000 -0.023122 187.000000 -0.058247 244.000000 -0.067746 16.000000 -0.066633 102.000000 0.124212 152.000000 -0.101602
512177.000000 1.483044 257.000000 161.000000 105.000000 0.067855 140.000000 0.084719 120.000000 0.007306 127.000000 -0.046409 14.000000 -0.138634 95.000000 0.045864 114.000000 0.036021
512338.000000 1.378760 161.000000 323.000000 207.000000 0.004583 228.000000 0.064630 251.000000 -0.013961 307.000000 -0.008554 20.000000 0.236094 24.000000 0.555279 47.000000 -0.421698
512934.000000 1.557871 273.000000 303.000000 254.000000 -0.075736 280.000000 -0.004357 277.000000 -0.050454 284.000000 -0.043370 17.000000 -0.044545 111.000000 0.092026 152.000000 -0.079552
515932.000000 1.612932 257.000000 288.000000 185.000000 -0.049608 210.000000 -0.026739 219.000000 -0.071598 267.000000 -0.053727 16.000000 -0.067866 101.000000 0.136188 164.000000 -0.049673
518212.000000 1.615819 258.000000 265.000000 218.000000 -0.094455 244.000000 -0.011618 247.000000 -0.031163 250.000000 -0.020395 13.000000 -0.094760 100.000000 0.119774 162.000000 -0.053543
519220.000000 1.688577 238.000000 251.000000 140.000000 -0.107596 167.000000 -0.008539 194.000000 -0.042020 234.000000 -0.057240 14.000000 -0.065622 107.000000 0.060821 140.000000 -0.107596
519471.000000 1.622102 251.000000 167.000000 104.000000 0.045097 146.000000 0.124907 143.000000 0.070173 150.000000 0.290956 17.000000 -0.178823 95.000000 0.037212 119.000000 0.038421
522050.000000 1.401959 182.000000 324.000000 172.000000 -0.026792 204.000000 0.068682 224.000000 -0.009953 304.000000 -0.034609 22.000000 0.323997 26.000000 0.673417 42.000000 -0.388088
524036.000000 1.683340 348.000000 243.000000 118.000000 0.035918 173.000000 -0.001663 190.000000 -0.022789 229.000000 -0.038274 15.000000 -0.017321 120.000000 0.046466 166.000000 -0.024281
524279.000000 1.640394 243.000000 301.000000 222.000000 -0.070611 272.000000 -0.016299 274.000000 -0.035734 282.000000 -0.059934 15.000000 -0.078104 105.000000 0.142752 138.000000 -0.114207
528536.000000 1.641425 279.000000 240.000000 107.000000 0.037602 167.000000 -0.032335 182.000000 -0.066818 219.000000 -0.076566 15.000000 -0.085252 108.000000 0.037822 163.000000 -0.063087
529927.000000 1.609217 250.000000 224.000000 110.000000 0.021710 162.000000 -0.001864 173.000000 -0.039387 207.000000 -0.042725 15.000000 -0.085438 109.000000 0.036569 140.000000 -0.055608
530379.000000 1.599182 228.000000 242.000000 150.000000 -0.067430 172.000000 0.016959 178.000000 0.015329 224.000000 -0.041943 16.000000 -0.062449 106.000000 0.025342 136.000000 -0.059422
532894.000000 1.543572 304.000000 297.000000 112.000000 0.085135 183.000000 0.004275 196.000000 -0.062085 279.000000 -0.022788 16.000000 -0.039108 111.000000 0.100245 148.000000 -0.123755
533901.000000 1.679043 238.000000 325.000000 285.000000 -0.013182 303.000000 0.008732 305.000000 0.007947 308.000000 0.026678 15.000000 -0.039545 105.000000 0.104675 130.000000 -0.065422
538538.000000 1.491516 271.000000 303.000000 173.000000 -0.038718 201.000000 -0.010804 221.000000 -0.052622 283.000000 -0.053266 16.000000 -0.034598 105.000000 0.134789 148.000000 -0.091070
539096.000000 1.396647 255.000000 345.000000 283.000000 -0.067810 321.000000 -0.004143 322.000000 -0.009300 329.000000 0.009619 13.000000 -0.017191 106.000000 0.119526 140.000000 -0.045615
542033.000000 1.320533 243.000000 240.000000 139.000000 -0.058998 168.000000 0.003633 176.000000 -0.033655 220.000000 -0.023919 14.000000 -0.015564 102.000000 0.042887 128.000000 -0.072382
543006.000000 1.306834 333.000000 280.000000 149.000000 -0.033457 173.000000 0.013717 198.000000 -0.027508 264.000000 0.006816 12.000000 0.003103 106.000000 0.083705 131.000000 -0.062124
543286.000000 1.319232 280.000000 295.000000 232.000000 -0.062355 272.000000 0.003147 272.000000 0.003147 279.000000 0.015734 14.000000 -0.020296 108.000000 0.139115 137.000000 -0.080559
543883.000000 1.387698 302.000000 263.000000 113.000000 0.048033 172.000000 -0.012850 193.000000 -0.073965 242.000000 -0.049357 12.000000 -0.012787 111.000000 0.053613 138.000000 -0.116685
545002.000000 1.426885 315.000000 243.000000 192.000000 -0.039076 222.000000 0.003950 218.000000 -0.034890 225.000000 -0.011944 10.000000 -0.080826 108.000000 0.032984 137.000000 -0.088007
547571.000000 1.605614 246.000000 356.000000 314.000000 -0.052440 335.000000 0.001964 330.000000 -0.043114 337.000000 -0.022958 16.000000 -0.038742 102.000000 0.130235 142.000000 -0.051136
549837.000000 1.494767 249.000000 402.000000 324.000000 -0.043231 349.000000 -0.012714 359.000000 -0.049485 382.000000 -0.035394 14.000000 -0.014746 103.000000 0.085148 132.000000 -0.052798
550239.000000 1.479183 402.000000 281.000000 149.000000 -0.053290 180.000000 -0.013591 196.000000 -0.039720 263.000000 -0.045361 14.000000 0.032365 115.000000 0.145783 149.000000 -0.053290
551207.000000 1.379308 517.000000 240.000000 54.000000 -0.142883 167.000000 -0.012778 185.000000 -0.043311 219.000000 -0.072369 12.000000 0.008039 106.000000 0.220172 152.000000 -0.088702
552827.000000 1.483902 256.000000 416.000000 301.000000 -0.036347 335.000000 0.001161 345.000000 -0.027758 396.000000 -0.036377 13.000000 -0.038575 107.000000 0.131026 136.000000 -0.013692
555258.000000 1.669752 232.000000 271.000000 150.000000 -0.081676 189.000000 -0.023839 223.000000 -0.115203 257.000000 -0.025482 14.000000 -0.085562 99.000000 0.127090 122.000000 -0.064700
555763.000000 1.631962 234.000000 311.000000 243.000000 -0.027430 284.000000 -0.015266 287.000000 -0.040846 293.000000 -0.037257 14.000000 -0.026531 99.000000 0.114428 130.000000 -0.062719
557963.000000 1.545328 230.000000 250.000000 152.000000 -0.052272 172.000000 -0.002460 193.000000 -0.047442 232.000000 -0.011583 18.000000 -0.123358 106.000000 0.043522 130.000000 -0.073748
558542.000000 1.657214 329.000000 305.000000 255.000000 -0.069464 283.000000 0.010738 286.000000 -0.044105 289.000000 -0.008822 14.000000 0.000146 103.000000 0.120646 130.000000 -0.022802
558847.000000 1.522979 305.000000 263.000000 151.000000 -0.096955 177.000000 0.002433 194.000000 -0.018525 245.000000 -0.052035 13.000000 0.018434 98.000000 0.066055 133.000000 -0.064967
559110.000000 1.566492 263.000000 401.000000 317.000000 -0.050923 357.000000 -0.013461 364.000000 -0.027192 383.000000 -0.022774 15.000000 0.030443 105.000000 0.101637 143.000000 -0.051733
559957.000000 1.441004 157.000000 359.000000 273.000000 -0.040566 296.000000 0.012944 305.000000 -0.036428 340.000000 -0.007276 19.000000 0.227662 23.000000 0.492709 43.000000 -0.429111
560577.000000 1.642212 261.000000 262.000000 135.000000 -0.086769 162.000000 -0.021188 179.000000 -0.033321 245.000000 -0.061207 14.000000 -0.050121 101.000000 0.057654 112.000000 0.021274
561448.000000 1.588101 289.000000 173.000000 127.000000 0.021222 152.000000 0.158809 156.000000 0.380768 163.000000 0.976646 15.000000 -0.102729 102.000000 0.060547 127.000000 0.021222
562594.000000 1.790722 248.000000 239.000000 141.000000 -0.067656 184.000000 -0.023396 194.000000 -0.047378 222.000000 -0.049856 16.000000 -0.070936 100.000000 0.064349 130.000000 -0.068440
564117.000000 1.763071 224.000000 185.000000 137.000000 -0.014497 164.000000 0.104484 167.000000 0.228701 174.000000 0.780363 13.000000 0.003541 102.000000 0.054437 132.000000 -0.021581
568405.000000 1.667004 375.000000 247.000000 162.000000 -0.034874 186.000000 -0.028400 196.000000 -0.085268 226.000000 -0.094642 16.000000 -0.074893 102.000000 0.111844 136.000000 -0.085566
568652.000000 1.671753 247.000000 223.000000 144.000000 -0.069261 162.000000 -0.032396 175.000000 -0.073996 203.000000 -0.042412 14.000000 -0.059126 95.000000 0.107292 136.000000 -0.065641
569425.000000 1.671721 290.000000 246.000000 153.000000 -0.077884 175.000000 -0.003242 197.000000 -0.059873 227.000000 -0.028058 14.000000 -0.037497 114.000000 0.063321 138.000000 -0.057948
570187.000000 1.598511 275.000000 325.000000 246.000000 -0.045048 275.000000 -0.024826 283.000000 -0.041299 306.000000 -0.010844 13.000000 0.000059 103.000000 0.109052 130.000000 -0.073300
574994.000000 1.605112 243.000000 294.000000 152.000000 -0.077636 184.000000 -0.009212 218.000000 -0.075481 277.000000 -0.049980 8.000000 -0.307018 100.000000 0.128654 130.000000 0.002367
575814.000000 1.543090 259.000000 324.000000 254.000000 -0.087880 288.000000 -0.012912 300.000000 -0.052944 305.000000 -0.057489 12.000000 -0.057238 107.000000 0.109261 136.000000 -0.055663
578939.000000 1.590545 231.000000 229.000000 170.000000 -0.046728 198.000000 -0.015443 202.000000 -0.046462 207.000000 -0.042354 11.000000 -0.030174 96.000000 0.051051 120.000000 -0.034374
582870.000000 1.434375 239.000000 229.000000 135.000000 -0.042307 160.000000 0.003527 175.000000 -0.052474 211.000000 -0.040969 15.000000 -0.011595 106.000000 0.083086 130.000000 -0.034440
583533.000000 1.254469 212.000000 158.000000 46.000000 -0.259656 137.000000 0.139217 138.000000 0.164312 145.000000 0.450159 14.000000 -0.117929 91.000000 0.045988 126.000000 0.008260
584801.000000 1.332521 448.000000 252.000000 121.000000 0.039557 167.000000 0.004809 177.000000 -0.022730 235.000000 -0.050267 15.000000 0.000277 113.000000 0.072896 145.000000 -0.078200
585231.000000 1.301226 178.000000 255.000000 132.000000 -0.089170 187.000000 0.062303 204.000000 0.043525 241.000000 0.048903 21.000000 0.271054 25.000000 0.446588 68.000000 -0.552125
587971.000000 1.026189 322.000000 247.000000 150.000000 -0.051711 176.000000 0.014183 189.000000 -0.026003 230.000000 0.011660 16.000000 -0.052293 110.000000 0.061265 134.000000 -0.025819
588873.000000 1.256430 264.000000 169.000000 126.000000 -0.032523 148.000000 0.119970 149.000000 0.140942 156.000000 0.409827 17.000000 -0.112789 98.000000 0.024939 123.000000 -0.064842
589678.000000 1.306645 261.000000 292.000000 220.000000 -0.038102 239.000000 -0.018196 250.000000 -0.040596 276.000000 0.002160 14.000000 -0.021112 107.000000 0.065413 141.000000 -0.088554
592436.000000 1.251787 259.000000 392.000000 316.000000 -0.064155 343.000000 0.007618 354.000000 -0.007962 372.000000 0.007996 14.000000 -0.014654 102.000000 0.103014 130.000000 -0.049226
592828.000000 1.165960 392.000000 430.000000 231.000000 -0.033844 262.000000 0.567553 283.000000 -0.185408 414.000000 0.364406 17.000000 0.019206 257.000000 0.253242 283.000000 -0.185408
593823.000000 1.127786 231.000000 225.000000 137.000000 -0.058997 161.000000 0.000268 168.000000 -0.014121 207.000000 -0.035326 15.000000 -0.042199 108.000000 0.045106 144.000000 -0.042524
594760.000000 1.411603 233.000000 240.000000 138.000000 -0.064905 167.000000 0.016257 181.000000 0.000034 235.000000 0.582858 12.000000 0.006539 107.000000 0.025973 138.000000 -0.064905
595000.000000 1.332513 240.000000 451.000000 254.000000 -0.018501 280.000000 0.014553 312.000000 -0.047410 437.000000 0.022443 3.000000 1.042419 106.000000 0.068608 135.000000 -0.018038
596486.000000 1.546223 239.000000 313.000000 230.000000 -0.080392 288.000000 0.011893 291.000000 -0.028390 296.000000 -0.018923 16.000000 -0.074620 95.000000 0.067579 126.000000 -0.007689
601537.000000 1.334939 258.000000 325.000000 200.000000 -0.058151 252.000000 -0.018335 270.000000 -0.083695 309.000000 -0.022959 14.000000 -0.017979 103.000000 0.084461 129.000000 -0.038895
602356.000000 1.473433 252.000000 225.000000 173.000000 -0.079813 196.000000 -0.033279 200.000000 -0.080725 206.000000 -0.064768 13.000000 -0.019061 100.000000 0.054307 135.000000 -0.054267
603704.000000 1.695671 421.000000 266.000000 140.000000 -0.102871 167.000000 0.006140 194.000000 -0.064002 249.000000 -0.049770 13.000000 -0.005552 114.000000 0.095091 141.000000 -0.072573
604986.000000 1.677662 253.000000 233.000000 118.000000 -0.081978 163.000000 0.022569 186.000000 -0.008247 218.000000 -0.010878 14.000000 -0.049863 102.000000 0.015730 130.000000 -0.051101
605979.000000 1.609436 248.000000 325.000000 264.000000 -0.061833 303.000000 -0.004906 294.000000 -0.064921 301.000000 -0.053966 12.000000 -0.029262 106.000000 0.026230 143.000000 -0.073290
606796.000000 1.608761 233.000000 219.000000 127.000000 -0.048367 164.000000 0.002196 173.000000 -0.074841 204.000000 -0.034059 16.000000 -0.046534 103.000000 0.063123 127.000000 -0.048367
607015.000000 1.170562 219.000000 257.000000 187.000000 -0.036472 215.000000 -0.000297 230.000000 -0.071772 236.000000 -0.063763 14.000000 -0.069031 95.000000 0.026360 124.000000 -0.075689
607272.000000 1.663353 257.000000 254.000000 152.000000 -0.079187 180.000000 0.000155 200.000000 -0.055252 236.000000 -0.051725 16.000000 -0.062415 97.000000 0.051961 125.000000 -0.056771
608154.000000 1.280252 389.000000 245.000000 146.000000 -0.031126 168.000000 0.049829 181.000000 0.015142 229.000000 -0.021818 14.000000 -0.067413 109.000000 0.064201 146.000000 -0.031126
612405.000000 1.113289 259.000000 288.000000 162.000000 -0.027177 194.000000 0.015284 229.000000 -0.071833 270.000000 -0.029431 16.000000 -0.091257 110.000000 0.136301 139.000000 -0.085800
613010.000000 1.637148 317.000000 234.000000 145.000000 -0.084405 165.000000 -0.013841 185.000000 -0.041285 217.000000 -0.075127 14.000000 0.026069 111.000000 0.020474 145.000000 -0.084405
613473.000000 1.674137 229.000000 219.000000 120.000000 -0.076720 146.000000 -0.003397 161.000000 -0.047614 203.000000 -0.040466 15.000000 -0.073181 98.000000 0.048577 130.000000 -0.090091
613692.000000 1.717620 219.000000 247.000000 104.000000 0.043528 149.000000 0.043651 174.000000 -0.016476 231.000000 -0.060503 13.000000 -0.054431 108.000000 0.064939 134.000000 -0.051754
613939.000000 1.196315 247.000000 429.000000 350.000000 -0.054346 388.000000 0.040514 394.000000 0.013116 411.000000 -0.002541 14.000000 -0.090157 106.000000 0.075504 132.000000 -0.028619
615742.000000 1.566679 550.000000 399.000000 351.000000 -0.040718 374.000000 0.017056 372.000000 -0.027614 379.000000 -0.014229 15.000000 -0.094715 115.000000 0.187440 149.000000 -0.017230
616770.000000 1.668655 363.000000 478.000000 276.000000 -0.000361 305.000000 0.006297 318.000000 -0.016477 461.000000 -0.004843 14.000000 0.029016 113.000000 0.123303 163.000000 0.041138
617248.000000 1.272526 478.000000 445.000000 380.000000 -0.028587 407.000000 0.039907 418.000000 0.030111 427.000000 -0.069735 14.000000 -0.005232 108.000000 0.152678 163.000000 0.072507
617934.000000 1.716144 241.000000 236.000000 148.000000 -0.137775 186.000000 0.032462 215.000000 -0.059419 220.000000 -0.025954 12.000000 -0.032760 101.000000 0.075015 127.000000 -0.060424
618965.000000 1.421143 177.000000 364.000000 152.000000 -0.026447 222.000000 0.046331 235.000000 -0.007005 349.000000 -0.003276 9.000000 0.772835 25.000000 0.563055 35.000000 -0.252227
619667.000000 1.628070 338.000000 221.000000 136.000000 -0.079734 173.000000 0.024564 183.000000 -0.037362 201.000000 -0.021594 14.000000 0.009200 107.000000 0.072524 144.000000 -0.069170
620854.000000 1.665221 304.000000 261.000000 154.000000 -0.106325 190.000000 0.016131 215.000000 -0.042443 240.000000 -0.021613 14.000000 -0.004057 108.000000 0.044037 139.000000 -0.069977
622705.000000 1.601142 430.000000 255.000000 143.000000 -0.079769 171.000000 0.013115 194.000000 -0.033327 236.000000 -0.069488 15.000000 -0.020913 110.000000 0.105905 143.000000 -0.079769
623447.000000 1.457839 326.000000 317.000000 246.000000 -0.060563 292.000000 -0.009843 289.000000 -0.050736 296.000000 -0.049170 15.000000 -0.033118 124.000000 0.129599 163.000000 -0.015889
626139.000000 1.407647 478.000000 310.000000 169.000000 -0.058411 199.000000 -0.014087 219.000000 -0.079216 291.000000 -0.032697 17.000000 -0.044528 102.000000 0.154052 136.000000 -0.046324
626759.000000 1.317525 310.000000 231.000000 140.000000 -0.064712 166.000000 0.011431 175.000000 -0.020686 214.000000 -0.002835 11.000000 -0.024230 106.000000 0.095898 140.000000 -0.064712
626990.000000 1.396409 231.000000 420.000000 353.000000 -0.025686 398.000000 0.018674 395.000000 -0.000527 402.000000 0.017906 10.000000 -0.051399 103.000000 0.081594 130.000000 -0.037402
627410.000000 1.296084 420.000000 272.000000 154.000000 -0.087119 193.000000 0.012850 208.000000 -0.050974 250.000000 -0.062683 14.000000 0.020297 108.000000 0.096154 154.000000 -0.087119
629028.000000 1.299438 263.000000 261.000000 161.000000 -0.056298 194.000000 0.013263 217.000000 -0.071301 244.000000 0.000722 13.000000 0.015161 98.000000 0.101213 152.000000 0.006115
630154.000000 1.152071 339.000000 289.000000 189.000000 0.006021 214.000000 0.046398 241.000000 -0.033979 272.000000 0.021933 14.000000 -0.012644 106.000000 0.106872 145.000000 -0.023023
630686.000000 1.226770 243.000000 291.000000 230.000000 -0.071005 270.000000 0.025435 264.000000 0.016454 271.000000 0.030200 16.000000 -0.031584 108.000000 0.068663 139.000000 -0.076415
631296.000000 1.351521 319.000000 229.000000 128.000000 -0.069244 182.000000 0.008870 205.000000 -0.012508 210.000000 -0.024091 15.000000 -0.015016 104.000000 0.052981 142.000000 -0.063353
634677.000000 1.299185 346.000000 245.000000 149.000000 -0.062742 184.000000 0.000437 194.000000 -0.039671 228.000000 -0.015910 17.000000 -0.036047 106.000000 0.045931 139.000000 -0.086910
634922.000000 1.208698 245.000000 165.000000 107.000000 0.098827 144.000000 0.158638 134.000000 -0.006551 141.000000 0.081960 14.000000 -0.115658 95.000000 0.046318 110.000000 0.072118
635087.000000 1.345237 165.000000 407.000000 274.000000 -0.042804 308.000000 0.022084 332.000000 -0.002823 391.000000 0.022129 20.000000 0.333500 24.000000 0.433797 70.000000 -0.558976
635900.000000 1.298308 406.000000 249.000000 134.000000 -0.083323 167.000000 0.013201 180.000000 -0.031235 230.000000 -0.037677 14.000000 -0.018635 107.000000 0.069623 134.000000 -0.083323
637435.000000 1.347304 489.000000 266.000000 140.000000 -0.099058 179.000000 0.015234 194.000000 -0.037839 247.000000 -0.041085 18.000000 -0.062038 101.000000 0.102291 140.000000 -0.099058
637701.000000 1.044324 266.000000 323.000000 260.000000 -0.038056 298.000000 0.021880 302.000000 0.002067 304.000000 0.017208 16.000000 -0.041585 99.000000 0.134874 133.000000 0.001487
638024.000000 1.405920 323.000000 244.000000 133.000000 -0.083998 167.000000 -0.005859 183.000000 -0.010106 224.000000 -0.033052 16.000000 -0.039599 107.000000 0.064696 133.000000 -0.083998
638522.000000 1.394323 254.000000 267.000000 115.000000 0.041218 178.000000 0.018382 195.000000 -0.020536 251.000000 -0.033639 16.000000 -0.056037 113.000000 0.057049 147.000000 -0.081398
639139.000000 1.518171 350.000000 410.000000 325.000000 -0.071081 359.000000 0.006665 389.000000 -0.005890 395.000000 0.023013 12.000000 0.041321 106.000000 0.138242 136.000000 -0.035006
640304.000000 1.431349 232.000000 274.000000 144.000000 -0.087509 178.000000 -0.001673 202.000000 -0.022254 257.000000 -0.023414 15.000000 -0.016017 106.000000 0.068982 144.000000 -0.087509
640578.000000 1.422007 274.000000 289.000000 111.000000 0.085670 174.000000 0.015266 195.000000 -0.058618 272.000000 -0.006752 14.000000 -0.049560 114.000000 0.104965 175.000000 0.000580
640867.000000 1.419517 289.000000 297.000000 144.000000 -0.062692 196.000000 -0.004463 221.000000 -0.045955 281.000000 0.005881 13.000000 -0.036596 113.000000 0.114238 127.000000 0.005680
641689.000000 1.492415 249.000000 297.000000 242.000000 -0.063037 274.000000 0.002559 278.000000 -0.022379 281.000000 0.007464 14.000000 -0.056897 100.000000 0.107218 143.000000 -0.067181
644316.000000 1.584249 221.000000 234.000000 133.000000 -0.097965 161.000000 0.010250 175.000000 -0.039829 218.000000 -0.043890 13.000000 -0.038102 102.000000 0.049201 128.000000 -0.093874
647321.000000 1.548337 252.000000 264.000000 209.000000 -0.046365 239.000000 -0.004829 243.000000 -0.029454 248.000000 -0.033670 13.000000 -0.072338 101.000000 0.068129 151.000000 -0.081255
