3972.000000 2.040233 736.000000 260.000000 132.000000 -0.116726 204.000000 0.149483 210.000000 0.137837 238.000000 0.003791 16.000000 0.333946 20.000000 0.184808 132.000000 -0.116726
6489.000000 2.113160 259.000000 545.000000 447.000000 -0.016334 487.000000 0.096944 515.000000 -0.018087 525.000000 0.000093 12.000000 0.409538 262.000000 2.203868 312.000000 -0.279565
7910.000000 2.170858 583.000000 577.000000 449.000000 -0.144575 515.000000 0.111097 519.000000 0.100345 556.000000 -0.008151 17.000000 0.238130 301.000000 2.069592 346.000000 -0.222717
13839.000000 2.144574 565.000000 292.000000 195.000000 -0.003388 227.000000 0.101331 239.000000 0.019325 278.000000 0.389246 17.000000 0.272208 20.000000 0.171643 41.000000 -0.202105
14427.000000 2.103449 296.000000 288.000000 198.000000 0.009969 228.000000 0.120799 233.000000 0.119905 266.000000 -0.004799 14.000000 0.446208 20.000000 0.207211 125.000000 -0.052269
14993.000000 2.248187 278.000000 270.000000 134.000000 -0.170474 213.000000 0.108387 227.000000 0.001631 251.000000 0.000360 6.000000 1.047310 20.000000 0.174633 108.000000 -0.097365
15263.000000 2.184683 270.000000 868.000000 505.000000 -0.017616 560.000000 2.178384 607.000000 -0.253032 843.000000 -0.004848 16.000000 0.341469 266.000000 2.110829 326.000000 -0.319300
17541.000000 2.180327 261.000000 270.000000 183.000000 0.002930 209.000000 0.124140 215.000000 0.116161 251.000000 0.005408 14.000000 0.392238 20.000000 0.151658 43.000000 -0.233233
18695.000000 2.222085 304.000000 294.000000 203.000000 -0.021754 236.000000 0.110015 257.000000 -0.002931 272.000000 -0.007147 18.000000 0.283320 20.000000 0.223398 49.000000 -0.296557
22679.000000 2.123384 304.000000 300.000000 203.000000 -0.043761 233.000000 0.089702 238.000000 0.075627 287.000000 0.475515 22.000000 0.194781 20.000000 0.214561 132.000000 -0.061943
25261.000000 2.371161 363.000000 284.000000 195.000000 -0.041064 230.000000 0.128323 248.000000 -0.079090 273.000000 0.533778 21.000000 0.229404 20.000000 0.263997 59.000000 -0.273965
27496.000000 1.878386 303.000000 283.000000 174.000000 -0.046364 217.000000 0.165847 229.000000 0.095221 259.000000 -0.024952 13.000000 0.540047 20.000000 0.220923 48.000000 -0.228120
28035.000000 1.840267 256.000000 156.000000 67.000000 -0.403824 112.000000 0.062147 118.000000 -0.263527 136.000000 -0.256145 16.000000 0.252147 27.000000 0.114984 48.000000 -0.442430
28191.000000 1.016457 156.000000 187.000000 91.000000 0.781913 133.000000 0.620033 157.000000 -0.093291 172.000000 0.241881 20.000000 -0.321051 99.000000 0.849687 134.000000 0.619406
28858.000000 2.050423 283.000000 218.000000 138.000000 0.257007 172.000000 0.380205 190.000000 0.131052 203.000000 0.008480 18.000000 0.390266 20.000000 0.425124 47.000000 -0.516629
29436.000000 2.146491 360.000000 279.000000 165.000000 -0.051441 204.000000 0.181866 224.000000 0.131395 257.000000 -0.028276 25.000000 0.208622 20.000000 0.367870 99.000000 -0.487349
29866.000000 1.197084 151.000000 369.000000 272.000000 -0.163899 318.000000 0.056334 327.000000 -0.042161 350.000000 0.005580 29.000000 -1.531502 97.000000 1.314279 168.000000 -0.060064
31003.000000 2.117023 359.000000 289.000000 188.000000 0.015048 220.000000 0.137274 236.000000 0.076913 275.000000 0.321959 11.000000 0.415205 21.000000 0.109219 42.000000 -0.253838
31844.000000 2.051775 360.000000 250.000000 156.000000 -0.048525 194.000000 0.157368 204.000000 0.089704 228.000000 0.016584 30.000000 -0.272065 20.000000 0.118498 135.000000 -0.087414
32094.000000 2.094561 250.000000 240.000000 134.000000 -0.110091 185.000000 0.175832 202.000000 0.072510 216.000000 0.100771 17.000000 0.280768 21.000000 0.164952 50.000000 -0.314969
37812.000000 2.052790 574.000000 283.000000 187.000000 -0.015642 205.000000 0.096176 215.000000 0.087445 274.000000 0.804498 14.000000 0.325782 20.000000 0.166770 45.000000 -0.231115
38360.000000 2.006237 265.000000 268.000000 176.000000 -0.029907 207.000000 0.091284 216.000000 0.043572 247.000000 -0.055537 17.000000 0.247099 20.000000 0.146566 49.000000 -0.267152
38876.000000 2.170766 248.000000 250.000000 131.000000 -0.127085 190.000000 0.113153 202.000000 0.082933 229.000000 -0.022443 15.000000 0.216532 21.000000 0.114526 46.000000 -0.217433
40398.000000 1.230000 151.000000 417.000000 328.000000 -0.062367 360.000000 0.081944 383.000000 -0.019279 404.000000 0.334248 25.000000 -1.856676 108.000000 1.285959 250.000000 -0.267728
41083.000000 2.016005 268.000000 281.000000 193.000000 -0.023637 222.000000 0.113668 242.000000 -0.006300 260.000000 -0.021301 21.000000 0.116007 20.000000 0.126101 96.000000 -0.335073
49508.000000 2.041333 253.000000 247.000000 119.000000 -0.115034 192.000000 0.100190 213.000000 -0.012037 225.000000 0.032587 13.000000 0.405035 20.000000 0.178796 113.000000 -0.112023
51177.000000 2.011567 295.000000 296.000000 201.000000 -0.012756 233.000000 0.091883 237.000000 0.080159 274.000000 -0.022569 15.000000 0.369904 20.000000 0.233805 55.000000 -0.260209
52826.000000 2.205326 552.000000 289.000000 199.000000 0.038983 223.000000 0.139734 225.000000 0.089609 267.000000 -0.005452 10.000000 0.374682 20.000000 0.193897 49.000000 -0.171948
53926.000000 2.247509 258.000000 512.000000 387.000000 -0.103681 449.000000 0.156206 459.000000 0.098322 495.000000 0.017712 14.000000 0.207903 260.000000 2.139538 372.000000 -0.089697
54438.000000 2.041788 512.000000 271.000000 171.000000 -0.062904 212.000000 0.088603 227.000000 -0.010190 255.000000 0.215516 13.000000 0.273139 20.000000 0.088234 48.000000 -0.190545
55582.000000 2.105384 299.000000 288.000000 206.000000 -0.057538 267.000000 0.151318 261.000000 -0.098557 268.000000 0.221066 15.000000 0.393551 20.000000 0.212971 41.000000 -0.279958
56435.000000 2.031850 435.000000 287.000000 188.000000 -0.015140 227.000000 0.080815 249.000000 -0.017946 271.000000 -0.066723 19.000000 0.464904 20.000000 0.479481 126.000000 -0.025111
56722.000000 1.942603 287.000000 622.000000 556.000000 -0.026883 601.000000 0.200655 589.000000 -0.034892 596.000000 -0.009784 17.000000 0.496820 323.000000 1.643804 459.000000 -0.376993
57641.000000 1.972427 297.000000 297.000000 189.000000 -0.008626 232.000000 0.098038 255.000000 -0.038184 275.000000 -0.026366 14.000000 0.453008 20.000000 0.178039 50.000000 -0.287431
58990.000000 2.134421 291.000000 294.000000 200.000000 -0.038838 234.000000 0.103138 244.000000 0.067119 278.000000 -0.029246 9.000000 0.667088 20.000000 0.434502 131.000000 -0.034791
59284.000000 2.082604 294.000000 573.000000 484.000000 -0.016691 510.000000 0.106959 534.000000 0.010972 554.000000 -0.005861 14.000000 0.487526 285.000000 2.138859 287.000000 1.833843
62098.000000 1.833620 235.000000 355.000000 270.000000 -0.084937 300.000000 0.043684 311.000000 0.009953 344.000000 0.859892 19.000000 -0.752071 103.000000 0.417923 168.000000 0.040601
62721.000000 2.133116 268.000000 576.000000 405.000000 -0.323873 511.000000 0.058794 533.000000 -0.019058 556.000000 0.003153 16.000000 0.207755 290.000000 1.586940 405.000000 -0.323873
64204.000000 2.027213 312.000000 284.000000 209.000000 -0.002035 234.000000 0.097196 260.000000 -0.023402 264.000000 -0.033026 18.000000 0.359499 20.000000 0.290124 56.000000 -0.339893
66592.000000 2.024231 954.000000 286.000000 205.000000 0.011580 222.000000 0.092710 249.000000 -0.034846 266.000000 0.001815 14.000000 0.230922 20.000000 0.061346 37.000000 -0.142793
67152.000000 1.753230 274.000000 283.000000 200.000000 -0.021031 227.000000 0.056620 228.000000 0.046086 268.000000 0.297323 14.000000 0.286053 20.000000 0.111885 66.000000 -0.280357
67582.000000 0.970674 147.000000 479.000000 387.000000 -0.045691 409.000000 0.086489 411.000000 0.034154 461.000000 0.020047 28.000000 -1.551677 110.000000 1.106250 310.000000 -0.036525
70296.000000 1.954968 286.000000 288.000000 228.000000 0.014421 258.000000 0.226552 268.000000 0.010423 275.000000 0.776003 15.000000 0.427414 22.000000 0.218762 57.000000 -0.355626
70584.000000 2.000517 288.000000 269.000000 128.000000 -0.151503 216.000000 0.259986 225.000000 0.137619 250.000000 0.092792 20.000000 0.351976 22.000000 0.407023 65.000000 -0.390515
71516.000000 1.005253 163.000000 346.000000 256.000000 -0.062824 289.000000 0.099327 307.000000 0.008528 336.000000 0.399952 25.000000 -0.342991 100.000000 0.560177 135.000000 0.010534
73898.000000 2.048449 252.000000 249.000000 130.000000 -0.129041 195.000000 0.121209 216.000000 0.011364 230.000000 -0.010251 16.000000 0.295754 20.000000 0.135143 46.000000 -0.215627
74147.000000 1.962461 249.000000 261.000000 178.000000 -0.007694 200.000000 0.136304 208.000000 0.112935 247.000000 0.304252 16.000000 0.348527 20.000000 0.267571 138.000000 -0.085172
75174.000000 1.464497 249.000000 249.000000 184.000000 0.055251 228.000000 0.159654 214.000000 0.003932 221.000000 0.074654 34.000000 -0.136803 20.000000 0.143432 121.000000 -0.146031
77048.000000 1.315770 290.000000 294.000000 193.000000 -0.044013 232.000000 0.056005 266.000000 -0.034187 273.000000 0.046676 15.000000 0.240800 21.000000 0.097272 54.000000 -0.181756
77617.000000 1.402650 275.000000 270.000000 129.000000 -0.102758 209.000000 0.060878 211.000000 0.045487 247.000000 -0.021774 15.000000 0.330127 20.000000 0.180958 112.000000 -0.070846
78157.000000 1.423103 270.000000 870.000000 504.000000 -0.019794 562.000000 0.983981 696.000000 -0.031184 847.000000 -0.009876 17.000000 0.204309 311.000000 1.028792 504.000000 -0.019794
79027.000000 1.561271 870.000000 301.000000 203.000000 -0.008303 233.000000 0.068248 250.000000 -0.016658 282.000000 -0.009717 13.000000 0.404580 20.000000 0.173279 130.000000 -0.010657
79867.000000 2.215735 365.000000 255.000000 142.000000 -0.111568 197.000000 0.111474 206.000000 0.075127 237.000000 -0.011031 16.000000 0.318162 20.000000 0.162283 55.000000 -0.327763
80827.000000 1.427729 147.000000 433.000000 341.000000 -0.107257 370.000000 0.037729 372.000000 -0.000265 407.000000 -0.001990 24.000000 -1.864012 113.000000 1.236786 168.000000 -0.027276
82494.000000 1.400328 146.000000 413.000000 323.000000 -0.056161 357.000000 0.014358 375.000000 -0.057993 392.000000 -0.043322 17.000000 -1.854750 97.000000 1.344025 100.000000 1.311157
83209.000000 2.016161 302.000000 294.000000 121.000000 0.017414 235.000000 0.072867 254.000000 -0.073149 282.000000 0.356019 15.000000 0.379357 20.000000 0.221911 45.000000 -0.201663
83503.000000 2.203870 294.000000 279.000000 187.000000 0.006552 215.000000 0.126335 239.000000 0.017368 256.000000 -0.020535 23.000000 0.115310 20.000000 0.155515 124.000000 -0.108611
84326.000000 2.059972 266.000000 270.000000 188.000000 -0.007946 214.000000 0.117728 225.000000 0.021129 249.000000 -0.030833 15.000000 0.373203 20.000000 0.204237 45.000000 -0.269196
84872.000000 2.138453 276.000000 297.000000 211.000000 -0.022207 233.000000 0.090662 247.000000 0.012558 277.000000 -0.021394 14.000000 0.327840 20.000000 0.102495 43.000000 -0.234543
86240.000000 1.197805 432.000000 682.000000 592.000000 -0.066973 624.000000 0.072508 648.000000 0.019828 668.000000 0.282556 28.000000 -1.633212 269.000000 1.581005 271.000000 1.563670
87512.000000 1.785612 295.000000 293.000000 203.000000 0.000988 228.000000 0.075596 230.000000 0.070628 275.000000 0.008215 14.000000 0.003670 23.000000 -0.011659 27.000000 -0.047207
88377.000000 1.573200 278.000000 266.000000 175.000000 -0.057256 202.000000 0.067039 205.000000 0.045911 243.000000 -0.059528 14.000000 0.224515 20.000000 0.065219 43.000000 -0.181084
88905.000000 1.435892 262.000000 289.000000 184.000000 -0.032432 220.000000 0.057067 230.000000 0.018196 269.000000 -0.039108 13.000000 0.282192 20.000000 0.103555 47.000000 -0.158860
89194.000000 1.473775 289.000000 291.000000 199.000000 0.000833 225.000000 0.089122 253.000000 -0.064609 269.000000 -0.048465 16.000000 0.290092 20.000000 0.179685 49.000000 -0.168279
89485.000000 1.466989 291.000000 292.000000 193.000000 0.017508 228.000000 0.066976 240.000000 0.042932 273.000000 -0.058445 18.000000 0.227112 20.000000 0.141829 51.000000 -0.172152
90338.000000 1.431520 276.000000 260.000000 173.000000 0.016178 197.000000 0.095425 205.000000 0.084813 236.000000 -0.032336 15.000000 0.276146 20.000000 0.181318 47.000000 -0.216975
92063.000000 1.118731 149.000000 390.000000 117.000000 1.139971 325.000000 0.047760 326.000000 0.043513 367.000000 -0.052110 16.000000 -1.593636 117.000000 1.139971 326.000000 0.043513
93610.000000 1.170658 147.000000 419.000000 313.000000 -0.117928 352.000000 0.022726 361.000000 0.004262 399.000000 -0.014467 32.000000 -1.528684 112.000000 1.158977 231.000000 -0.235505
94336.000000 1.638400 307.000000 299.000000 212.000000 -0.049527 237.000000 0.060754 250.000000 0.005175 286.000000 0.229153 14.000000 0.311237 20.000000 0.282067 53.000000 -0.207650
97540.000000 1.696802 284.000000 169.000000 54.000000 -0.287761 118.000000 -0.041347 123.000000 -0.051126 150.000000 -0.165530 16.000000 0.280344 20.000000 0.148791 54.000000 -0.287761
100246.000000 2.174716 295.000000 300.000000 193.000000 -0.060032 227.000000 0.063433 250.000000 -0.034578 286.000000 0.304499 16.000000 0.273066 20.000000 0.152173 28.000000 -0.009143
108447.000000 1.966348 284.000000 271.000000 181.000000 -0.017274 215.000000 0.079278 235.000000 -0.026412 252.000000 -0.028232 17.000000 0.290780 20.000000 0.196141 35.000000 -0.221855
108718.000000 1.853790 271.000000 278.000000 191.000000 -0.013668 214.000000 0.096364 241.000000 -0.049562 254.000000 -0.028136 17.000000 0.380136 20.000000 0.250230 46.000000 -0.178908
112575.000000 1.215485 141.000000 475.000000 425.000000 -0.027462 450.000000 0.031238 454.000000 -0.007116 461.000000 0.368323 30.000000 -1.550204 108.000000 1.178624 289.000000 -0.068919
113050.000000 2.213731 475.000000 1597.000000 1271.000000 -0.011474 1311.000000 2.114802 1427.000000 -0.022248 1578.000000 0.002433 26.000000 0.096425 534.000000 1.899904 535.000000 1.891221
117028.000000 2.053776 406.000000 283.000000 195.000000 -0.005829 221.000000 0.101301 229.000000 0.065187 262.000000 0.003778 20.000000 0.188118 20.000000 0.188118 122.000000 -0.036659
120509.000000 2.218854 610.000000 268.000000 182.000000 -0.005515 209.000000 0.105236 213.000000 0.098872 247.000000 -0.016376 15.000000 0.396422 20.000000 0.222079 50.000000 -0.321682
121325.000000 2.207069 548.000000 289.000000 196.000000 -0.007445 221.000000 0.098434 232.000000 0.081961 267.000000 -0.001472 18.000000 0.265943 20.000000 0.181351 43.000000 -0.282097
122207.000000 2.147539 296.000000 617.000000 521.000000 -0.007493 556.000000 0.091880 561.000000 0.080783 606.000000 0.538588 14.000000 0.536332 316.000000 2.174448 448.000000 -0.019169
122824.000000 2.054215 617.000000 275.000000 181.000000 0.021830 221.000000 0.131834 237.000000 0.001098 254.000000 -0.044325 13.000000 0.594214 20.000000 0.223744 50.000000 -0.311556
124072.000000 2.018040 546.000000 306.000000 216.000000 0.023292 239.000000 0.071678 275.000000 -0.010235 285.000000 -0.009514 18.000000 0.359262 20.000000 0.263808 138.000000 0.050063
125223.000000 2.153666 267.000000 163.000000 69.000000 -0.245441 114.000000 -0.012995 121.000000 -0.035519 144.000000 -0.213057 19.000000 0.029091 23.000000 -0.053934 48.000000 -0.240394
127426.000000 2.108561 352.000000 522.000000 374.000000 -0.133353 461.000000 0.084530 473.000000 0.038997 504.000000 -0.016271 19.000000 0.119644 258.000000 1.928557 320.000000 -0.329468
128482.000000 2.052631 534.000000 276.000000 184.000000 -0.049608 211.000000 0.083465 230.000000 -0.009828 255.000000 -0.002493 15.000000 0.413291 20.000000 0.199028 52.000000 -0.241332
129334.000000 2.006770 388.000000 252.000000 112.000000 -0.084876 192.000000 0.096506 197.000000 0.073794 230.000000 -0.076725 17.000000 0.255344 20.000000 0.119669 44.000000 -0.262448
134126.000000 1.607981 140.000000 481.000000 245.000000 -0.117785 307.000000 0.078988 328.000000 -0.078849 461.000000 -0.024232 20.000000 -2.013853 109.000000 1.254218 111.000000 1.238293
137536.000000 2.254644 286.000000 297.000000 193.000000 -0.009229 234.000000 0.115767 261.000000 -0.081803 278.000000 -0.054152 18.000000 0.236306 20.000000 0.161369 48.000000 -0.237798
140098.000000 2.045757 299.000000 294.000000 186.000000 -0.007428 234.000000 0.092587 261.000000 -0.115096 275.000000 -0.078969 14.000000 0.446024 20.000000 0.236057 65.000000 -0.297576
141608.000000 2.130521 327.000000 207.000000 151.000000 -0.043558 186.000000 0.176208 190.000000 0.309044 197.000000 0.899343 19.000000 0.382185 20.000000 0.351965 64.000000 -0.325999
142251.000000 2.420740 436.000000 298.000000 184.000000 -0.008997 235.000000 0.074955 241.000000 0.018198 275.000000 -0.035202 16.000000 0.230944 20.000000 0.149456 51.000000 -0.297283
142838.000000 2.476696 289.000000 297.000000 192.000000 -0.031095 231.000000 0.070833 235.000000 0.059031 275.000000 -0.031395 14.000000 0.365474 20.000000 0.174080 39.000000 -0.210495
148781.000000 1.755658 452.000000 403.000000 313.000000 -0.073213 348.000000 0.061661 368.000000 -0.052414 381.000000 -0.043729 24.000000 -1.907304 96.000000 1.260209 165.000000 -0.105026
151848.000000 2.310187 307.000000 318.000000 234.000000 -0.046410 251.000000 0.047791 264.000000 -0.076895 293.000000 -0.028010 15.000000 0.426831 20.000000 0.237381 33.000000 -0.187055
152468.000000 2.306237 302.000000 321.000000 208.000000 -0.045423 251.000000 0.108573 275.000000 -0.010612 300.000000 -0.004482 14.000000 0.233729 22.000000 0.127900 30.000000 -0.077525
152789.000000 2.046992 321.000000 298.000000 211.000000 0.039355 235.000000 0.141018 259.000000 -0.009607 280.000000 -0.070031 16.000000 0.131677 20.000000 0.065219 27.000000 -0.058747
154222.000000 1.832129 293.000000 308.000000 204.000000 -0.047127 242.000000 0.075709 278.000000 -0.063162 285.000000 -0.062080 15.000000 0.311610 20.000000 0.191405 46.000000 -0.198752
154825.000000 1.836286 295.000000 275.000000 189.000000 -0.028808 215.000000 0.081945 224.000000 -0.001285 254.000000 -0.063696 18.000000 0.306273 20.000000 0.236133 54.000000 -0.225482
156632.000000 1.987146 259.000000 557.000000 465.000000 -0.017067 496.000000 0.113637 516.000000 -0.040377 546.000000 0.489951 16.000000 0.269327 276.000000 1.976423 315.000000 -0.192574
157962.000000 1.969988 266.000000 284.000000 186.000000 -0.005279 222.000000 0.109983 239.000000 -0.039985 261.000000 -0.074686 17.000000 0.306071 20.000000 0.206151 37.000000 -0.168786
159614.000000 1.675093 148.000000 435.000000 340.000000 -0.068309 374.000000 0.040313 375.000000 0.035000 415.000000 -0.034074 20.000000 -1.796552 96.000000 1.165028 98.000000 1.124150
160663.000000 1.952946 319.000000 181.000000 65.000000 -0.281300 125.000000 -0.050438 137.000000 -0.098714 163.000000 -0.114936 18.000000 0.241221 20.000000 0.172444 65.000000 -0.281300
164956.000000 1.622790 155.000000 456.000000 353.000000 -0.121411 399.000000 0.056790 422.000000 -0.044763 434.000000 -0.019433 16.000000 -1.742663 111.000000 1.268061 224.000000 -0.268973
165412.000000 2.138279 456.000000 328.000000 194.000000 0.003492 249.000000 0.040344 255.000000 0.025344 308.000000 -0.051018 15.000000 0.321915 20.000000 0.164783 44.000000 -0.220841
166720.000000 1.619467 162.000000 410.000000 302.000000 -0.127901 340.000000 0.022979 341.000000 0.008873 387.000000 -0.051112 20.000000 -0.222962 106.000000 0.295825 166.000000 0.032110
168309.000000 1.922427 274.000000 267.000000 174.000000 -0.037196 208.000000 0.098541 230.000000 -0.062808 246.000000 -0.070534 15.000000 0.201407 20.000000 0.061155 33.000000 -0.158766
173230.000000 2.189847 544.000000 569.000000 464.000000 -0.042620 501.000000 0.093434 529.000000 -0.086628 546.000000 -0.077725 19.000000 0.121195 278.000000 2.042601 323.000000 -0.252652
175842.000000 2.156084 318.000000 320.000000 228.000000 -0.025031 253.000000 0.060642 257.000000 0.026144 298.000000 -0.028556 15.000000 0.366242 20.000000 0.211257 127.000000 -0.008961
177079.000000 2.428249 292.000000 296.000000 206.000000 -0.046788 234.000000 0.077556 246.000000 -0.003683 275.000000 -0.021125 26.000000 -0.011186 20.000000 0.129080 122.000000 -0.032993
178155.000000 1.611896 166.000000 501.000000 411.000000 -0.091361 442.000000 0.059312 452.000000 0.002258 481.000000 -0.014780 26.000000 -2.001177 118.000000 1.366755 228.000000 -0.312426
179500.000000 2.333187 269.000000 279.000000 122.000000 -0.088273 219.000000 0.106380 223.000000 0.079404 257.000000 -0.037698 20.000000 0.101792 20.000000 0.101792 36.000000 -0.231765
180640.000000 2.289093 297.000000 294.000000 153.000000 -0.261303 202.000000 0.197506 226.000000 0.082522 279.000000 0.289184 14.000000 0.203246 20.000000 0.058419 28.000000 -0.011268
183124.000000 1.855830 279.000000 263.000000 126.000000 -0.108414 203.000000 0.094908 211.000000 0.066366 244.000000 -0.039827 14.000000 0.203464 20.000000 0.144468 51.000000 -0.197271
184047.000000 2.669169 173.000000 343.000000 230.000000 -0.024653 274.000000 0.049330 288.000000 0.025489 319.000000 -0.065155 19.000000 -0.018367 167.000000 0.170424 170.000000 0.142916
185210.000000 2.234417 267.000000 255.000000 115.000000 -0.127836 185.000000 0.115108 196.000000 0.084309 242.000000 0.346130 16.000000 0.168320 20.000000 0.087599 50.000000 -0.246130
187107.000000 1.845233 310.000000 315.000000 229.000000 -0.011396 251.000000 0.087616 275.000000 -0.048479 296.000000 -0.044281 18.000000 0.276375 20.000000 0.196391 53.000000 -0.212122
189651.000000 1.810029 562.000000 268.000000 140.000000 -0.142901 208.000000 0.093165 235.000000 -0.051175 248.000000 -0.062710 18.000000 0.251766 20.000000 0.181688 40.000000 -0.188658
190323.000000 1.419621 159.000000 352.000000 230.000000 -0.221035 292.000000 0.043324 300.000000 0.033950 331.000000 -0.018179 20.000000 -0.182528 95.000000 0.392812 166.000000 -0.044659
190957.000000 2.059827 282.000000 283.000000 187.000000 -0.012943 217.000000 0.088232 242.000000 -0.031410 260.000000 -0.049390 17.000000 0.219766 20.000000 0.150770 39.000000 -0.250030
196534.000000 2.152556 360.000000 263.000000 176.000000 -0.036349 203.000000 0.086927 220.000000 -0.042132 242.000000 -0.036866 14.000000 0.297243 20.000000 0.107149 37.000000 -0.204402
203247.000000 1.659595 138.000000 406.000000 316.000000 -0.092304 343.000000 0.084671 374.000000 -0.057853 388.000000 0.023762 28.000000 -1.468965 108.000000 1.318461 225.000000 -0.303751
203653.000000 2.180188 406.000000 573.000000 481.000000 -0.062787 506.000000 0.060000 534.000000 -0.097803 554.000000 -0.081235 15.000000 0.258385 284.000000 2.015206 322.000000 -0.206079
204810.000000 1.956897 291.000000 269.000000 190.000000 0.011565 214.000000 0.109105 248.000000 -0.063838 252.000000 -0.048304 17.000000 0.191662 20.000000 0.110691 41.000000 -0.214407
205591.000000 1.846674 255.000000 280.000000 184.000000 -0.031896 208.000000 0.085314 216.000000 0.058025 269.000000 0.344858 13.000000 0.327174 20.000000 0.147721 39.000000 -0.161354
205871.000000 1.831988 280.000000 298.000000 203.000000 -0.004103 232.000000 0.087590 235.000000 0.063138 286.000000 0.369750 12.000000 0.364074 20.000000 0.169402 125.000000 -0.006299
207022.000000 1.733936 269.000000 254.000000 140.000000 -0.093731 187.000000 0.133714 196.000000 0.107538 233.000000 -0.042068 14.000000 0.282994 20.000000 0.067760 37.000000 -0.192334
207276.000000 1.793373 254.000000 251.000000 129.000000 -0.090594 189.000000 0.117055 219.000000 -0.042050 233.000000 -0.008036 22.000000 0.050100 20.000000 0.090037 88.000000 -0.290230
209110.000000 1.872005 253.000000 241.000000 117.000000 -0.132380 181.000000 0.142323 183.000000 0.114267 220.000000 -0.031376 17.000000 0.373779 20.000000 0.237587 63.000000 -0.284653
209351.000000 1.910314 241.000000 231.000000 139.000000 -0.100643 175.000000 0.105833 176.000000 0.097117 212.000000 -0.021613 18.000000 0.258120 20.000000 0.166693 50.000000 -0.268434
211697.000000 2.357270 246.000000 262.000000 136.000000 -0.154889 204.000000 0.120753 231.000000 -0.072557 241.000000 -0.037949 14.000000 0.333460 20.000000 0.099996 102.000000 -0.057196
212226.000000 2.620718 267.000000 170.000000 56.000000 -0.371259 119.000000 -0.062759 136.000000 -0.115016 152.000000 -0.249309 17.000000 0.173759 20.000000 0.050671 44.000000 -0.327011
212826.000000 2.780721 430.000000 282.000000 189.000000 0.014519 220.000000 0.114672 251.000000 -0.058259 261.000000 -0.074354 17.000000 0.274671 20.000000 0.113512 37.000000 -0.327288
214502.000000 2.514936 549.000000 302.000000 193.000000 -0.042589 231.000000 0.064906 234.000000 0.039420 281.000000 -0.090545 17.000000 0.129950 21.000000 0.054996 39.000000 -0.237354
217391.000000 2.518460 875.000000 302.000000 205.000000 0.005436 240.000000 0.109560 272.000000 -0.053151 276.000000 -0.064954 17.000000 0.208037 20.000000 0.128006 32.000000 -0.154251
223628.000000 1.291880 164.000000 490.000000 401.000000 -0.072003 431.000000 0.033732 449.000000 -0.055673 469.000000 -0.035048 17.000000 -1.660988 111.000000 1.312051 235.000000 -0.293020
224414.000000 2.152275 296.000000 277.000000 197.000000 0.005345 215.000000 0.080722 217.000000 0.055502 258.000000 -0.029610 13.000000 0.433404 20.000000 0.168279 115.000000 -0.053163
230403.000000 2.324384 322.000000 307.000000 201.000000 -0.014231 240.000000 0.074232 243.000000 0.068448 296.000000 0.633654 15.000000 0.353678 20.000000 0.133365 52.000000 -0.273641
230990.000000 2.409274 280.000000 291.000000 203.000000 0.016191 228.000000 0.108232 244.000000 -0.004731 270.000000 -0.048743 7.000000 0.673695 20.000000 0.110809 119.000000 -0.003108
233312.000000 2.276285 257.000000 190.000000 56.000000 -0.326600 114.000000 -0.018587 160.000000 -0.083180 171.000000 -0.110893 20.000000 0.101754 20.000000 0.101754 45.000000 -0.314202
235560.000000 2.587746 369.000000 254.000000 133.000000 0.063447 187.000000 0.188670 219.000000 -0.065922 232.000000 -0.087161 18.000000 0.080115 133.000000 0.063447 187.000000 0.188670
235979.000000 1.929637 165.000000 399.000000 284.000000 -0.140734 342.000000 0.040661 358.000000 -0.031346 377.000000 -0.029952 21.000000 -0.072556 106.000000 0.159500 143.000000 0.016363
237240.000000 2.134547 280.000000 259.000000 138.000000 -0.165106 196.000000 0.109625 199.000000 0.098904 233.000000 -0.064716 16.000000 0.242682 20.000000 0.161695 39.000000 -0.221610
238779.000000 2.807508 489.000000 438.000000 344.000000 -0.097631 372.000000 0.052900 385.000000 0.004641 415.000000 -0.046096 25.000000 -0.233121 181.000000 0.256214 184.000000 0.213190
239491.000000 2.181086 274.000000 279.000000 110.000000 -0.033131 218.000000 0.104075 242.000000 -0.015110 259.000000 -0.048965 15.000000 0.301119 20.000000 0.132309 50.000000 -0.258723
242015.000000 1.422539 135.000000 467.000000 372.000000 -0.086975 401.000000 0.040580 403.000000 0.032226 445.000000 -0.035487 27.000000 -1.720141 97.000000 1.405765 99.000000 1.394464
242482.000000 2.308245 467.000000 329.000000 189.000000 -0.039168 258.000000 0.000408 292.000000 -0.100283 307.000000 -0.045064 20.000000 0.202632 20.000000 0.202632 128.000000 -0.002332
243148.000000 2.195152 337.000000 330.000000 234.000000 -0.040611 259.000000 0.047368 263.000000 0.031600 309.000000 -0.034059 15.000000 0.437800 20.000000 0.281907 135.000000 -0.041183
246503.000000 2.274144 274.000000 286.000000 204.000000 0.015921 228.000000 0.136002 231.000000 0.085171 265.000000 -0.042693 19.000000 0.151508 20.000000 0.116556 58.000000 -0.293974
247079.000000 2.264655 290.000000 163.000000 46.000000 -0.201286 127.000000 -0.106960 128.000000 -0.139876 131.000000 -0.117603 18.000000 0.195861 20.000000 0.117099 46.000000 -0.201286
247709.000000 2.343796 467.000000 305.000000 216.000000 0.039217 245.000000 0.096786 248.000000 0.043980 291.000000 0.176394 15.000000 0.357120 20.000000 0.171916 137.000000 -0.035106
249022.000000 1.645079 167.000000 711.000000 365.000000 0.002212 427.000000 0.559844 471.000000 -0.306595 696.000000 0.400640 19.000000 -0.415205 419.000000 2.355581 471.000000 -0.306595
251106.000000 2.391729 273.000000 307.000000 214.000000 -0.030470 240.000000 0.087774 263.000000 -0.043231 284.000000 -0.086492 20.000000 0.090885 20.000000 0.090885 59.000000 -0.282358
252590.000000 2.408571 278.000000 286.000000 203.000000 0.015314 220.000000 0.089187 225.000000 0.072494 267.000000 -0.106976 15.000000 0.282237 20.000000 0.101202 38.000000 -0.223658
253014.000000 1.663371 138.000000 438.000000 351.000000 -0.102604 378.000000 0.053527 379.000000 0.039279 416.000000 -0.041050 23.000000 -2.034012 105.000000 1.248310 163.000000 -0.024540
254082.000000 2.421222 630.000000 164.000000 51.000000 -0.192476 132.000000 -0.121552 139.000000 -0.145720 149.000000 0.050877 18.000000 0.220265 20.000000 0.130328 42.000000 -0.165313
254664.000000 2.411347 418.000000 270.000000 182.000000 0.016100 211.000000 0.113655 224.000000 0.018639 259.000000 0.541504 21.000000 0.078334 20.000000 0.133507 54.000000 -0.298014
256329.000000 2.320031 429.000000 288.000000 197.000000 0.005437 232.000000 0.111112 255.000000 -0.026238 268.000000 -0.038967 16.000000 0.365956 20.000000 0.214811 55.000000 -0.296633
257389.000000 2.368404 260.000000 272.000000 177.000000 -0.030375 216.000000 0.120439 224.000000 0.040485 259.000000 0.412002 20.000000 0.111696 20.000000 0.111696 115.000000 -0.099952
258534.000000 2.255798 288.000000 158.000000 50.000000 -0.165268 127.000000 -0.094076 129.000000 -0.120455 136.000000 -0.158637 14.000000 0.376470 20.000000 0.147788 48.000000 -0.155958
259125.000000 2.563391 433.000000 269.000000 186.000000 0.037944 215.000000 0.135297 232.000000 -0.004092 256.000000 0.206832 15.000000 0.276166 20.000000 0.083956 29.000000 -0.149820
261715.000000 2.386648 275.000000 285.000000 173.000000 -0.047833 225.000000 0.097712 258.000000 -0.035862 279.000000 1.179876 17.000000 0.271180 20.000000 0.151008 34.000000 -0.206580
263205.000000 2.338639 606.000000 267.000000 188.000000 0.036569 209.000000 0.148746 216.000000 0.117963 254.000000 0.288750 13.000000 0.342730 20.000000 0.081744 34.000000 -0.196125
266891.000000 2.238178 316.000000 304.000000 204.000000 -0.048526 225.000000 0.050957 226.000000 0.030957 281.000000 -0.041175 17.000000 0.356187 20.000000 0.201641 127.000000 -0.078682
268650.000000 2.163840 291.000000 327.000000 218.000000 -0.053082 255.000000 0.010237 283.000000 -0.086300 304.000000 -0.050358 15.000000 0.373905 20.000000 0.183513 39.000000 -0.189480
269620.000000 2.221897 314.000000 299.000000 192.000000 -0.036893 232.000000 0.067524 247.000000 -0.013182 286.000000 0.413732 12.000000 0.477541 20.000000 0.147260 38.000000 -0.222646
273695.000000 2.289551 316.000000 317.000000 217.000000 -0.050576 245.000000 0.046822 251.000000 0.034863 304.000000 0.486616 15.000000 0.399206 20.000000 0.169017 138.000000 -0.029230
275472.000000 2.432728 597.000000 308.000000 212.000000 -0.027802 244.000000 0.107322 276.000000 -0.049354 295.000000 0.553121 17.000000 0.269280 22.000000 0.137698 56.000000 -0.288789
276606.000000 2.451646 274.000000 276.000000 144.000000 -0.197418 210.000000 0.093324 212.000000 0.059452 255.000000 -0.056143 16.000000 0.315154 20.000000 0.165922 45.000000 -0.252354
277733.000000 2.406475 585.000000 162.000000 74.000000 -0.331851 132.000000 -0.117383 129.000000 -0.185612 136.000000 -0.146254 15.000000 0.373355 20.000000 0.190268 54.000000 -0.214185
280585.000000 2.370344 292.000000 137.000000 0.000000 2.370344 112.000000 -0.167946 106.000000 -0.250940 113.000000 -0.178777 20.000000 0.243432 20.000000 0.243432 106.000000 -0.250940
280722.000000 1.529796 137.000000 413.000000 319.000000 -0.102866 354.000000 0.059654 365.000000 0.008824 392.000000 -0.070536 21.000000 -2.212837 102.000000 1.447176 165.000000 -0.067783
284096.000000 2.545457 487.000000 315.000000 210.000000 -0.004714 243.000000 0.086130 268.000000 -0.067240 291.000000 -0.017898 25.000000 -0.036565 21.000000 0.148983 109.000000 -0.358397
285446.000000 1.484654 165.000000 731.000000 399.000000 -0.058543 439.000000 0.967525 558.000000 0.029423 708.000000 -0.038994 22.000000 -0.320126 434.000000 2.418261 558.000000 0.029423
293509.000000 2.342428 265.000000 255.000000 138.000000 -0.145013 198.000000 0.117289 203.000000 0.086129 231.000000 -0.033979 16.000000 0.274686 20.000000 0.146034 40.000000 -0.268010
294580.000000 2.356519 277.000000 286.000000 188.000000 -0.015234 220.000000 0.094076 226.000000 0.089860 266.000000 -0.055862 17.000000 0.235203 20.000000 0.120063 45.000000 -0.244356
294866.000000 2.327037 286.000000 296.000000 207.000000 -0.054548 240.000000 0.066160 261.000000 -0.078495 278.000000 -0.039403 15.000000 0.332413 20.000000 0.127209 51.000000 -0.285741
295162.000000 2.324419 296.000000 298.000000 212.000000 -0.001317 237.000000 0.084952 249.000000 0.044560 279.000000 -0.038871 14.000000 0.413778 20.000000 0.163558 42.000000 -0.259971
297717.000000 1.049811 167.000000 427.000000 293.000000 -0.110189 366.000000 0.054595 385.000000 -0.070326 405.000000 -0.047143 20.000000 -0.506397 101.000000 0.635852 162.000000 -0.027248
298713.000000 2.286500 569.000000 307.000000 192.000000 -0.035879 240.000000 0.037427 262.000000 -0.088183 295.000000 0.664982 31.000000 -0.108233 20.000000 0.202253 127.000000 -0.011568
306704.000000 1.347885 144.000000 159.000000 -5.000000 0.943495 100.000000 1.380644 121.000000 0.672446 128.000000 0.360439 28.000000 -1.802069 94.000000 1.323041 100.000000 1.380644
312511.000000 2.125675 634.000000 316.000000 215.000000 -0.025582 252.000000 0.038825 281.000000 -0.063338 293.000000 0.016159 19.000000 0.335458 20.000000 0.285474 102.000000 -0.492203
313123.000000 2.121397 296.000000 291.000000 199.000000 0.006708 228.000000 0.090110 255.000000 -0.054011 269.000000 0.014878 12.000000 0.581084 20.000000 0.245049 122.000000 -0.035904
313706.000000 2.158153 292.000000 144.000000 39.000000 -0.162004 120.000000 -0.110829 121.000000 -0.133431 125.000000 -0.107381 12.000000 0.575505 20.000000 0.192793 39.000000 -0.162004
318032.000000 2.253465 271.000000 273.000000 129.000000 -0.119046 211.000000 0.126392 213.000000 0.096407 251.000000 -0.010047 15.000000 0.386725 20.000000 0.196113 40.000000 -0.229735
320524.000000 2.173038 287.000000 298.000000 201.000000 -0.026941 239.000000 0.095831 256.000000 -0.010438 276.000000 -0.039811 18.000000 0.384589 20.000000 0.259353 131.000000 -0.035521
321412.000000 2.328946 295.000000 291.000000 219.000000 0.048324 239.000000 0.116663 257.000000 -0.052383 272.000000 -0.095410 13.000000 0.489839 20.000000 0.134681 123.000000 -0.050911
323237.000000 2.314190 337.000000 326.000000 231.000000 -0.050751 258.000000 0.043195 288.000000 -0.072540 303.000000 -0.038450 14.000000 0.557137 20.000000 0.256383 43.000000 -0.261278
327806.000000 1.189938 463.000000 455.000000 356.000000 -0.089027 395.000000 0.073090 412.000000 -0.017868 433.000000 -0.052540 24.000000 -1.971865 113.000000 1.302860 290.000000 -0.111206
328533.000000 2.310453 272.000000 277.000000 113.000000 -0.076086 220.000000 0.112085 240.000000 -0.012853 257.000000 -0.006535 20.000000 0.101252 20.000000 0.101252 45.000000 -0.243014
328961.000000 1.602509 151.000000 462.000000 360.000000 -0.110420 398.000000 0.038903 411.000000 0.023715 440.000000 0.009261 21.000000 -1.931283 116.000000 1.225520 218.000000 -0.269298
336265.000000 2.133686 731.000000 605.000000 514.000000 -0.003401 537.000000 0.068417 539.000000 0.063338 583.000000 -0.030456 16.000000 0.448781 303.000000 2.110265 430.000000 -0.018510
340191.000000 1.130473 181.000000 497.000000 396.000000 -0.122021 434.000000 0.016411 445.000000 -0.007602 475.000000 0.001113 23.000000 -0.503573 108.000000 0.586102 167.000000 -0.031855
341006.000000 2.287070 318.000000 289.000000 198.000000 -0.018103 224.000000 0.091222 251.000000 -0.020095 268.000000 -0.022305 12.000000 0.513308 20.000000 0.173872 119.000000 -0.040047
343933.000000 2.108971 275.000000 184.000000 66.000000 -0.357912 131.000000 -0.041740 149.000000 -0.092273 167.000000 -0.102162 15.000000 0.289001 20.000000 0.109080 47.000000 -0.291703
345433.000000 2.208579 269.000000 266.000000 177.000000 -0.017115 205.000000 0.121819 208.000000 0.091881 254.000000 0.465067 16.000000 0.139660 20.000000 0.094895 48.000000 -0.239073
346241.000000 2.137880 272.000000 283.000000 188.000000 -0.023934 213.000000 0.096897 214.000000 0.082351 262.000000 -0.036456 29.000000 -0.127733 21.000000 0.097644 114.000000 -0.073266
347422.000000 2.040680 584.000000 272.000000 185.000000 0.033980 209.000000 0.101848 234.000000 0.003667 257.000000 0.271868 13.000000 0.445665 20.000000 0.176056 82.000000 -0.409150
348101.000000 1.293434 147.000000 438.000000 328.000000 -0.129370 382.000000 0.067351 403.000000 -0.038668 424.000000 0.418824 22.000000 -1.905926 106.000000 1.278384 162.000000 -0.031246
349741.000000 2.186547 284.000000 266.000000 115.000000 -0.097339 207.000000 0.137871 235.000000 -0.018276 256.000000 0.519292 18.000000 0.170996 20.000000 0.155918 89.000000 -0.457185
351049.000000 1.075579 153.000000 501.000000 384.000000 -0.112276 430.000000 0.021550 434.000000 -0.003654 477.000000 -0.013999 23.000000 -1.856491 117.000000 1.277819 310.000000 -0.037452
354151.000000 1.348292 146.000000 454.000000 348.000000 -0.121601 395.000000 0.039185 418.000000 -0.023212 434.000000 -0.007740 22.000000 -1.822587 106.000000 1.224543 284.000000 -0.107230
357694.000000 2.470692 553.000000 281.000000 181.000000 -0.048872 202.000000 0.087808 218.000000 0.066959 256.000000 -0.025771 24.000000 0.013546 20.000000 0.093969 62.000000 -0.350874
359907.000000 2.331883 577.000000 855.000000 511.000000 0.079876 578.000000 2.147771 636.000000 -0.316682 832.000000 -0.055639 16.000000 0.356738 297.000000 2.140800 337.000000 -0.244644
362278.000000 2.429058 487.000000 296.000000 198.000000 0.038855 234.000000 0.088869 254.000000 -0.035096 276.000000 -0.002508 20.000000 0.133696 20.000000 0.133696 90.000000 -0.553906
365533.000000 2.172147 283.000000 304.000000 226.000000 0.055329 244.000000 0.105972 266.000000 -0.059888 282.000000 -0.055938 18.000000 0.317588 20.000000 0.231804 130.000000 -0.008710
366024.000000 1.131032 187.000000 451.000000 338.000000 -0.126346 396.000000 0.076317 412.000000 -0.029343 431.000000 -0.011739 10.000000 -0.022306 107.000000 0.614587 158.000000 -0.053101
366955.000000 1.340582 179.000000 394.000000 295.000000 -0.084074 346.000000 0.083839 347.000000 0.078620 372.000000 -0.003055 19.000000 -0.441956 95.000000 0.523899 98.000000 0.492769
367349.000000 2.391256 394.000000 266.000000 181.000000 0.051179 205.000000 0.156506 219.000000 0.072727 243.000000 -0.017682 16.000000 0.241601 20.000000 0.130817 35.000000 -0.288745
368180.000000 2.274251 283.000000 471.000000 267.000000 -0.045630 309.000000 2.165189 364.000000 -0.167147 446.000000 -0.150892 16.000000 0.369064 20.000000 0.158704 131.000000 -0.042782
370387.000000 1.449470 181.000000 414.000000 338.000000 -0.004684 356.000000 0.050439 380.000000 -0.040077 394.000000 -0.066646 25.000000 -0.249169 108.000000 0.515501 173.000000 -0.013215
374291.000000 1.116773 143.000000 799.000000 441.000000 -0.021348 488.000000 2.274076 539.000000 -0.271243 776.000000 -0.041270 23.000000 -1.899763 108.000000 1.323460 112.000000 1.320293
376627.000000 2.394236 443.000000 329.000000 215.000000 -0.036189 255.000000 0.021603 257.000000 0.005991 315.000000 0.497009 27.000000 0.003549 20.000000 0.239863 131.000000 0.003958
380184.000000 2.388968 408.000000 302.000000 193.000000 0.022197 235.000000 0.069860 240.000000 0.058011 282.000000 0.016994 16.000000 0.323575 20.000000 0.197400 40.000000 -0.243526
381416.000000 2.152133 317.000000 152.000000 53.000000 -0.218980 131.000000 -0.136269 124.000000 -0.153824 131.000000 -0.136269 19.000000 0.294766 20.000000 0.270267 53.000000 -0.218980
382335.000000 2.228603 767.000000 264.000000 120.000000 -0.173025 210.000000 0.129138 235.000000 0.021866 244.000000 0.026083 14.000000 0.492911 20.000000 0.178961 121.000000 -0.199247
382599.000000 2.333073 264.000000 875.000000 514.000000 0.047398 568.000000 2.303761 680.000000 -0.339009 860.000000 0.471629 17.000000 0.307275 280.000000 2.325200 400.000000 -0.042854
390755.000000 1.920772 267.000000 264.000000 170.000000 -0.003790 204.000000 0.113731 230.000000 -0.047603 245.000000 -0.018324 18.000000 0.181355 20.000000 0.141371 43.000000 -0.191061
391520.000000 2.034438 254.000000 270.000000 169.000000 -0.042036 207.000000 0.109012 232.000000 0.003152 250.000000 -0.013444 12.000000 0.340911 20.000000 0.085036 46.000000 -0.239730
394629.000000 2.166783 309.000000 301.000000 208.000000 -0.002103 239.000000 0.100404 241.000000 0.074182 278.000000 -0.038373 16.000000 0.433727 20.000000 0.223931 50.000000 -0.298626
396080.000000 2.210191 300.000000 306.000000 192.000000 -0.017567 240.000000 0.082320 266.000000 -0.038400 292.000000 0.352382 12.000000 0.505911 20.000000 0.186241 39.000000 -0.248116
407517.000000 2.275249 473.000000 302.000000 193.000000 -0.012102 234.000000 0.066911 256.000000 -0.043764 279.000000 -0.049534 13.000000 0.387350 20.000000 0.145358 127.000000 -0.014472
407819.000000 2.154056 302.000000 303.000000 199.000000 -0.042729 237.000000 0.086535 268.000000 -0.052085 283.000000 -0.006473 17.000000 0.271079 20.000000 0.166329 62.000000 -0.299266
412247.000000 2.359187 341.000000 210.000000 165.000000 -0.037694 189.000000 0.114155 182.000000 -0.030141 189.000000 0.114155 16.000000 0.324408 20.000000 0.134156 119.000000 0.014578
414015.000000 2.283104 297.000000 295.000000 191.000000 -0.051364 230.000000 0.108713 254.000000 -0.010019 273.000000 -0.031071 18.000000 0.218744 20.000000 0.173869 126.000000 -0.067588
414869.000000 2.243948 559.000000 267.000000 145.000000 -0.135627 210.000000 0.152743 213.000000 0.086849 247.000000 -0.008887 14.000000 0.349606 20.000000 0.140451 116.000000 -0.147055
418452.000000 2.364813 292.000000 295.000000 207.000000 -0.031596 235.000000 0.096583 237.000000 0.059954 277.000000 -0.008993 18.000000 0.242947 20.000000 0.128182 43.000000 -0.250000
422590.000000 1.966503 271.000000 267.000000 177.000000 0.011663 200.000000 0.175895 211.000000 0.060125 247.000000 -0.059497 15.000000 0.198872 20.000000 0.100720 31.000000 -0.199499
423845.000000 1.919878 243.000000 232.000000 181.000000 0.137399 211.000000 1.120157 211.000000 1.120157 218.000000 1.273856 16.000000 0.298090 20.000000 0.173999 129.000000 -0.100514
425596.000000 2.173076 232.000000 234.000000 140.000000 -0.114811 181.000000 0.117854 189.000000 0.060816 213.000000 -0.025014 14.000000 0.325066 20.000000 0.117135 41.000000 -0.233508
426326.000000 2.137381 318.000000 256.000000 124.000000 -0.078304 194.000000 0.135454 223.000000 -0.030470 237.000000 -0.045077 17.000000 0.183398 20.000000 0.132489 44.000000 -0.247823
427642.000000 1.982270 246.000000 173.000000 111.000000 -0.010265 152.000000 0.272417 135.000000 -0.046313 142.000000 -0.036079 14.000000 0.209857 20.000000 -0.012824 45.000000 -0.418467
427815.000000 2.749798 173.000000 333.000000 253.000000 -0.030437 277.000000 0.060595 301.000000 -0.044469 312.000000 -0.039877 30.000000 -0.442054 163.000000 0.151004 168.000000 0.125551
428416.000000 2.131894 268.000000 283.000000 187.000000 -0.012321 222.000000 0.077992 248.000000 -0.061146 264.000000 -0.011491 14.000000 0.387270 20.000000 0.160295 41.000000 -0.245976
430110.000000 2.424986 395.000000 272.000000 184.000000 -0.015800 209.000000 0.067317 222.000000 0.023336 252.000000 -0.032040 12.000000 0.397022 20.000000 0.084640 45.000000 -0.236833
430382.000000 2.293274 272.000000 294.000000 212.000000 -0.039780 231.000000 0.018576 248.000000 -0.073475 274.000000 -0.030670 15.000000 0.258666 21.000000 0.115046 31.000000 -0.152871
430676.000000 2.217449 294.000000 164.000000 54.000000 -0.208417 118.000000 -0.090331 125.000000 -0.096773 139.000000 -0.165612 16.000000 0.248310 20.000000 0.110661 38.000000 -0.136738
432215.000000 2.319418 289.000000 301.000000 191.000000 -0.057428 236.000000 0.050877 257.000000 -0.095487 279.000000 -0.021978 25.000000 -0.064220 20.000000 0.075389 111.000000 -0.001464
433134.000000 2.261492 424.000000 326.000000 235.000000 -0.093937 259.000000 -0.003686 285.000000 -0.100236 314.000000 0.439061 15.000000 0.234969 20.000000 0.094467 37.000000 -0.178072
433460.000000 2.142966 326.000000 321.000000 211.000000 -0.058823 257.000000 0.034673 270.000000 -0.032099 299.000000 -0.001866 19.000000 0.225901 20.000000 0.185822 48.000000 -0.221511
434823.000000 1.197352 165.000000 457.000000 371.000000 -0.061049 395.000000 0.024074 418.000000 -0.045064 438.000000 -0.050550 21.000000 -0.368087 107.000000 0.485969 171.000000 -0.015493
435597.000000 2.200599 317.000000 311.000000 206.000000 -0.074653 239.000000 0.033165 277.000000 -0.099718 289.000000 -0.020737 14.000000 0.345868 22.000000 0.110947 43.000000 -0.238768
437930.000000 1.272930 179.000000 472.000000 388.000000 -0.079592 415.000000 0.021317 430.000000 -0.112428 448.000000 -0.051253 22.000000 -0.431162 108.000000 0.544202 169.000000 0.012354
440176.000000 1.307651 174.000000 459.000000 342.000000 -0.095829 397.000000 0.041522 423.000000 -0.066488 439.000000 -0.034342 18.000000 -0.463604 96.000000 0.545380 147.000000 -0.046654
440635.000000 2.283352 459.000000 292.000000 195.000000 -0.002054 225.000000 0.065032 246.000000 -0.084640 281.000000 0.653980 17.000000 0.170295 20.000000 0.119621 39.000000 -0.207495
442524.000000 2.318843 314.000000 292.000000 184.000000 -0.029014 228.000000 0.091411 249.000000 -0.063683 271.000000 -0.045738 17.000000 0.217322 20.000000 0.111836 30.000000 -0.114684
444377.000000 2.264607 439.000000 606.000000 511.000000 -0.086205 548.000000 0.070724 559.000000 0.025080 583.000000 0.002165 22.000000 0.081738 295.000000 1.292770 399.000000 -0.244591
449428.000000 2.188014 247.000000 447.000000 230.000000 -0.049750 269.000000 2.110469 322.000000 -0.430127 408.000000 0.003198 32.000000 -0.200309 267.000000 2.029277 268.000000 2.102506
450257.000000 2.107153 382.000000 289.000000 188.000000 -0.021443 225.000000 0.088449 237.000000 0.021364 270.000000 -0.049375 15.000000 0.329284 20.000000 0.142951 53.000000 -0.232739
452574.000000 2.012458 431.000000 469.000000 225.000000 0.050455 293.000000 2.010640 339.000000 -0.306790 448.000000 -0.138840 16.000000 0.359527 280.000000 0.326862 293.000000 2.010640
454209.000000 2.071538 261.000000 267.000000 143.000000 -0.139999 194.000000 0.095566 203.000000 0.074376 255.000000 0.484719 18.000000 0.126269 20.000000 0.116347 43.000000 -0.218151
456404.000000 2.478402 150.000000 746.000000 414.000000 -0.022303 452.000000 2.178119 482.000000 -0.139687 732.000000 0.464437 31.000000 -0.578664 446.000000 1.283918 452.000000 2.178119
457312.000000 1.801601 162.000000 408.000000 231.000000 -0.272866 350.000000 0.071394 356.000000 0.053479 388.000000 -0.044703 29.000000 -1.784826 111.000000 1.328462 231.000000 -0.272866
458108.000000 1.759690 140.000000 653.000000 340.000000 -0.030688 392.000000 0.414580 500.000000 -0.079732 632.000000 -0.066991 26.000000 -1.842568 379.000000 2.297637 500.000000 -0.079732
459596.000000 2.097667 286.000000 269.000000 199.000000 0.100798 215.000000 0.130156 236.000000 -0.048247 246.000000 -0.003670 14.000000 0.346713 20.000000 0.157998 41.000000 -0.205560
462635.000000 2.333247 282.000000 289.000000 188.000000 -0.062900 220.000000 0.080173 234.000000 0.000848 276.000000 0.579185 17.000000 0.186242 20.000000 0.096462 41.000000 -0.232848
463876.000000 2.235662 325.000000 306.000000 212.000000 -0.015516 240.000000 0.068637 277.000000 -0.045217 288.000000 -0.023714 14.000000 0.435367 20.000000 0.195195 47.000000 -0.231606
464182.000000 2.265203 306.000000 295.000000 205.000000 -0.022475 228.000000 0.086193 232.000000 0.041648 276.000000 -0.000439 13.000000 0.497160 20.000000 0.172739 47.000000 -0.244598
465721.000000 2.140925 323.000000 336.000000 236.000000 -0.055675 268.000000 0.004672 285.000000 -0.067051 321.000000 0.278748 15.000000 0.449954 20.000000 0.254452 27.000000 0.073699
469165.000000 1.464592 142.000000 713.000000 362.000000 0.007946 428.000000 0.493586 451.000000 -0.241351 692.000000 -0.036082 21.000000 -2.038089 416.000000 2.266581 451.000000 -0.241351
470169.000000 2.254786 291.000000 284.000000 142.000000 -0.126001 207.000000 0.121145 218.000000 0.096913 271.000000 0.392919 17.000000 0.265602 21.000000 0.150508 57.000000 -0.315856
471266.000000 2.280151 272.000000 555.000000 414.000000 -0.118260 502.000000 0.130081 524.000000 -0.031471 533.000000 0.000865 21.000000 0.058411 275.000000 2.290065 393.000000 -0.106629
472114.000000 2.286236 293.000000 200.000000 101.000000 -0.544687 179.000000 0.762697 155.000000 -0.015721 162.000000 0.015784 18.000000 0.159887 20.000000 0.085765 101.000000 -0.544687
472314.000000 2.726098 200.000000 398.000000 285.000000 -0.101113 343.000000 0.083402 363.000000 -0.031361 375.000000 -0.009902 30.000000 -0.350080 175.000000 0.275731 285.000000 -0.101113
472968.000000 2.204982 256.000000 142.000000 37.000000 -0.148983 110.000000 -0.113134 111.000000 -0.124529 119.000000 -0.191754 18.000000 0.040264 21.000000 0.066534 32.000000 -0.118529
475079.000000 2.282905 550.000000 251.000000 171.000000 0.002790 195.000000 0.127052 215.000000 0.024700 233.000000 -0.022086 17.000000 0.161400 20.000000 0.041025 36.000000 -0.248773
476813.000000 2.115391 319.000000 908.000000 573.000000 -0.066785 616.000000 2.167222 655.000000 -0.214833 890.000000 -0.034471 17.000000 0.255094 308.000000 2.175984 354.000000 -0.231439
479989.000000 2.218933 317.000000 321.000000 233.000000 -0.011757 257.000000 0.050532 258.000000 0.020642 301.000000 0.003823 10.000000 0.542868 20.000000 0.171377 129.000000 -0.005678
486560.000000 2.224188 308.000000 317.000000 210.000000 -0.021379 252.000000 0.067822 262.000000 -0.018808 296.000000 -0.011393 30.000000 -0.111703 20.000000 0.153768 135.000000 -0.057940
487208.000000 2.247821 331.000000 340.000000 245.000000 -0.059374 264.000000 0.032397 294.000000 -0.043103 319.000000 -0.022601 16.000000 0.307442 20.000000 0.162738 50.000000 -0.241323
499082.000000 2.293580 255.000000 260.000000 118.000000 -0.123555 203.000000 0.173009 226.000000 0.020516 237.000000 0.018336 14.000000 0.377215 20.000000 0.115712 50.000000 -0.295357
501689.000000 1.543953 144.000000 386.000000 297.000000 -0.113370 321.000000 0.038291 325.000000 0.002460 365.000000 -0.022116 28.000000 -1.805954 100.000000 1.259999 167.000000 -0.084639
508900.000000 2.270422 946.000000 336.000000 222.000000 0.041082 246.000000 0.109140 276.000000 0.030425 316.000000 -0.048698 19.000000 0.199578 20.000000 0.159296 42.000000 -0.175062
511657.000000 1.987367 309.000000 278.000000 186.000000 0.024656 220.000000 0.120892 248.000000 -0.075943 262.000000 -0.050661 13.000000 0.484545 20.000000 0.160815 37.000000 -0.250531
512497.000000 1.839310 292.000000 143.000000 1.000000 1.824216 113.000000 -0.054482 114.000000 -0.072350 115.000000 -0.080219 19.000000 0.383370 20.000000 0.326631 114.000000 -0.072350
513068.000000 2.121461 428.000000 289.000000 176.000000 -0.014016 220.000000 0.115472 249.000000 -0.036784 265.000000 -0.081847 20.000000 0.137608 20.000000 0.137608 64.000000 -0.256529
513896.000000 2.140910 362.000000 247.000000 129.000000 -0.063965 184.000000 0.180045 203.000000 0.083305 228.000000 -0.026492 17.000000 0.174423 20.000000 0.107715 51.000000 -0.273776
514383.000000 1.940466 240.000000 239.000000 154.000000 -0.073948 178.000000 0.084453 181.000000 0.037055 226.000000 0.252381 17.000000 0.151030 20.000000 0.060466 111.000000 -0.090987
516522.000000 1.906253 265.000000 162.000000 50.000000 -0.286818 110.000000 -0.067570 118.000000 -0.094608 144.000000 -0.217288 13.000000 0.481614 20.000000 0.202131 38.000000 -0.248683
518738.000000 2.162243 383.000000 286.000000 182.000000 -0.035739 216.000000 0.103918 256.000000 -0.062840 262.000000 -0.070035 21.000000 0.073011 20.000000 0.113262 61.000000 -0.348917
520071.000000 1.656850 770.000000 398.000000 322.000000 -0.055046 348.000000 0.058432 361.000000 -0.029233 379.000000 -0.038137 22.000000 -0.270906 102.000000 0.430445 104.000000 0.421621
520469.000000 2.442599 398.000000 260.000000 168.000000 -0.011019 202.000000 0.121833 229.000000 -0.060611 238.000000 -0.038228 14.000000 0.188807 20.000000 0.001582 29.000000 -0.211615
521964.000000 2.316409 311.000000 326.000000 220.000000 -0.055029 256.000000 0.021444 277.000000 -0.083541 304.000000 -0.040174 14.000000 0.344044 20.000000 0.122446 38.000000 -0.203039
523185.000000 2.239714 394.000000 293.000000 205.000000 -0.029139 234.000000 0.040703 249.000000 -0.065989 273.000000 -0.066441 12.000000 0.538038 20.000000 0.201925 124.000000 -0.008188
524290.000000 1.669232 169.000000 435.000000 338.000000 -0.126161 383.000000 0.116583 390.000000 -0.067351 408.000000 -0.066631 31.000000 -1.714184 113.000000 1.284862 177.000000 0.008969
525837.000000 2.200658 291.000000 301.000000 197.000000 -0.045627 241.000000 0.104153 263.000000 -0.100847 284.000000 0.280282 17.000000 0.308854 20.000000 0.215296 43.000000 -0.233088
527279.000000 2.280612 272.000000 300.000000 205.000000 -0.043543 227.000000 0.099308 228.000000 0.089919 279.000000 -0.047227 12.000000 0.472227 20.000000 0.092399 36.000000 -0.137180
532058.000000 2.270090 276.000000 305.000000 224.000000 0.025015 243.000000 0.065204 264.000000 -0.069185 282.000000 -0.058181 13.000000 0.330262 20.000000 0.099839 50.000000 -0.250461
533269.000000 2.291112 286.000000 281.000000 182.000000 0.018713 210.000000 0.115233 214.000000 0.107695 269.000000 0.496191 15.000000 0.250062 20.000000 0.075578 47.000000 -0.256553
534675.000000 2.390644 427.000000 307.000000 224.000000 0.064688 241.000000 0.118559 257.000000 -0.081801 292.000000 0.432572 17.000000 0.246397 178.000000 0.054327 194.000000 -0.065594
535555.000000 2.339311 271.000000 267.000000 170.000000 0.064043 194.000000 0.138825 200.000000 0.105250 256.000000 0.705989 20.000000 0.142288 20.000000 0.142288 45.000000 -0.306851
536954.000000 2.544985 288.000000 599.000000 507.000000 -0.012727 534.000000 0.223262 564.000000 -0.107774 578.000000 -0.069889 12.000000 0.590690 300.000000 2.477759 330.000000 -0.213668
538341.000000 2.377441 267.000000 281.000000 173.000000 -0.035267 215.000000 0.097462 243.000000 -0.062555 258.000000 -0.052322 18.000000 0.200605 20.000000 0.090309 38.000000 -0.271980
538924.000000 2.291486 302.000000 306.000000 211.000000 -0.045755 238.000000 0.092037 241.000000 0.052539 291.000000 0.249072 14.000000 0.416878 20.000000 0.176580 42.000000 -0.260036
542976.000000 2.300467 260.000000 270.000000 179.000000 -0.023041 214.000000 0.117680 223.000000 0.017900 256.000000 0.275064 15.000000 0.243477 20.000000 0.087740 126.000000 -0.147177
543521.000000 2.339472 275.000000 277.000000 124.000000 -0.104280 209.000000 0.105940 213.000000 0.077681 255.000000 -0.009466 16.000000 0.229990 20.000000 0.120569 29.000000 -0.113820
544079.000000 2.435751 281.000000 253.000000 121.000000 -0.131613 191.000000 0.106272 221.000000 -0.016850 235.000000 -0.057007 21.000000 0.015970 20.000000 0.041158 59.000000 -0.371646
549155.000000 1.583385 153.000000 437.000000 342.000000 -0.102821 384.000000 0.067523 407.000000 -0.001615 422.000000 0.210690 23.000000 -2.189640 101.000000 1.598987 164.000000 -0.080381
553477.000000 2.275280 292.000000 304.000000 225.000000 0.016380 244.000000 0.074532 250.000000 0.001898 278.000000 -0.054262 19.000000 0.181437 20.000000 0.146187 40.000000 -0.279347
556020.000000 2.270722 324.000000 687.000000 480.000000 0.017959 511.000000 0.096065 535.000000 0.000582 674.000000 0.469500 23.000000 0.186944 338.000000 2.170175 397.000000 -0.322168
557005.000000 2.386949 298.000000 277.000000 175.000000 -0.000016 216.000000 0.132556 220.000000 0.087635 255.000000 -0.030936 11.000000 0.421447 20.000000 0.055178 50.000000 -0.293834
558412.000000 2.005013 298.000000 153.000000 64.000000 -0.251287 128.000000 -0.098385 119.000000 -0.227900 126.000000 -0.148527 16.000000 0.464231 20.000000 0.326817 100.000000 -0.507695
558565.000000 1.232054 153.000000 448.000000 371.000000 0.014389 390.000000 0.056693 419.000000 0.002476 435.000000 0.452084 22.000000 -1.854139 109.000000 1.158960 110.000000 1.137910
560636.000000 2.055223 278.000000 297.000000 196.000000 -0.031628 228.000000 0.105174 256.000000 -0.033261 276.000000 -0.018920 15.000000 0.416023 20.000000 0.236384 53.000000 -0.274662
561220.000000 2.146399 287.000000 275.000000 180.000000 0.030581 202.000000 0.134075 214.000000 0.120768 253.000000 -0.050735 16.000000 0.303561 21.000000 0.167510 39.000000 -0.240624
561753.000000 2.166095 258.000000 255.000000 170.000000 0.016676 197.000000 0.144748 219.000000 0.019153 247.000000 0.616816 15.000000 0.382144 20.000000 0.141595 42.000000 -0.274817
562008.000000 2.057380 255.000000 264.000000 142.000000 -0.136315 204.000000 0.118902 228.000000 -0.047806 245.000000 -0.019375 15.000000 0.361485 20.000000 0.181392 56.000000 -0.304329
562272.000000 2.096519 264.000000 284.000000 124.000000 -0.079278 217.000000 0.087961 220.000000 0.053587 263.000000 -0.020896 15.000000 0.423400 20.000000 0.219246 124.000000 -0.079278
562556.000000 2.303711 284.000000 177.000000 80.000000 -0.430614 131.000000 -0.046822 143.000000 -0.061837 158.000000 -0.109079 16.000000 0.202363 20.000000 0.073195 46.000000 -0.317887
566641.000000 2.081187 505.000000 269.000000 157.000000 -0.085814 205.000000 0.125095 207.000000 0.105549 257.000000 0.458211 18.000000 0.324008 20.000000 0.224510 53.000000 -0.306036
568049.000000 2.268042 673.000000 170.000000 -1.000000 2.213370 118.000000 -0.057792 135.000000 -0.107180 153.000000 -0.176378 32.000000 -0.231615 20.000000 0.088668 118.000000 -0.057792
568219.000000 1.241773 170.000000 354.000000 254.000000 -0.087114 295.000000 0.046270 307.000000 0.028104 330.000000 -0.019154 19.000000 -0.367678 91.000000 0.554124 92.000000 0.548669
570497.000000 2.218845 241.000000 247.000000 164.000000 -0.001112 196.000000 0.159437 225.000000 0.038934 232.000000 0.293260 13.000000 0.405099 20.000000 0.180223 49.000000 -0.256894
571264.000000 2.279296 265.000000 186.000000 54.000000 -0.290139 130.000000 -0.032426 139.000000 -0.075922 168.000000 -0.121185 13.000000 0.369531 20.000000 0.116050 44.000000 -0.309230
571816.000000 2.317474 366.000000 261.000000 184.000000 0.056145 201.000000 0.125800 228.000000 0.014169 241.000000 -0.071002 15.000000 0.302398 20.000000 0.111896 52.000000 -0.286238
579968.000000 2.525562 657.000000 670.000000 579.000000 -0.027475 607.000000 0.042696 638.000000 -0.023606 658.000000 0.611486 16.000000 0.392755 343.000000 2.428040 396.000000 -0.261479
588126.000000 2.132680 293.000000 149.000000 20.000000 0.181865 126.000000 -0.082195 115.000000 -0.131929 122.000000 -0.126616 15.000000 0.343620 20.000000 0.181865 125.000000 -0.121051
589951.000000 2.491069 282.000000 295.000000 206.000000 -0.010687 240.000000 0.130300 254.000000 -0.002287 274.000000 -0.024792 17.000000 0.195022 20.000000 0.069631 36.000000 -0.237861
590552.000000 2.375906 306.000000 312.000000 239.000000 0.053526 257.000000 0.055282 275.000000 -0.026427 298.000000 0.255170 25.000000 -0.012211 20.000000 0.171409 96.000000 -0.480407
592081.000000 2.225280 269.000000 297.000000 199.000000 -0.029810 229.000000 0.064920 236.000000 0.040829 276.000000 -0.026489 12.000000 0.425749 20.000000 0.070703 52.000000 -0.295426
592687.000000 2.236660 309.000000 306.000000 220.000000 -0.018168 246.000000 0.093903 259.000000 0.006631 294.000000 0.518730 17.000000 0.268886 20.000000 0.174074 41.000000 -0.254721
594172.000000 2.280486 285.000000 279.000000 208.000000 0.086991 225.000000 0.090846 235.000000 -0.040644 256.000000 -0.020692 27.000000 -0.153668 20.000000 0.060250 101.000000 -0.134468
594451.000000 2.175576 279.000000 281.000000 139.000000 -0.099324 223.000000 0.106143 246.000000 -0.000816 253.000000 0.008667 19.000000 0.159792 20.000000 0.109714 113.000000 -0.056285
595058.000000 2.255002 326.000000 640.000000 530.000000 -0.033022 570.000000 0.066896 600.000000 -0.022367 627.000000 0.451695 15.000000 0.290317 326.000000 2.132213 460.000000 -0.033113
596578.000000 2.220881 290.000000 290.000000 201.000000 0.008169 226.000000 0.125080 242.000000 -0.009403 268.000000 -0.024747 14.000000 0.323938 20.000000 0.112700 48.000000 -0.282220
597801.000000 2.173055 632.000000 295.000000 204.000000 -0.000264 233.000000 0.124468 234.000000 0.104610 274.000000 -0.021580 16.000000 0.338857 20.000000 0.178920 32.000000 -0.100077
598096.000000 2.032229 295.000000 274.000000 175.000000 -0.018524 214.000000 0.114233 218.000000 0.062651 262.000000 0.457652 17.000000 0.314268 20.000000 0.154425 121.000000 -0.113946
599231.000000 2.149467 296.000000 303.000000 195.000000 0.003040 244.000000 0.094262 262.000000 -0.017994 282.000000 -0.019752 16.000000 0.349232 20.000000 0.168684 52.000000 -0.271379
600173.000000 2.183007 639.000000 285.000000 189.000000 0.017004 227.000000 0.121659 234.000000 0.104214 264.000000 -0.013122 15.000000 0.319700 20.000000 0.144810 121.000000 -0.043700
603670.000000 2.121066 181.000000 808.000000 474.000000 0.002240 510.000000 2.130629 600.000000 -0.497370 788.000000 -0.056270 17.000000 -0.048761 114.000000 0.104996 170.000000 0.051629
605812.000000 2.151191 529.000000 278.000000 192.000000 0.041692 214.000000 0.098149 237.000000 -0.023825 261.000000 0.081270 23.000000 0.024903 20.000000 0.040953 126.000000 -0.075611
606376.000000 2.041336 286.000000 283.000000 194.000000 0.000438 223.000000 0.142808 246.000000 0.016459 270.000000 0.240204 20.000000 0.074707 20.000000 0.074707 77.000000 -0.363976
606659.000000 1.958087 283.000000 255.000000 172.000000 0.001288 197.000000 0.144312 222.000000 0.007116 236.000000 -0.020550 13.000000 0.374309 20.000000 0.089999 55.000000 -0.274814
606914.000000 1.934762 255.000000 242.000000 129.000000 -0.097117 182.000000 0.165189 184.000000 0.141271 223.000000 0.010454 15.000000 0.307991 20.000000 0.106674 112.000000 -0.121914
607938.000000 1.999605 262.000000 261.000000 143.000000 -0.083775 197.000000 0.131001 199.000000 0.102130 241.000000 -0.028059 15.000000 0.333726 20.000000 0.139055 40.000000 -0.223938
608199.000000 1.978742 261.000000 262.000000 126.000000 -0.109888 194.000000 0.119028 215.000000 -0.003904 241.000000 0.030487 15.000000 0.241549 20.000000 0.171267 40.000000 -0.248716
610255.000000 2.051162 280.000000 270.000000 179.000000 0.025187 213.000000 0.120563 227.000000 0.030985 246.000000 -0.030677 26.000000 -0.063604 21.000000 0.050801 65.000000 -0.321612
611585.000000 1.857935 258.000000 258.000000 169.000000 -0.031927 187.000000 0.088290 190.000000 0.055061 238.000000 -0.050140 19.000000 0.130242 20.000000 0.109929 43.000000 -0.182124
612681.000000 1.770423 293.000000 284.000000 184.000000 -0.029701 219.000000 0.105330 248.000000 -0.027052 264.000000 -0.048277 15.000000 0.371552 20.000000 0.206598 67.000000 -0.290043
613470.000000 1.720251 249.000000 243.000000 132.000000 -0.096331 190.000000 0.126882 211.000000 -0.007366 223.000000 -0.017335 17.000000 0.337319 20.000000 0.181504 47.000000 -0.247397
615515.000000 1.834542 242.000000 229.000000 133.000000 -0.044605 170.000000 0.110407 196.000000 -0.029827 211.000000 -0.006658 11.000000 0.364841 20.000000 0.052114 36.000000 -0.213765
616144.000000 2.217659 160.000000 356.000000 261.000000 -0.080894 296.000000 0.087631 319.000000 -0.008873 344.000000 0.377665 28.000000 -0.197093 170.000000 0.080579 177.000000 0.072853
617323.000000 1.743401 270.000000 150.000000 70.000000 -0.231348 120.000000 -0.080375 124.000000 -0.109701 132.000000 -0.083541 14.000000 0.424592 20.000000 0.240705 70.000000 -0.231348
620030.000000 1.818476 282.000000 281.000000 188.000000 -0.028450 220.000000 0.104091 243.000000 -0.028245 268.000000 0.365592 19.000000 0.154510 20.000000 0.114573 113.000000 0.000266
622094.000000 2.002631 271.000000 258.000000 125.000000 -0.108355 202.000000 0.084246 205.000000 0.037836 239.000000 -0.020862 15.000000 0.327033 20.000000 0.117942 40.000000 -0.206087
622352.000000 2.205001 258.000000 171.000000 44.000000 -0.280735 124.000000 -0.059517 137.000000 -0.072917 151.000000 -0.173418 14.000000 0.157963 20.000000 -0.026159 31.000000 -0.257962
622523.000000 1.567371 171.000000 402.000000 286.000000 -0.119376 344.000000 0.058560 357.000000 -0.056095 381.000000 -0.047206 21.000000 -0.319683 109.000000 0.288870 139.000000 -0.010365
624369.000000 1.839924 266.000000 157.000000 50.000000 -0.324464 124.000000 -0.054117 126.000000 -0.069274 141.000000 -0.154572 17.000000 0.186598 20.000000 0.037916 50.000000 -0.324464
624922.000000 2.050469 396.000000 297.000000 198.000000 -0.009737 231.000000 0.098227 240.000000 0.039293 277.000000 -0.063572 17.000000 0.173355 21.000000 0.111725 39.000000 -0.205514
627518.000000 1.880092 446.000000 295.000000 189.000000 -0.000332 229.000000 0.056163 235.000000 0.041164 272.000000 -0.066345 18.000000 0.302803 20.000000 0.247333 65.000000 -0.286572
628381.000000 1.781586 568.000000 262.000000 178.000000 -0.040999 195.000000 0.097698 205.000000 0.090801 242.000000 -0.052444 13.000000 0.383500 20.000000 0.128860 45.000000 -0.217725
628904.000000 1.808684 261.000000 278.000000 112.000000 -0.069120 222.000000 0.105186 228.000000 0.071597 256.000000 -0.060626 16.000000 0.238136 20.000000 0.158136 55.000000 -0.252588
629733.000000 1.976537 278.000000 299.000000 193.000000 -0.052129 222.000000 0.070125 253.000000 -0.041019 269.000000 -0.042665 20.000000 0.115021 20.000000 0.115021 54.000000 -0.247470
635644.000000 1.829378 269.000000 284.000000 178.000000 -0.028446 227.000000 0.095381 258.000000 -0.037318 272.000000 0.321208 16.000000 0.232889 20.000000 0.082434 41.000000 -0.194728
637607.000000 1.895991 253.000000 266.000000 178.000000 0.001552 197.000000 0.102650 202.000000 0.087461 247.000000 -0.029344 16.000000 0.276493 20.000000 0.110756 38.000000 -0.212315
638703.000000 1.812371 659.000000 299.000000 190.000000 -0.051363 235.000000 0.099076 265.000000 -0.038681 294.000000 1.354846 16.000000 0.385069 20.000000 0.265554 44.000000 -0.237343
640317.000000 2.236719 274.000000 271.000000 146.000000 -0.161633 205.000000 0.114798 220.000000 0.031429 253.000000 -0.040296 23.000000 -0.011714 20.000000 0.093520 61.000000 -0.287622
640588.000000 2.125094 271.000000 561.000000 414.000000 -0.133870 493.000000 0.084044 496.000000 0.054656 538.000000 -0.044171 14.000000 0.329809 282.000000 2.078212 323.000000 -0.236021
641149.000000 2.042223 561.000000 278.000000 176.000000 -0.041568 208.000000 0.077588 231.000000 -0.010861 256.000000 -0.066097 17.000000 0.264577 20.000000 0.174875 47.000000 -0.271254
641565.000000 1.384641 138.000000 386.000000 322.000000 0.010332 338.000000 0.055206 343.000000 0.024015 365.000000 -0.031753 26.000000 -1.479418 98.000000 1.271656 208.000000 -0.295678
643943.000000 2.103745 269.000000 272.000000 183.000000 -0.038968 211.000000 0.086049 219.000000 0.023791 250.000000 -0.066551 13.000000 0.352818 20.000000 0.079636 46.000000 -0.233845
644215.000000 2.073061 272.000000 270.000000 133.000000 -0.142096 209.000000 0.084764 211.000000 0.059326 246.000000 -0.040327 22.000000 0.068124 20.000000 0.108140 60.000000 -0.222409
644485.000000 2.000443 270.000000 291.000000 196.000000 -0.016219 221.000000 0.069890 245.000000 -0.027523 271.000000 -0.021707 22.000000 0.103437 20.000000 0.163171 114.000000 -0.014040
645079.000000 2.282229 303.000000 179.000000 46.000000 -0.243067 116.000000 -0.070811 130.000000 -0.131941 161.000000 -0.160295 15.000000 0.185537 22.000000 0.004865 46.000000 -0.243067
646153.000000 1.737057 254.000000 268.000000 177.000000 -0.044514 203.000000 0.087038 227.000000 -0.025408 247.000000 -0.064672 13.000000 0.228278 20.000000 0.058716 48.000000 -0.186162
646698.000000 1.792114 277.000000 180.000000 65.000000 -0.317369 114.000000 -0.019954 124.000000 -0.062696 161.000000 -0.179186 12.000000 0.300547 20.000000 0.055467 48.000000 -0.265770
647259.000000 1.784531 381.000000 298.000000 200.000000 -0.029278 231.000000 0.071741 247.000000 -0.039843 279.000000 -0.073545 17.000000 0.207397 21.000000 0.126754 47.000000 -0.232510
647557.000000 1.756095 298.000000 178.000000 61.000000 -0.310535 115.000000 -0.064934 121.000000 -0.085154 159.000000 -0.149386 14.000000 0.296832 20.000000 0.125044 43.000000 -0.272808
