250.000000 1.177655 192.000000 222.000000 153.000000 -0.008321 185.000000 0.076867 188.000000 0.046271 211.000000 0.162995 16.000000 -0.051449 131.000000 -0.005418 145.000000 -0.006127
1081.000000 1.129761 214.000000 217.000000 146.000000 -0.014952 170.000000 0.065204 181.000000 0.052022 193.000000 0.049390 18.000000 -0.036853 121.000000 -0.003026 131.000000 -0.039108
1298.000000 1.120063 217.000000 288.000000 144.000000 -0.046174 174.000000 0.077372 180.000000 0.074645 271.000000 0.025538 24.000000 -0.122363 170.000000 0.059769 180.000000 0.074645
1586.000000 1.083781 288.000000 232.000000 166.000000 0.009089 198.000000 0.057176 212.000000 0.040673 214.000000 0.034090 16.000000 -0.098761 108.000000 -0.013220 130.000000 -0.050114
1818.000000 1.040707 232.000000 210.000000 152.000000 0.025094 183.000000 0.083790 190.000000 0.080685 192.000000 0.049681 19.000000 -0.116283 122.000000 0.016775 160.000000 -0.000723
2028.000000 1.100386 210.000000 221.000000 176.000000 0.054879 195.000000 0.055976 206.000000 0.036901 206.000000 0.036901 17.000000 -0.114646 128.000000 0.023529 151.000000 -0.029337
2249.000000 1.049438 221.000000 259.000000 127.000000 -0.085090 165.000000 0.052508 184.000000 0.000989 242.000000 -0.003006 13.000000 -0.085078 153.000000 0.023276 184.000000 0.000989
2508.000000 1.054378 259.000000 241.000000 132.000000 -0.061457 171.000000 0.048384 183.000000 0.017286 224.000000 0.043057 19.000000 -0.107062 111.000000 -0.004887 132.000000 -0.061457
2749.000000 1.044157 241.000000 237.000000 184.000000 0.021882 205.000000 0.062086 216.000000 0.040613 216.000000 0.040613 15.000000 -0.069212 138.000000 -0.005169 159.000000 0.035533
3246.000000 1.040394 260.000000 218.000000 169.000000 0.024373 194.000000 0.075546 201.000000 0.071942 201.000000 0.071942 16.000000 -0.079636 128.000000 -0.004388 157.000000 0.019372
3464.000000 1.103322 218.000000 210.000000 154.000000 0.012495 187.000000 0.066146 183.000000 0.037777 190.000000 0.059610 17.000000 -0.131853 91.000000 -0.019481 114.000000 -0.041423
3674.000000 1.117116 210.000000 477.000000 282.000000 0.030723 300.000000 0.079938 345.000000 -0.143997 461.000000 -0.009766 21.000000 -0.106665 240.000000 0.496335 283.000000 0.035911
4151.000000 0.974717 477.000000 230.000000 172.000000 0.026800 196.000000 0.070215 199.000000 0.022850 214.000000 0.046188 14.000000 -0.097637 135.000000 0.029237 155.000000 0.017604
4381.000000 1.090153 230.000000 214.000000 145.000000 -0.002867 177.000000 0.052948 192.000000 0.018135 194.000000 0.037304 13.000000 -0.026273 127.000000 0.009125 137.000000 -0.030721
4595.000000 1.155734 214.000000 230.000000 139.000000 -0.046050 165.000000 0.073215 175.000000 0.011601 212.000000 0.044906 15.000000 -0.096022 112.000000 0.006203 123.000000 -0.037370
4825.000000 1.080846 230.000000 299.000000 220.000000 -0.026269 260.000000 0.037539 275.000000 -0.024827 284.000000 0.033906 17.000000 -0.125772 164.000000 0.038132 171.000000 0.003289
5124.000000 1.061571 299.000000 238.000000 145.000000 -0.011943 188.000000 0.060612 218.000000 0.036441 219.000000 0.036002 14.000000 -0.044996 140.000000 0.010173 159.000000 0.026381
5631.000000 1.129106 269.000000 197.000000 134.000000 -0.030249 162.000000 0.082382 173.000000 0.045816 177.000000 0.025660 14.000000 -0.069971 108.000000 0.026539 134.000000 -0.030249
5828.000000 1.164660 197.000000 264.000000 186.000000 0.004907 223.000000 0.047088 232.000000 0.012260 244.000000 0.012184 20.000000 -0.109087 156.000000 -0.023185 172.000000 -0.000802
6092.000000 1.065979 264.000000 271.000000 142.000000 -0.052705 175.000000 0.055203 198.000000 0.009058 255.000000 -0.000238 17.000000 -0.077561 109.000000 0.023348 142.000000 -0.052705
6740.000000 0.920678 377.000000 207.000000 152.000000 0.016159 174.000000 0.067760 188.000000 0.057855 189.000000 0.042055 16.000000 -0.146970 115.000000 0.026192 125.000000 -0.032461
6947.000000 1.101222 207.000000 239.000000 181.000000 0.002522 207.000000 0.057930 221.000000 0.037554 222.000000 0.021770 19.000000 -0.154856 135.000000 -0.007714 181.000000 0.002522
7414.000000 1.178577 228.000000 203.000000 151.000000 -0.036437 178.000000 0.064018 186.000000 0.054989 187.000000 0.044331 14.000000 -0.066985 119.000000 0.012463 139.000000 -0.033304
7617.000000 1.135444 203.000000 225.000000 143.000000 0.026413 186.000000 0.073429 203.000000 0.001706 209.000000 0.013636 15.000000 -0.077126 132.000000 0.039047 143.000000 0.026413
7842.000000 1.040045 225.000000 557.000000 307.000000 -0.028322 351.000000 0.277165 382.000000 0.019408 542.000000 0.021459 15.000000 -0.040081 333.000000 0.177100 382.000000 0.019408
8399.000000 1.073560 557.000000 269.000000 150.000000 -0.029618 190.000000 0.041376 216.000000 -0.008266 253.000000 0.026595 15.000000 -0.083144 95.000000 0.024885 100.000000 0.019148
8876.000000 1.158319 208.000000 227.000000 175.000000 -0.018685 193.000000 0.029418 203.000000 -0.002058 209.000000 0.003508 19.000000 -0.101855 134.000000 -0.032648 156.000000 -0.037980
9103.000000 1.019605 227.000000 313.000000 266.000000 -0.001177 289.000000 0.046845 296.000000 0.051672 296.000000 0.051672 17.000000 -0.115944 135.000000 0.040154 155.000000 -0.038512
9899.000000 1.066164 222.000000 349.000000 280.000000 -0.014044 305.000000 0.057148 319.000000 -0.016911 330.000000 -0.007757 14.000000 -0.065687 149.000000 0.045992 157.000000 0.019755
10498.000000 1.040970 250.000000 251.000000 150.000000 -0.023012 173.000000 0.061581 197.000000 0.004798 235.000000 0.029644 15.000000 -0.077166 126.000000 0.022050 150.000000 -0.023012
10952.000000 1.175723 203.000000 475.000000 371.000000 -0.050084 409.000000 0.034937 420.000000 -0.015782 456.000000 0.039488 15.000000 -0.019529 200.000000 0.442993 284.000000 -0.071856
11427.000000 0.969208 475.000000 243.000000 176.000000 0.019528 216.000000 0.060237 222.000000 0.041851 224.000000 0.040786 15.000000 -0.100743 143.000000 -0.000440 176.000000 0.019528
11670.000000 1.098046 243.000000 253.000000 151.000000 -0.048302 177.000000 0.060503 194.000000 0.008733 238.000000 0.058311 15.000000 -0.061607 130.000000 0.008957 151.000000 -0.048302
11923.000000 1.065585 253.000000 244.000000 148.000000 -0.014437 188.000000 0.048147 210.000000 -0.024958 228.000000 0.022739 17.000000 -0.124898 141.000000 0.015408 155.000000 -0.027965
12167.000000 1.133788 244.000000 208.000000 147.000000 -0.000421 167.000000 0.088154 185.000000 0.059313 192.000000 0.079205 14.000000 -0.085505 112.000000 0.013100 134.000000 -0.032131
12789.000000 1.064026 414.000000 227.000000 148.000000 -0.043200 174.000000 0.046424 206.000000 0.007175 211.000000 0.038931 17.000000 -0.081427 126.000000 0.017411 148.000000 -0.043200
13016.000000 1.124622 227.000000 185.000000 118.000000 -0.040141 163.000000 0.047901 161.000000 0.016615 168.000000 0.035283 16.000000 -0.112427 98.000000 0.030207 118.000000 -0.040141
13201.000000 1.166941 185.000000 251.000000 147.000000 -0.036959 178.000000 0.057633 204.000000 -0.052978 234.000000 0.028544 18.000000 -0.078340 121.000000 -0.000059 147.000000 -0.036959
13452.000000 1.016194 251.000000 271.000000 185.000000 0.006599 207.000000 0.067759 228.000000 -0.009952 256.000000 -0.009983 16.000000 -0.088335 159.000000 0.054643 187.000000 0.006412
13723.000000 1.079486 271.000000 254.000000 138.000000 -0.082901 165.000000 0.055501 178.000000 0.027916 237.000000 0.011977 16.000000 -0.124182 129.000000 -0.029751 138.000000 -0.082901
13977.000000 1.062259 254.000000 220.000000 154.000000 -0.019251 175.000000 0.072160 196.000000 0.020282 202.000000 0.014593 17.000000 -0.068464 126.000000 0.024369 139.000000 0.024573
14197.000000 1.201554 220.000000 253.000000 138.000000 -0.073193 171.000000 0.052964 192.000000 -0.012395 234.000000 0.007680 17.000000 -0.093069 147.000000 -0.010061 192.000000 -0.012395
14667.000000 1.181252 217.000000 286.000000 147.000000 -0.059094 175.000000 0.032521 202.000000 -0.019029 272.000000 0.052945 15.000000 -0.076522 169.000000 0.025279 202.000000 -0.019029
15413.000000 1.108809 228.000000 228.000000 164.000000 0.002602 204.000000 0.056172 206.000000 0.040357 213.000000 0.047690 15.000000 -0.075922 101.000000 -0.010733 114.000000 -0.036895
15874.000000 1.106642 233.000000 251.000000 135.000000 -0.062118 168.000000 0.064166 187.000000 0.019166 230.000000 -0.016630 16.000000 -0.110003 145.000000 0.019546 153.000000 0.004453
16125.000000 1.116063 251.000000 226.000000 146.000000 -0.049061 169.000000 0.093916 177.000000 0.058650 207.000000 0.019134 21.000000 -0.151332 121.000000 0.008275 146.000000 -0.049061
16606.000000 1.104402 255.000000 239.000000 141.000000 -0.065062 168.000000 0.069782 198.000000 -0.013105 223.000000 0.011408 20.000000 -0.147120 121.000000 0.015346 126.000000 -0.002444
16845.000000 1.010170 239.000000 151.000000 101.000000 -0.006866 130.000000 0.158149 138.000000 0.583291 145.000000 0.959058 14.000000 -0.136821 89.000000 -0.028808 101.000000 -0.006866
17259.000000 1.032056 263.000000 262.000000 153.000000 -0.032804 187.000000 0.056459 213.000000 -0.022542 247.000000 0.038631 13.000000 -0.060777 97.000000 0.018816 114.000000 -0.056154
17521.000000 1.035731 262.000000 265.000000 150.000000 -0.029707 189.000000 0.037225 201.000000 0.009876 248.000000 0.029449 18.000000 -0.121968 135.000000 -0.000319 150.000000 -0.029707
18513.000000 1.048075 255.000000 234.000000 152.000000 -0.012976 181.000000 0.064815 197.000000 0.007887 216.000000 0.017510 17.000000 -0.126703 139.000000 0.018826 152.000000 -0.012976
18747.000000 1.152826 234.000000 230.000000 181.000000 0.011086 205.000000 0.079722 211.000000 0.096179 213.000000 0.075677 19.000000 -0.120135 133.000000 -0.013019 138.000000 -0.039729
18977.000000 1.140817 230.000000 378.000000 124.000000 -0.664795 227.000000 0.034020 234.000000 0.011543 361.000000 0.006913 15.000000 -0.081251 191.000000 0.508770 234.000000 0.011543
19355.000000 1.031648 378.000000 200.000000 148.000000 -0.005001 173.000000 0.065954 183.000000 0.041330 184.000000 0.055797 17.000000 -0.095011 119.000000 0.033087 131.000000 0.005031
19555.000000 1.131094 200.000000 212.000000 150.000000 -0.006380 171.000000 0.078372 192.000000 0.017227 196.000000 0.039359 14.000000 -0.064047 123.000000 0.036095 136.000000 0.005955
19767.000000 1.137366 212.000000 266.000000 155.000000 -0.011884 188.000000 0.072690 206.000000 0.030074 248.000000 0.044382 16.000000 -0.067683 152.000000 0.020922 156.000000 -0.008687
20274.000000 1.090593 241.000000 237.000000 153.000000 -0.020223 183.000000 0.069230 205.000000 -0.025130 221.000000 0.029259 23.000000 -0.124552 125.000000 -0.002966 133.000000 -0.030285
20692.000000 1.165905 181.000000 355.000000 276.000000 -0.013499 306.000000 0.041659 313.000000 0.031157 336.000000 0.015121 18.000000 -0.076349 162.000000 0.038490 189.000000 -0.013612
21047.000000 1.074054 355.000000 199.000000 147.000000 -0.018120 168.000000 0.054561 179.000000 0.014122 185.000000 0.032525 18.000000 -0.109127 108.000000 0.061377 127.000000 -0.014671
21246.000000 1.142056 199.000000 198.000000 152.000000 -0.030126 173.000000 0.067867 180.000000 0.049214 181.000000 0.043509 15.000000 -0.069605 117.000000 0.000219 152.000000 -0.030126
21444.000000 1.151532 198.000000 194.000000 150.000000 -0.026302 172.000000 0.052664 177.000000 0.065423 178.000000 0.079937 15.000000 -0.061290 106.000000 -0.005280 134.000000 -0.001755
21638.000000 1.170501 194.000000 201.000000 156.000000 -0.035828 177.000000 0.080993 185.000000 0.050679 185.000000 0.050679 18.000000 -0.125504 117.000000 -0.016865 143.000000 -0.003619
22083.000000 1.076790 244.000000 273.000000 151.000000 -0.026940 187.000000 0.067368 213.000000 -0.012509 255.000000 0.007630 20.000000 -0.139181 162.000000 0.008199 213.000000 -0.012509
22356.000000 1.088209 273.000000 262.000000 152.000000 -0.041083 185.000000 0.051458 201.000000 0.005265 245.000000 0.052503 17.000000 -0.089518 94.000000 -0.004737 111.000000 -0.054705
22618.000000 1.109649 262.000000 258.000000 153.000000 -0.056168 192.000000 0.039190 201.000000 -0.013114 242.000000 0.012746 16.000000 -0.086367 96.000000 0.018327 122.000000 -0.043051
22876.000000 1.011507 258.000000 308.000000 175.000000 0.012822 193.000000 0.027305 234.000000 -0.023026 291.000000 -0.032054 17.000000 -0.122809 138.000000 0.059609 158.000000 0.015221
23184.000000 1.045220 308.000000 254.000000 135.000000 -0.034356 202.000000 0.215252 210.000000 0.092039 239.000000 0.027323 17.000000 -0.117429 151.000000 0.032523 187.000000 0.018198
23438.000000 0.903514 254.000000 253.000000 195.000000 0.016223 219.000000 0.104684 231.000000 0.053555 235.000000 0.054557 16.000000 -0.057615 138.000000 -0.055955 145.000000 -0.063244
23691.000000 1.200545 253.000000 247.000000 145.000000 -0.078135 169.000000 0.000219 177.000000 -0.042616 233.000000 -0.037568 15.000000 -0.008797 85.000000 -0.006398 99.000000 -0.064171
24193.000000 1.047425 255.000000 238.000000 113.000000 -0.014245 166.000000 0.065225 173.000000 0.025946 218.000000 0.023346 15.000000 -0.014627 141.000000 0.043909 156.000000 0.011370
24431.000000 1.038408 238.000000 269.000000 150.000000 -0.042021 185.000000 0.058249 221.000000 -0.005215 251.000000 0.033795 22.000000 -0.102738 131.000000 0.001818 151.000000 -0.059890
24700.000000 1.031680 269.000000 267.000000 122.000000 -0.047710 186.000000 0.037912 223.000000 -0.027247 253.000000 0.028346 17.000000 -0.069621 102.000000 0.011850 122.000000 -0.047710
25390.000000 1.170003 197.000000 456.000000 391.000000 -0.020752 410.000000 0.024499 423.000000 0.008952 442.000000 0.022073 15.000000 -0.041893 215.000000 0.416071 324.000000 -0.135716
25846.000000 1.073231 456.000000 257.000000 167.000000 0.045593 198.000000 0.070939 226.000000 -0.033321 240.000000 0.025567 13.000000 -0.054246 151.000000 0.029609 153.000000 0.018229
26103.000000 1.074142 257.000000 206.000000 162.000000 0.016897 182.000000 0.045815 188.000000 0.060549 189.000000 0.049546 16.000000 -0.115544 97.000000 -0.012178 105.000000 -0.023604
26779.000000 1.028016 264.000000 331.000000 291.000000 -0.010314 309.000000 0.030205 316.000000 0.022463 316.000000 0.022463 14.000000 -0.072109 137.000000 0.049202 159.000000 0.000410
27365.000000 1.094465 255.000000 215.000000 155.000000 0.019752 186.000000 0.046586 196.000000 0.045863 200.000000 0.043560 16.000000 -0.101867 96.000000 0.005232 120.000000 -0.033745
27826.000000 1.131052 246.000000 272.000000 189.000000 -0.011238 205.000000 0.026426 238.000000 -0.032527 258.000000 0.035218 17.000000 -0.112646 98.000000 0.026883 130.000000 -0.083464
28332.000000 1.136878 234.000000 287.000000 181.000000 -0.033714 215.000000 0.038099 242.000000 -0.022983 271.000000 0.017863 14.000000 -0.062446 113.000000 0.046369 137.000000 -0.056046
28619.000000 1.113822 287.000000 267.000000 130.000000 -0.097841 162.000000 0.032911 189.000000 -0.035333 249.000000 -0.024545 15.000000 -0.082634 102.000000 0.024325 132.000000 -0.086932
28886.000000 1.095502 267.000000 249.000000 184.000000 0.036206 213.000000 0.064123 226.000000 0.011146 232.000000 0.002650 17.000000 -0.093321 148.000000 0.004152 184.000000 0.036206
29135.000000 1.155502 249.000000 278.000000 155.000000 -0.017611 192.000000 0.047665 204.000000 0.033981 261.000000 0.009164 17.000000 -0.104905 102.000000 0.002138 117.000000 -0.057454
29413.000000 1.094006 278.000000 248.000000 154.000000 -0.046523 178.000000 0.053402 199.000000 -0.011895 234.000000 0.043825 17.000000 -0.041026 130.000000 -0.032855 139.000000 -0.082824
29661.000000 1.065439 248.000000 248.000000 170.000000 -0.016492 194.000000 0.060639 207.000000 0.025138 230.000000 -0.012463 15.000000 -0.077789 140.000000 0.042416 153.000000 0.022350
29909.000000 1.171741 248.000000 295.000000 178.000000 -0.015205 198.000000 0.029621 213.000000 -0.043262 281.000000 0.008388 16.000000 -0.096926 102.000000 0.019316 121.000000 -0.019462
30448.000000 1.079514 244.000000 235.000000 145.000000 0.003370 181.000000 0.077259 201.000000 0.022289 219.000000 0.017837 15.000000 -0.109185 139.000000 0.006661 146.000000 -0.006411
30683.000000 1.193151 235.000000 272.000000 146.000000 -0.074966 174.000000 0.060611 185.000000 0.029122 256.000000 -0.008276 14.000000 -0.022542 162.000000 0.023590 185.000000 0.029122
30955.000000 1.148825 272.000000 195.000000 143.000000 -0.011928 172.000000 0.097260 167.000000 0.070301 174.000000 0.046978 14.000000 -0.079276 113.000000 0.013419 130.000000 -0.024732
31150.000000 1.168045 195.000000 274.000000 122.000000 -0.052660 199.000000 0.065219 231.000000 -0.049466 256.000000 0.011395 22.000000 -0.133286 163.000000 0.021476 184.000000 0.010016
31636.000000 1.145327 212.000000 280.000000 149.000000 -0.016132 193.000000 0.057947 206.000000 0.013214 264.000000 0.009482 17.000000 -0.139864 164.000000 0.015375 180.000000 0.003840
31916.000000 1.086379 280.000000 235.000000 125.000000 -0.005928 165.000000 0.063859 183.000000 0.021007 218.000000 0.041775 13.000000 -0.075675 135.000000 0.011425 150.000000 -0.018164
32151.000000 1.091524 235.000000 189.000000 117.000000 -0.021380 146.000000 0.046569 153.000000 0.002479 174.000000 0.022605 18.000000 -0.147804 91.000000 0.012069 102.000000 -0.038700
32340.000000 1.249237 189.000000 212.000000 144.000000 0.001112 191.000000 0.058947 197.000000 0.091094 198.000000 0.070577 14.000000 -0.078835 101.000000 0.003791 114.000000 -0.029674
32552.000000 1.109369 212.000000 253.000000 187.000000 0.007789 213.000000 0.046318 218.000000 0.024499 235.000000 0.007650 15.000000 -0.082123 100.000000 -0.011919 128.000000 -0.053358
32805.000000 1.100472 253.000000 278.000000 214.000000 -0.019059 248.000000 0.047449 258.000000 -0.000703 262.000000 0.003497 17.000000 -0.075074 164.000000 -0.007596 177.000000 0.014752
33083.000000 1.057040 278.000000 254.000000 154.000000 -0.003696 181.000000 0.062323 204.000000 0.020179 239.000000 0.055336 16.000000 -0.102426 139.000000 0.031242 154.000000 -0.003696
33605.000000 1.105958 268.000000 265.000000 158.000000 -0.017707 191.000000 0.051945 221.000000 -0.029354 247.000000 0.061617 15.000000 -0.134275 96.000000 0.023657 117.000000 -0.085120
33870.000000 1.095675 265.000000 260.000000 172.000000 -0.030521 197.000000 0.078054 225.000000 -0.051426 245.000000 0.069688 17.000000 -0.098305 150.000000 0.029247 173.000000 -0.015224
34130.000000 1.123532 260.000000 249.000000 150.000000 -0.015629 184.000000 0.045986 194.000000 0.034997 233.000000 0.009528 16.000000 -0.097172 143.000000 0.014185 151.000000 -0.029469
34379.000000 1.167476 249.000000 227.000000 177.000000 -0.005558 204.000000 0.094066 211.000000 0.068017 211.000000 0.068017 15.000000 -0.126300 133.000000 0.017386 177.000000 -0.005558
34606.000000 1.115276 227.000000 194.000000 139.000000 -0.026098 170.000000 0.057054 177.000000 0.060908 177.000000 0.060908 17.000000 -0.106622 104.000000 -0.030188 113.000000 -0.049186
34800.000000 1.147917 194.000000 270.000000 150.000000 -0.018553 192.000000 0.084472 194.000000 0.054316 251.000000 0.056530 17.000000 -0.108021 137.000000 0.034517 150.000000 -0.018553
35070.000000 1.138578 270.000000 624.000000 302.000000 -0.645032 378.000000 0.390351 423.000000 0.020493 608.000000 -0.038684 17.000000 -0.046926 373.000000 0.366448 423.000000 0.020493
35914.000000 1.128192 220.000000 252.000000 146.000000 -0.026441 177.000000 0.051585 192.000000 -0.003980 237.000000 0.018950 15.000000 -0.065979 116.000000 0.004247 133.000000 -0.015581
36166.000000 1.046382 252.000000 253.000000 148.000000 -0.037580 181.000000 0.044207 186.000000 0.021668 238.000000 0.018942 14.000000 -0.076877 127.000000 0.024613 149.000000 -0.027125
36419.000000 1.046480 253.000000 224.000000 154.000000 -0.035894 187.000000 0.052460 205.000000 0.036926 206.000000 0.036315 16.000000 -0.119855 133.000000 0.003685 154.000000 -0.035894
36888.000000 1.081661 245.000000 232.000000 153.000000 -0.017098 191.000000 0.063076 210.000000 0.023309 216.000000 0.010097 17.000000 -0.074189 132.000000 0.014311 139.000000 0.008167
37120.000000 1.142666 232.000000 209.000000 154.000000 -0.011316 175.000000 0.050817 188.000000 0.050786 191.000000 0.049469 13.000000 -0.060438 116.000000 0.008195 129.000000 -0.013748
37329.000000 1.152182 209.000000 281.000000 156.000000 -0.071912 189.000000 0.051003 214.000000 -0.034764 263.000000 -0.000140 17.000000 -0.099021 117.000000 -0.001610 156.000000 -0.071912
37875.000000 1.051493 265.000000 258.000000 153.000000 -0.009916 188.000000 0.048530 201.000000 0.017701 243.000000 0.063720 15.000000 -0.072767 144.000000 -0.002988 155.000000 -0.025199
38133.000000 1.061947 258.000000 236.000000 149.000000 -0.018121 189.000000 0.047834 204.000000 -0.007042 222.000000 0.006640 14.000000 -0.077518 140.000000 0.020157 149.000000 -0.018121
38369.000000 1.146686 236.000000 233.000000 136.000000 -0.057977 169.000000 0.054328 177.000000 0.002134 217.000000 0.061635 13.000000 -0.065053 110.000000 -0.001927 126.000000 -0.033276
38602.000000 1.052481 233.000000 249.000000 148.000000 -0.014829 182.000000 0.058743 187.000000 0.031564 232.000000 0.018553 14.000000 -0.072737 139.000000 0.023416 148.000000 -0.014829
38851.000000 1.093397 249.000000 215.000000 162.000000 -0.020017 191.000000 0.064259 198.000000 0.065185 200.000000 0.039072 15.000000 -0.093751 95.000000 0.004764 114.000000 -0.042695
39066.000000 1.114810 215.000000 275.000000 173.000000 -0.019121 193.000000 0.071163 226.000000 -0.038759 258.000000 0.042716 16.000000 -0.107621 151.000000 0.017231 173.000000 -0.019121
39341.000000 1.059408 275.000000 215.000000 159.000000 0.014542 181.000000 0.078882 198.000000 0.074148 198.000000 0.074148 17.000000 -0.118787 105.000000 0.007947 123.000000 -0.041441
39556.000000 1.161031 215.000000 279.000000 220.000000 0.003227 254.000000 0.046461 255.000000 0.041711 263.000000 0.023405 17.000000 -0.140365 146.000000 0.022695 155.000000 -0.027602
40111.000000 1.117354 276.000000 216.000000 160.000000 0.016039 192.000000 0.054582 199.000000 0.059676 199.000000 0.059676 16.000000 -0.123960 101.000000 -0.008007 126.000000 -0.044447
40537.000000 1.155044 210.000000 240.000000 169.000000 0.002147 197.000000 0.071095 205.000000 0.027852 226.000000 0.014561 15.000000 -0.108327 143.000000 0.038134 169.000000 0.002147
40777.000000 1.124245 240.000000 269.000000 123.000000 -0.073099 162.000000 0.034801 185.000000 -0.005495 252.000000 0.025882 14.000000 -0.079815 102.000000 0.042370 123.000000 -0.073099
41046.000000 1.061710 269.000000 254.000000 165.000000 -0.003244 188.000000 0.052255 228.000000 0.007728 237.000000 -0.009766 15.000000 -0.127178 145.000000 0.039454 151.000000 -0.000217
41300.000000 1.125880 254.000000 265.000000 186.000000 -0.005548 215.000000 0.057335 239.000000 -0.003683 246.000000 -0.040361 16.000000 -0.117095 101.000000 0.018436 134.000000 -0.081394
41565.000000 1.137004 265.000000 250.000000 147.000000 -0.042698 178.000000 0.045720 188.000000 -0.001459 234.000000 0.005262 18.000000 -0.075350 119.000000 -0.003124 147.000000 -0.042698
42048.000000 1.142946 233.000000 240.000000 152.000000 -0.031224 187.000000 0.077587 209.000000 -0.012682 223.000000 0.042240 18.000000 -0.070219 127.000000 0.025001 152.000000 -0.031224
42288.000000 1.113869 240.000000 200.000000 125.000000 -0.022776 164.000000 0.066176 181.000000 0.040735 182.000000 0.050313 16.000000 -0.121665 109.000000 0.012661 110.000000 -0.011586
42488.000000 1.203262 200.000000 192.000000 152.000000 -0.043147 171.000000 0.085193 175.000000 0.084486 176.000000 0.074266 17.000000 -0.054104 107.000000 -0.012304 120.000000 -0.016474
42680.000000 1.172669 192.000000 238.000000 151.000000 -0.012344 197.000000 0.045129 205.000000 -0.034463 223.000000 0.029892 15.000000 -0.085856 141.000000 -0.003395 151.000000 -0.012344
42918.000000 1.170014 238.000000 197.000000 129.000000 -0.041426 162.000000 0.054624 176.000000 0.035786 181.000000 0.034063 15.000000 -0.098874 104.000000 0.042413 131.000000 -0.051411
43115.000000 1.216400 197.000000 230.000000 144.000000 -0.026377 164.000000 0.064012 177.000000 0.032225 215.000000 0.019547 12.000000 -0.039554 116.000000 0.000666 125.000000 -0.047862
43345.000000 1.111003 230.000000 204.000000 154.000000 -0.006566 174.000000 0.063512 182.000000 0.039907 188.000000 0.061223 17.000000 -0.118901 90.000000 -0.007475 114.000000 -0.047771
43549.000000 1.139122 204.000000 251.000000 134.000000 -0.067575 163.000000 0.074232 172.000000 0.033418 230.000000 0.003216 19.000000 -0.101021 149.000000 -0.011664 172.000000 0.033418
44132.000000 1.046319 332.000000 239.000000 151.000000 -0.025126 191.000000 0.050233 214.000000 -0.005111 221.000000 0.013634 17.000000 -0.092314 138.000000 0.005361 151.000000 -0.025126
44371.000000 1.133478 239.000000 680.000000 412.000000 -0.045063 456.000000 0.315246 493.000000 0.059003 664.000000 -0.014232 16.000000 -0.111064 312.000000 0.419449 358.000000 -0.034609
45051.000000 1.024170 680.000000 462.000000 161.000000 -0.875753 286.000000 0.040119 298.000000 -0.029834 446.000000 -0.011142 15.000000 -0.042084 225.000000 0.541476 277.000000 0.010338
45513.000000 1.191948 462.000000 468.000000 158.000000 -1.112728 281.000000 0.031706 323.000000 -0.138982 451.000000 0.016315 14.000000 -0.003647 238.000000 0.513716 323.000000 -0.138982
45981.000000 1.074936 468.000000 254.000000 136.000000 -0.039640 168.000000 0.086455 186.000000 0.009873 235.000000 0.002007 19.000000 -0.145223 149.000000 0.007426 186.000000 0.009873
46235.000000 1.096646 254.000000 431.000000 211.000000 -0.253989 261.000000 0.117856 266.000000 0.102918 412.000000 -0.009453 18.000000 -0.106155 191.000000 0.324128 211.000000 -0.253989
46666.000000 1.003621 431.000000 445.000000 221.000000 -0.054354 268.000000 0.200092 299.000000 -0.000475 424.000000 -0.006141 18.000000 -0.143953 183.000000 0.467746 198.000000 -0.490889
47111.000000 1.114658 445.000000 245.000000 146.000000 -0.020128 182.000000 0.077100 195.000000 0.030845 229.000000 0.037427 20.000000 -0.112379 129.000000 0.004669 137.000000 -0.030786
47356.000000 1.117536 245.000000 471.000000 259.000000 -0.072655 298.000000 0.171046 323.000000 -0.015929 453.000000 0.043606 17.000000 -0.122512 214.000000 0.469526 231.000000 -0.470052
47827.000000 1.144122 471.000000 272.000000 179.000000 0.004700 199.000000 0.047587 213.000000 -0.006158 252.000000 0.049739 15.000000 -0.079344 104.000000 0.013145 127.000000 -0.048217
48836.000000 1.156804 737.000000 252.000000 164.000000 0.011322 180.000000 0.037999 194.000000 0.010145 236.000000 -0.003288 14.000000 -0.089715 150.000000 0.009629 160.000000 -0.018395
49088.000000 1.128732 252.000000 227.000000 170.000000 0.002760 195.000000 0.052116 205.000000 0.006379 210.000000 0.018244 16.000000 -0.110232 96.000000 0.009516 105.000000 -0.070954
49315.000000 1.098508 227.000000 202.000000 153.000000 -0.011068 175.000000 0.065060 182.000000 0.048430 187.000000 0.039308 16.000000 -0.092434 115.000000 -0.005191 136.000000 -0.042447
49517.000000 1.104857 202.000000 159.000000 110.000000 -0.027666 138.000000 0.181362 112.000000 -0.017728 119.000000 -0.022697 14.000000 -0.143812 94.000000 0.009467 110.000000 -0.027666
49996.000000 1.078248 320.000000 292.000000 153.000000 -0.032233 191.000000 0.048310 220.000000 -0.008261 274.000000 -0.010659 7.000000 0.267605 112.000000 0.019493 133.000000 -0.032343
50288.000000 1.110393 292.000000 270.000000 141.000000 -0.058443 182.000000 0.067933 204.000000 -0.001504 253.000000 0.044028 16.000000 -0.072160 161.000000 0.003704 171.000000 -0.015277
50811.000000 1.105926 253.000000 246.000000 160.000000 0.000517 198.000000 0.075300 205.000000 0.036647 229.000000 -0.003085 17.000000 -0.131690 145.000000 -0.001114 164.000000 0.004263
51323.000000 1.136564 266.000000 197.000000 113.000000 0.023170 167.000000 0.078888 175.000000 0.054781 180.000000 0.033966 19.000000 -0.116835 117.000000 0.039973 170.000000 0.069845
51813.000000 1.081956 293.000000 271.000000 167.000000 0.001392 193.000000 0.048855 206.000000 -0.015204 254.000000 0.013366 17.000000 -0.143250 107.000000 0.018535 122.000000 -0.063738
52084.000000 1.101877 271.000000 284.000000 226.000000 -0.022430 263.000000 0.051680 265.000000 0.031131 266.000000 0.015864 17.000000 -0.079379 167.000000 0.013484 218.000000 -0.043104
52368.000000 1.057197 284.000000 244.000000 162.000000 -0.020672 201.000000 0.064687 215.000000 -0.014732 230.000000 0.011478 17.000000 -0.088397 145.000000 0.007415 162.000000 -0.020672
52612.000000 1.179615 244.000000 307.000000 249.000000 -0.032115 286.000000 0.047275 284.000000 0.027244 291.000000 0.021867 16.000000 -0.080838 125.000000 0.043533 150.000000 -0.060887
52919.000000 1.050943 307.000000 249.000000 156.000000 -0.028107 189.000000 0.054135 205.000000 -0.034548 232.000000 0.045111 15.000000 -0.053788 142.000000 0.029153 158.000000 -0.036304
53168.000000 1.163041 249.000000 252.000000 183.000000 0.007997 205.000000 0.052542 221.000000 -0.012364 236.000000 -0.005969 16.000000 -0.148837 150.000000 0.024690 173.000000 0.004941
53420.000000 1.132857 252.000000 245.000000 142.000000 -0.023696 175.000000 0.069968 199.000000 0.000332 229.000000 0.053859 16.000000 -0.103239 120.000000 0.013172 142.000000 -0.023696
53665.000000 1.113470 245.000000 299.000000 151.000000 -0.050369 187.000000 0.027356 202.000000 -0.007303 284.000000 0.033826 16.000000 -0.127671 134.000000 0.039742 151.000000 -0.050369
53964.000000 1.064955 299.000000 280.000000 206.000000 -0.029465 231.000000 0.052306 246.000000 -0.032584 266.000000 0.011305 13.000000 -0.100512 93.000000 0.021027 97.000000 -0.038894
54552.000000 1.103296 308.000000 229.000000 183.000000 -0.013071 208.000000 0.071992 205.000000 0.033184 212.000000 0.075252 18.000000 -0.142364 105.000000 -0.018461 132.000000 -0.099638
54781.000000 1.151066 229.000000 217.000000 129.000000 -0.053825 165.000000 0.062271 199.000000 0.057572 204.000000 0.044830 16.000000 -0.111627 111.000000 -0.004136 129.000000 -0.053825
54998.000000 1.202686 217.000000 235.000000 159.000000 0.011569 200.000000 0.069468 212.000000 0.012714 217.000000 0.019972 4.000000 0.865507 140.000000 0.009656 159.000000 0.011569
55233.000000 1.130225 235.000000 310.000000 204.000000 -0.004214 234.000000 0.033464 247.000000 -0.049217 293.000000 -0.000595 15.000000 -0.069836 121.000000 0.062967 153.000000 -0.033302
55543.000000 1.038938 310.000000 252.000000 147.000000 -0.006775 183.000000 0.069809 213.000000 -0.020627 236.000000 -0.058964 16.000000 -0.096249 135.000000 0.040717 147.000000 -0.006775
55795.000000 1.077212 252.000000 264.000000 158.000000 0.014937 206.000000 0.068148 214.000000 0.034010 249.000000 0.040875 16.000000 -0.122881 146.000000 0.048510 158.000000 0.014937
56059.000000 1.138240 264.000000 250.000000 152.000000 -0.049596 188.000000 0.051017 212.000000 -0.012275 237.000000 0.040062 14.000000 -0.085696 86.000000 0.009105 101.000000 -0.062403
56598.000000 1.113570 289.000000 273.000000 151.000000 -0.055912 178.000000 0.048840 186.000000 0.030487 253.000000 0.014535 15.000000 -0.043502 160.000000 -0.004282 186.000000 0.030487
56871.000000 1.092291 273.000000 256.000000 191.000000 -0.010816 210.000000 0.080123 225.000000 0.013996 239.000000 -0.001943 17.000000 -0.105313 151.000000 0.039045 181.000000 -0.000925
57127.000000 1.170314 256.000000 244.000000 148.000000 -0.007242 172.000000 0.065378 185.000000 -0.008461 228.000000 0.012666 19.000000 -0.092035 136.000000 0.027662 148.000000 -0.007242
57371.000000 1.171584 244.000000 228.000000 175.000000 0.021267 191.000000 0.069904 207.000000 -0.033355 212.000000 -0.021144 15.000000 -0.096847 130.000000 0.011865 152.000000 -0.045252
57599.000000 1.155126 228.000000 253.000000 135.000000 -0.067228 167.000000 0.070893 195.000000 -0.012415 238.000000 0.026271 15.000000 -0.070691 119.000000 -0.023231 135.000000 -0.067228
57852.000000 1.133766 253.000000 240.000000 152.000000 -0.034828 190.000000 0.063131 198.000000 -0.007934 222.000000 -0.011521 16.000000 -0.081513 141.000000 0.008951 145.000000 -0.034654
58092.000000 1.147034 240.000000 269.000000 175.000000 -0.012759 196.000000 0.073684 234.000000 -0.028125 254.000000 0.013506 20.000000 -0.188578 99.000000 0.032879 122.000000 -0.075238
58361.000000 1.163224 269.000000 211.000000 156.000000 -0.028699 179.000000 0.074717 187.000000 0.051942 193.000000 0.039230 15.000000 -0.078831 125.000000 0.003985 156.000000 -0.028699
58572.000000 1.175514 211.000000 266.000000 168.000000 -0.008904 190.000000 0.068838 223.000000 -0.026659 251.000000 0.047559 18.000000 -0.113407 142.000000 0.014935 150.000000 0.001018
58838.000000 1.158389 266.000000 228.000000 182.000000 0.029183 206.000000 0.073573 209.000000 0.036456 211.000000 0.050092 16.000000 -0.129585 135.000000 -0.012007 154.000000 -0.014203
59066.000000 1.163635 228.000000 334.000000 220.000000 -0.026868 253.000000 0.024026 273.000000 -0.038152 317.000000 0.004292 14.000000 -0.092664 168.000000 0.050076 220.000000 -0.026868
59609.000000 1.175108 209.000000 270.000000 125.000000 -0.094604 198.000000 0.078857 213.000000 0.007964 252.000000 0.051586 17.000000 -0.114186 160.000000 0.036351 187.000000 0.030581
59879.000000 1.168374 270.000000 239.000000 168.000000 0.000501 191.000000 0.091926 201.000000 -0.011099 221.000000 0.042506 16.000000 -0.121047 138.000000 0.011896 151.000000 -0.086271
60118.000000 1.235904 239.000000 242.000000 137.000000 -0.049406 169.000000 0.067149 177.000000 -0.027787 227.000000 0.005865 17.000000 -0.173720 109.000000 0.049526 137.000000 -0.049406
60360.000000 1.088307 242.000000 205.000000 156.000000 -0.032711 178.000000 0.110457 188.000000 0.039125 188.000000 0.039125 16.000000 -0.090471 121.000000 0.013528 144.000000 -0.039920
60565.000000 1.160006 205.000000 198.000000 128.000000 0.026236 177.000000 0.084949 178.000000 0.079761 179.000000 0.084447 14.000000 -0.056106 117.000000 -0.002666 138.000000 -0.026978
60763.000000 1.241471 198.000000 254.000000 180.000000 -0.004229 204.000000 0.069328 221.000000 0.012307 237.000000 0.022370 16.000000 -0.096852 148.000000 0.015142 182.000000 0.031257
61017.000000 1.136429 254.000000 255.000000 158.000000 -0.012914 188.000000 0.104908 201.000000 -0.065219 240.000000 0.075987 17.000000 -0.110780 152.000000 0.088403 159.000000 -0.008839
61272.000000 1.135768 255.000000 255.000000 161.000000 -0.057241 198.000000 0.200080 212.000000 0.049547 234.000000 0.112148 17.000000 -0.073369 25.000000 0.153418 35.000000 -0.144341
61791.000000 1.229280 264.000000 228.000000 149.000000 -0.113996 176.000000 0.070800 188.000000 0.007400 212.000000 0.093071 21.000000 -0.105862 132.000000 0.012745 150.000000 -0.103243
62019.000000 1.352272 228.000000 232.000000 182.000000 0.000486 211.000000 0.055829 214.000000 0.032302 216.000000 0.045327 17.000000 -0.115376 115.000000 -0.031065 135.000000 -0.069072
62251.000000 1.203350 232.000000 223.000000 159.000000 -0.011739 178.000000 0.040911 202.000000 0.028091 209.000000 -0.005514 14.000000 -0.054705 100.000000 -0.020294 115.000000 -0.067065
62474.000000 1.211304 223.000000 236.000000 145.000000 -0.017119 176.000000 0.063177 183.000000 0.037079 220.000000 0.043197 13.000000 -0.044432 117.000000 0.007207 145.000000 -0.017119
62710.000000 1.135972 236.000000 269.000000 228.000000 -0.012853 247.000000 0.047569 246.000000 0.042412 253.000000 0.018322 16.000000 -0.087616 91.000000 0.022784 121.000000 -0.020039
63209.000000 1.197914 230.000000 269.000000 176.000000 -0.000645 204.000000 0.053459 211.000000 0.018053 251.000000 0.057710 17.000000 -0.105834 149.000000 0.017527 155.000000 0.003372
63716.000000 1.172521 238.000000 230.000000 149.000000 -0.031448 176.000000 0.049009 191.000000 -0.036618 212.000000 0.012755 16.000000 -0.099535 123.000000 -0.023987 136.000000 -0.047387
64468.000000 1.251113 249.000000 300.000000 256.000000 -0.084607 275.000000 0.124564 280.000000 -0.028681 284.000000 0.086695 14.000000 -0.057070 178.000000 0.069279 198.000000 -0.018434
64991.000000 1.209044 223.000000 247.000000 143.000000 -0.013164 163.000000 0.111397 185.000000 0.086256 240.000000 0.592619 7.000000 0.284938 115.000000 0.025034 132.000000 -0.067693
65238.000000 1.211412 247.000000 281.000000 178.000000 -0.022037 207.000000 0.091347 212.000000 0.001864 265.000000 0.029296 13.000000 -0.051958 165.000000 0.055205 178.000000 -0.022037
65808.000000 1.218512 289.000000 232.000000 154.000000 0.034481 179.000000 0.174779 183.000000 -0.071146 216.000000 -0.010345 16.000000 -0.104859 132.000000 0.029701 154.000000 0.034481
66624.000000 1.227605 321.000000 198.000000 124.000000 -0.110392 161.000000 0.180329 175.000000 0.085487 183.000000 0.205580 12.000000 -0.012786 101.000000 0.098495 125.000000 -0.149137
66822.000000 1.392037 198.000000 258.000000 149.000000 -0.082444 175.000000 0.157414 178.000000 -0.126974 244.000000 -0.025140 14.000000 0.069076 138.000000 0.136615 159.000000 0.002117
67331.000000 1.284766 251.000000 241.000000 150.000000 0.004230 179.000000 0.300313 197.000000 0.019687 224.000000 -0.006301 19.000000 -0.065563 126.000000 0.164450 150.000000 0.004230
67572.000000 1.248950 241.000000 265.000000 178.000000 -0.095188 212.000000 0.141004 223.000000 -0.001237 250.000000 0.036255 15.000000 -0.030691 109.000000 0.127176 130.000000 -0.116568
69079.000000 1.352570 259.000000 225.000000 136.000000 -0.112995 173.000000 0.131159 196.000000 -0.107666 204.000000 -0.138073 16.000000 0.004169 55.000000 0.120157 64.000000 -0.113511
70290.000000 1.252131 275.000000 245.000000 200.000000 0.010736 223.000000 0.229109 224.000000 0.159312 227.000000 0.004922 16.000000 -0.095565 122.000000 0.075297 140.000000 -0.094422
70535.000000 1.374874 245.000000 257.000000 187.000000 -0.024746 210.000000 0.025896 220.000000 -0.062914 241.000000 -0.020237 14.000000 0.086488 148.000000 -0.015321 187.000000 -0.024746
70792.000000 1.190846 257.000000 234.000000 175.000000 0.016521 206.000000 0.055689 215.000000 0.016568 217.000000 0.024781 17.000000 -0.161504 102.000000 -0.015970 109.000000 -0.055846
71026.000000 1.239324 234.000000 256.000000 150.000000 -0.049376 175.000000 0.056787 194.000000 0.012633 239.000000 0.020141 14.000000 -0.021665 133.000000 0.000201 139.000000 -0.003059
71282.000000 1.166082 256.000000 224.000000 155.000000 0.007493 182.000000 0.077412 201.000000 0.016989 207.000000 0.006613 14.000000 -0.089797 130.000000 0.018806 146.000000 0.005516
71506.000000 1.196158 224.000000 222.000000 150.000000 -0.014670 181.000000 0.068714 194.000000 0.029875 203.000000 -0.001661 16.000000 -0.085267 127.000000 0.004268 136.000000 -0.027632
71728.000000 1.282056 222.000000 207.000000 159.000000 -0.011224 182.000000 0.082677 190.000000 0.063632 190.000000 0.063632 17.000000 -0.104998 122.000000 0.020898 136.000000 -0.027678
71935.000000 1.279982 207.000000 632.000000 321.000000 -0.057152 382.000000 0.213744 402.000000 0.042802 613.000000 -0.046097 15.000000 -0.030224 202.000000 0.578467 249.000000 -0.000455
72567.000000 1.149782 632.000000 226.000000 138.000000 -0.032462 164.000000 0.076910 183.000000 0.022947 207.000000 0.070378 19.000000 -0.141083 112.000000 0.039905 138.000000 -0.032462
73016.000000 1.209470 223.000000 208.000000 156.000000 -0.014594 183.000000 0.075625 192.000000 0.056612 193.000000 0.051126 13.000000 -0.092018 123.000000 0.008639 156.000000 -0.014594
73224.000000 1.203147 208.000000 239.000000 190.000000 0.021126 216.000000 0.057847 223.000000 0.058882 223.000000 0.058882 13.000000 -0.059690 132.000000 -0.004138 148.000000 -0.022540
73463.000000 1.138818 239.000000 248.000000 169.000000 0.010160 187.000000 0.040552 219.000000 -0.044057 229.000000 -0.012756 17.000000 -0.124818 144.000000 0.009938 152.000000 -0.025814
74250.000000 1.163125 258.000000 219.000000 172.000000 0.002041 198.000000 0.081068 195.000000 0.055268 202.000000 0.065205 22.000000 -0.145248 126.000000 -0.023508 174.000000 0.013592
74469.000000 1.206162 219.000000 360.000000 122.000000 -0.668669 216.000000 0.171547 251.000000 -0.012868 345.000000 -0.026251 18.000000 -0.090579 194.000000 0.530028 251.000000 -0.012868
74829.000000 1.039533 360.000000 241.000000 175.000000 0.003915 194.000000 0.042490 218.000000 -0.000016 224.000000 0.016898 16.000000 -0.103584 140.000000 0.022792 154.000000 -0.008087
75070.000000 1.054300 241.000000 205.000000 146.000000 -0.003935 170.000000 0.067227 183.000000 0.049077 188.000000 0.071538 15.000000 -0.088615 115.000000 0.030846 127.000000 -0.007946
75275.000000 1.112307 205.000000 203.000000 147.000000 -0.021820 169.000000 0.064749 182.000000 0.027321 188.000000 0.034312 17.000000 -0.061547 120.000000 0.025517 132.000000 -0.019218
75478.000000 1.199955 203.000000 477.000000 226.000000 -0.042382 301.000000 0.024172 341.000000 -0.076502 460.000000 -0.001835 16.000000 -0.076626 182.000000 0.520358 204.000000 -0.074484
75955.000000 1.109343 477.000000 268.000000 146.000000 -0.110177 174.000000 0.064747 206.000000 -0.011645 250.000000 0.021020 16.000000 -0.092118 112.000000 0.010650 146.000000 -0.110177
76223.000000 1.149769 268.000000 224.000000 164.000000 -0.000973 188.000000 0.054074 199.000000 0.047399 206.000000 0.036945 18.000000 -0.109810 133.000000 -0.002834 148.000000 -0.031629
76686.000000 1.276667 239.000000 212.000000 135.000000 -0.023795 162.000000 0.077414 184.000000 -0.006629 196.000000 0.034815 16.000000 -0.129477 112.000000 0.022711 135.000000 -0.023795
76898.000000 1.297606 212.000000 253.000000 131.000000 -0.071846 166.000000 0.053481 183.000000 -0.011144 235.000000 -0.013306 17.000000 -0.142063 106.000000 0.003092 131.000000 -0.071846
77151.000000 1.207528 253.000000 199.000000 144.000000 -0.046504 177.000000 0.072198 173.000000 0.038202 180.000000 0.040897 17.000000 -0.097471 117.000000 0.022947 131.000000 -0.027350
77540.000000 1.317271 190.000000 257.000000 176.000000 0.011131 201.000000 0.059578 207.000000 0.030173 241.000000 -0.018718 12.000000 -0.040188 148.000000 0.021961 176.000000 0.011131
77797.000000 1.197613 257.000000 238.000000 172.000000 -0.004219 197.000000 0.045062 199.000000 0.008792 218.000000 0.010189 16.000000 -0.141634 138.000000 0.023898 156.000000 -0.028906
78035.000000 1.189564 238.000000 241.000000 144.000000 -0.021720 169.000000 0.070109 190.000000 0.000093 225.000000 0.021971 17.000000 -0.079132 121.000000 0.008359 144.000000 -0.021720
78521.000000 1.151598 245.000000 245.000000 172.000000 0.014389 194.000000 0.055428 214.000000 0.005176 226.000000 0.008891 14.000000 -0.089439 144.000000 0.011250 172.000000 0.014389
78766.000000 1.152686 245.000000 222.000000 147.000000 -0.052428 171.000000 0.056773 197.000000 0.003121 204.000000 -0.020405 18.000000 -0.099167 121.000000 0.002319 128.000000 -0.013072
79166.000000 1.245723 178.000000 310.000000 162.000000 -0.022710 198.000000 0.032037 221.000000 -0.006617 295.000000 0.011832 12.000000 -0.089699 142.000000 0.042385 162.000000 -0.022710
79476.000000 1.128323 310.000000 242.000000 122.000000 -0.057195 150.000000 0.047710 160.000000 -0.008967 226.000000 -0.005028 14.000000 -0.104076 144.000000 0.035313 160.000000 -0.008967
79718.000000 1.225554 242.000000 239.000000 138.000000 -0.046721 166.000000 0.069471 186.000000 -0.013194 224.000000 0.044922 15.000000 -0.084476 118.000000 0.000631 138.000000 -0.046721
79957.000000 1.140609 239.000000 255.000000 159.000000 -0.033438 191.000000 0.060610 218.000000 -0.036754 239.000000 0.042291 16.000000 -0.126179 137.000000 0.019574 159.000000 -0.033438
80212.000000 1.180365 255.000000 249.000000 206.000000 0.022900 225.000000 0.069498 228.000000 0.056113 231.000000 0.066740 17.000000 -0.145102 146.000000 0.018637 192.000000 -0.010612
80461.000000 1.245221 249.000000 441.000000 370.000000 -0.047506 397.000000 0.040206 404.000000 0.003638 424.000000 0.002680 16.000000 -0.037459 198.000000 0.484272 265.000000 -0.070197
80902.000000 1.040973 441.000000 283.000000 166.000000 -0.021694 194.000000 0.178527 209.000000 -0.034294 263.000000 0.008951 15.000000 -0.034090 141.000000 0.022240 150.000000 -0.037399
81386.000000 1.267054 201.000000 258.000000 163.000000 -0.026882 199.000000 0.189968 220.000000 -0.101821 244.000000 0.265327 15.000000 0.378355 89.000000 0.429312 113.000000 -0.051645
81644.000000 1.066817 258.000000 231.000000 121.000000 -0.053197 158.000000 0.069043 165.000000 -0.055659 216.000000 -0.014075 17.000000 -0.101570 133.000000 0.068496 143.000000 0.031598
81875.000000 1.228057 231.000000 223.000000 156.000000 -0.042100 189.000000 0.102837 194.000000 -0.020157 209.000000 0.049560 16.000000 -0.106426 114.000000 0.038089 123.000000 -0.011536
82098.000000 1.168181 223.000000 294.000000 192.000000 0.084983 218.000000 0.328808 248.000000 0.054718 277.000000 0.091945 14.000000 -0.098543 175.000000 0.335187 192.000000 0.084983
82919.000000 1.274780 256.000000 213.000000 139.000000 -0.274419 159.000000 0.428433 184.000000 -0.035626 196.000000 0.127415 16.000000 -0.137932 41.000000 0.184812 56.000000 -0.454749
83132.000000 1.425722 213.000000 262.000000 173.000000 -0.029371 201.000000 0.482055 212.000000 -0.107898 242.000000 -0.069433 18.000000 -0.104091 108.000000 0.291066 121.000000 -0.214891
83394.000000 1.454124 262.000000 272.000000 159.000000 -0.129513 189.000000 0.249860 204.000000 -0.087711 253.000000 -0.121847 10.000000 0.330754 153.000000 0.191442 170.000000 -0.064450
84523.000000 1.326130 203.000000 264.000000 156.000000 -0.021662 190.000000 0.126567 235.000000 0.042601 246.000000 0.148714 20.000000 -0.147617 147.000000 0.067709 156.000000 -0.021662
84787.000000 1.287538 264.000000 273.000000 220.000000 -0.088621 243.000000 0.118620 254.000000 -0.066755 255.000000 -0.062634 12.000000 -0.033183 108.000000 0.040378 135.000000 -0.142398
86537.000000 1.327336 225.000000 590.000000 487.000000 -0.095911 517.000000 0.167932 534.000000 -0.073103 572.000000 0.050003 12.000000 0.066176 277.000000 0.626444 384.000000 -0.146223
87401.000000 1.042650 274.000000 276.000000 209.000000 -0.054356 238.000000 0.311158 253.000000 0.054482 255.000000 0.099310 24.000000 -0.021049 151.000000 0.113231 171.000000 -0.039245
87677.000000 1.239198 276.000000 210.000000 165.000000 -0.082682 188.000000 0.198573 184.000000 0.059592 191.000000 -0.002619 12.000000 0.023336 118.000000 0.186615 127.000000 -0.218056
87887.000000 1.256757 210.000000 262.000000 150.000000 -0.100392 169.000000 0.181067 179.000000 -0.148291 246.000000 0.015141 13.000000 0.036820 120.000000 0.205958 127.000000 -0.169231
88393.000000 1.255078 244.000000 241.000000 135.000000 -0.103703 168.000000 0.057868 185.000000 -0.032117 225.000000 -0.010468 15.000000 -0.104167 109.000000 0.002894 136.000000 -0.107731
88634.000000 1.135547 241.000000 222.000000 148.000000 -0.045799 179.000000 0.096991 186.000000 -0.017163 206.000000 -0.010014 16.000000 -0.111052 125.000000 0.006095 134.000000 -0.045174
88856.000000 1.239484 222.000000 216.000000 145.000000 -0.059232 174.000000 0.088573 182.000000 0.036739 200.000000 -0.016569 14.000000 -0.062441 119.000000 0.039970 145.000000 -0.059232
89598.000000 1.186710 285.000000 299.000000 249.000000 -0.043812 277.000000 0.021518 281.000000 0.039951 282.000000 0.054574 17.000000 -0.120278 103.000000 0.039756 141.000000 -0.063258
89897.000000 1.197379 299.000000 265.000000 146.000000 -0.045418 196.000000 0.054348 209.000000 0.008611 249.000000 0.037218 14.000000 -0.063308 87.000000 0.013895 115.000000 -0.075275
90162.000000 1.118141 265.000000 205.000000 159.000000 -0.007160 182.000000 0.051807 186.000000 0.050428 189.000000 0.049425 13.000000 -0.029572 97.000000 -0.011079 111.000000 -0.057930
90367.000000 1.229520 205.000000 222.000000 173.000000 0.025708 192.000000 0.068324 201.000000 0.025015 205.000000 0.048652 15.000000 -0.106042 132.000000 -0.000918 153.000000 -0.043413
90589.000000 1.202285 222.000000 267.000000 141.000000 -0.056553 181.000000 0.064942 225.000000 -0.011191 253.000000 0.034031 14.000000 -0.076197 133.000000 -0.010676 141.000000 -0.056553
90856.000000 1.101461 267.000000 263.000000 151.000000 -0.052131 178.000000 0.070721 200.000000 -0.005644 247.000000 0.016733 13.000000 -0.061452 129.000000 0.001116 137.000000 -0.030311
92402.000000 1.146362 265.000000 411.000000 200.000000 -0.188281 247.000000 0.040905 262.000000 -0.046759 395.000000 0.008679 16.000000 -0.108826 155.000000 0.484244 201.000000 -0.163783
93011.000000 1.221492 198.000000 247.000000 154.000000 -0.031783 182.000000 0.062338 187.000000 0.023560 229.000000 0.029469 15.000000 -0.092300 141.000000 0.033655 155.000000 -0.030090
93258.000000 1.171676 247.000000 408.000000 210.000000 0.419301 245.000000 0.053408 267.000000 -0.057518 393.000000 0.024437 13.000000 -0.010973 206.000000 0.437075 210.000000 0.419301
93666.000000 1.059565 408.000000 255.000000 193.000000 0.043667 212.000000 0.080956 234.000000 -0.005265 239.000000 -0.012695 13.000000 -0.069446 152.000000 0.018997 178.000000 0.020987
93921.000000 1.177930 255.000000 264.000000 204.000000 -0.004778 232.000000 0.064692 245.000000 0.019113 249.000000 0.004630 16.000000 -0.051473 124.000000 -0.003558 146.000000 -0.052009
94185.000000 1.078987 264.000000 293.000000 201.000000 -0.065237 232.000000 0.048023 264.000000 -0.022430 275.000000 0.043355 14.000000 -0.041955 173.000000 0.028936 202.000000 -0.040095
94707.000000 1.134411 229.000000 341.000000 217.000000 -0.040481 245.000000 0.022401 253.000000 -0.010123 323.000000 0.016291 18.000000 -0.118392 174.000000 0.037705 217.000000 -0.040481
95048.000000 1.079694 341.000000 232.000000 169.000000 0.025674 192.000000 0.060797 212.000000 0.017849 212.000000 0.017849 18.000000 -0.105416 138.000000 0.017745 152.000000 -0.012255
95280.000000 1.167302 232.000000 295.000000 143.000000 -0.097466 188.000000 0.046299 220.000000 -0.036347 278.000000 0.009513 20.000000 -0.114656 170.000000 0.029322 174.000000 0.006533
95575.000000 1.151832 295.000000 264.000000 217.000000 -0.015189 241.000000 0.054716 245.000000 0.053117 246.000000 0.062788 16.000000 -0.073483 121.000000 -0.025710 142.000000 -0.075175
95839.000000 1.137881 264.000000 257.000000 177.000000 -0.027494 203.000000 0.050389 213.000000 0.013824 241.000000 0.011406 17.000000 -0.101822 152.000000 0.011422 159.000000 -0.011963
96396.000000 1.086805 300.000000 225.000000 158.000000 0.000028 182.000000 0.073991 202.000000 0.016279 208.000000 0.024336 13.000000 -0.048695 133.000000 0.022883 143.000000 -0.027479
96621.000000 1.184619 225.000000 471.000000 409.000000 -0.049532 437.000000 0.047289 448.000000 0.031538 455.000000 0.018919 13.000000 -0.066964 159.000000 0.558493 186.000000 -0.077858
97092.000000 1.063308 471.000000 246.000000 198.000000 0.003636 224.000000 0.044480 228.000000 0.028383 231.000000 0.022959 16.000000 -0.066425 116.000000 0.019165 131.000000 -0.062337
97338.000000 0.991421 246.000000 239.000000 168.000000 0.002087 187.000000 0.054220 199.000000 0.009360 223.000000 0.008529 16.000000 -0.121041 133.000000 0.026676 140.000000 0.021739
97577.000000 1.125532 239.000000 255.000000 127.000000 -0.067839 165.000000 0.057145 196.000000 -0.012622 238.000000 0.027632 15.000000 -0.078169 146.000000 -0.027512 196.000000 -0.012622
97832.000000 1.080879 255.000000 246.000000 145.000000 0.017350 167.000000 0.084733 181.000000 0.034310 228.000000 0.024123 16.000000 -0.065532 144.000000 0.026864 151.000000 0.026535
98078.000000 1.184828 246.000000 307.000000 210.000000 -0.023272 239.000000 0.056101 272.000000 -0.044072 291.000000 0.005425 16.000000 -0.070469 181.000000 0.039640 200.000000 -0.015686
98385.000000 1.095047 307.000000 178.000000 121.000000 -0.039514 142.000000 0.036034 155.000000 0.009184 161.000000 0.042663 16.000000 -0.116489 101.000000 0.021896 107.000000 -0.000895
98563.000000 1.171897 178.000000 226.000000 137.000000 -0.022916 175.000000 0.077244 186.000000 0.038043 209.000000 0.015756 17.000000 -0.096408 127.000000 0.021613 137.000000 -0.022916
98789.000000 1.151559 226.000000 280.000000 138.000000 -0.059040 171.000000 0.030861 187.000000 -0.036145 264.000000 0.009140 18.000000 -0.114929 165.000000 0.044247 187.000000 -0.036145
99069.000000 1.065753 280.000000 248.000000 181.000000 0.022821 198.000000 0.067415 211.000000 0.026630 234.000000 0.034324 16.000000 -0.127525 143.000000 0.033533 153.000000 -0.016516
99317.000000 1.072300 248.000000 254.000000 170.000000 0.010484 201.000000 0.078965 216.000000 0.016645 238.000000 0.027996 13.000000 -0.043936 142.000000 0.018193 146.000000 -0.005788
99571.000000 1.208892 254.000000 259.000000 177.000000 -0.029751 216.000000 0.042756 224.000000 -0.003655 242.000000 0.005373 13.000000 -0.040354 103.000000 0.000729 119.000000 -0.075371
99830.000000 1.160533 259.000000 205.000000 142.000000 -0.012524 174.000000 0.077570 185.000000 0.047148 189.000000 0.043685 15.000000 -0.061880 121.000000 0.026064 142.000000 -0.012524
100035.000000 1.125423 205.000000 233.000000 178.000000 0.007118 203.000000 0.082073 212.000000 0.052197 216.000000 0.050081 14.000000 -0.089078 137.000000 0.038497 153.000000 0.017463
100268.000000 1.146258 233.000000 287.000000 170.000000 -0.017596 204.000000 0.058559 219.000000 -0.025015 269.000000 -0.013467 18.000000 -0.066579 163.000000 -0.002626 171.000000 -0.036703
100555.000000 1.021423 287.000000 420.000000 220.000000 -0.074218 254.000000 0.160170 288.000000 0.004745 403.000000 -0.003381 18.000000 -0.117054 172.000000 0.322023 191.000000 -0.225486
100975.000000 1.023468 420.000000 263.000000 217.000000 0.016693 241.000000 0.051429 247.000000 0.010410 247.000000 0.010410 16.000000 -0.104245 151.000000 0.005239 172.000000 -0.000218
101238.000000 1.082134 263.000000 219.000000 147.000000 -0.019557 187.000000 0.074829 200.000000 0.030721 204.000000 0.019105 14.000000 -0.070609 129.000000 0.020899 147.000000 -0.019557
101457.000000 1.173133 219.000000 200.000000 138.000000 0.003950 167.000000 0.073118 179.000000 0.058994 181.000000 0.013759 13.000000 -0.050630 119.000000 0.054026 138.000000 0.003950
101657.000000 1.193213 200.000000 250.000000 148.000000 -0.042037 178.000000 0.068292 213.000000 -0.030016 234.000000 0.021597 18.000000 -0.129717 124.000000 0.020751 148.000000 -0.042037
102140.000000 1.149733 233.000000 242.000000 163.000000 0.005078 198.000000 0.056522 220.000000 0.014201 227.000000 0.035517 19.000000 -0.101429 139.000000 0.005013 163.000000 0.005078
102382.000000 1.169138 242.000000 263.000000 147.000000 -0.054605 173.000000 0.063322 205.000000 -0.030722 247.000000 -0.008165 14.000000 -0.069419 125.000000 -0.007238 147.000000 -0.054605
102645.000000 1.086506 263.000000 273.000000 223.000000 -0.034542 252.000000 0.046930 259.000000 0.015189 259.000000 0.015189 15.000000 -0.103178 161.000000 0.002998 223.000000 -0.034542
102918.000000 1.118277 273.000000 248.000000 173.000000 -0.006721 195.000000 0.059799 210.000000 0.005755 231.000000 0.017460 14.000000 -0.067351 146.000000 0.010455 152.000000 -0.009151
103166.000000 1.205577 248.000000 275.000000 183.000000 0.006000 204.000000 0.035328 215.000000 -0.014296 259.000000 0.004044 14.000000 -0.120034 103.000000 0.012488 124.000000 -0.062059
103441.000000 1.104212 275.000000 211.000000 153.000000 -0.029702 176.000000 0.085327 188.000000 0.035343 194.000000 0.052584 17.000000 -0.111320 122.000000 0.020329 147.000000 -0.022868
103652.000000 1.178258 211.000000 234.000000 140.000000 -0.020219 169.000000 0.073482 209.000000 0.031617 218.000000 0.045753 13.000000 -0.048766 127.000000 0.026677 140.000000 -0.020219
103886.000000 1.127428 234.000000 252.000000 173.000000 0.001070 199.000000 0.057325 203.000000 0.040272 235.000000 -0.004353 18.000000 -0.126163 146.000000 0.007854 176.000000 -0.008475
104138.000000 1.213846 252.000000 287.000000 145.000000 -0.073411 180.000000 0.053465 196.000000 -0.022209 272.000000 -0.025365 17.000000 -0.104995 116.000000 0.043127 147.000000 -0.087643
104425.000000 1.150359 287.000000 299.000000 146.000000 -0.042607 194.000000 0.022158 204.000000 0.004870 280.000000 0.006592 13.000000 -0.046053 116.000000 0.038271 129.000000 -0.004975
104724.000000 1.113616 299.000000 232.000000 134.000000 -0.034313 159.000000 0.043150 179.000000 -0.007947 218.000000 0.023874 19.000000 -0.143502 112.000000 -0.004551 121.000000 -0.060098
104956.000000 1.190784 232.000000 231.000000 151.000000 -0.047982 184.000000 0.058352 206.000000 -0.019877 215.000000 0.025138 14.000000 -0.060672 124.000000 0.004813 136.000000 -0.029971
105187.000000 1.207425 231.000000 237.000000 142.000000 -0.054297 164.000000 0.056801 178.000000 0.011987 222.000000 0.026846 16.000000 -0.083528 116.000000 0.002022 142.000000 -0.054297
105424.000000 1.159483 237.000000 280.000000 151.000000 -0.048410 173.000000 0.044173 178.000000 0.018953 265.000000 -0.005894 14.000000 -0.116410 167.000000 0.021979 178.000000 0.018953
105704.000000 1.119655 280.000000 245.000000 134.000000 -0.051409 157.000000 0.050658 178.000000 -0.007679 230.000000 0.011583 16.000000 -0.076614 110.000000 0.002507 134.000000 -0.051409
105949.000000 1.121470 245.000000 207.000000 150.000000 -0.028980 169.000000 0.067353 180.000000 0.033544 191.000000 0.008231 12.000000 -0.076447 117.000000 0.016738 125.000000 -0.034766
106156.000000 1.194813 207.000000 226.000000 145.000000 -0.037288 179.000000 0.076851 195.000000 -0.010265 210.000000 0.033936 14.000000 -0.051552 126.000000 0.002601 145.000000 -0.037288
106382.000000 1.218309 226.000000 439.000000 146.000000 -0.652525 265.000000 0.033848 269.000000 0.008832 422.000000 0.029672 16.000000 -0.072364 229.000000 0.469269 269.000000 0.008832
106821.000000 1.032495 439.000000 267.000000 165.000000 0.014154 187.000000 0.047270 212.000000 -0.010977 249.000000 0.003005 17.000000 -0.093914 145.000000 0.021914 154.000000 -0.007586
107088.000000 1.071596 267.000000 225.000000 155.000000 -0.014736 195.000000 0.050231 206.000000 0.034402 210.000000 0.032192 15.000000 -0.081446 105.000000 -0.007857 118.000000 -0.034830
107313.000000 1.159886 225.000000 209.000000 153.000000 -0.034294 180.000000 0.074310 190.000000 0.029263 194.000000 0.022054 15.000000 -0.092653 121.000000 0.005412 153.000000 -0.034294
107522.000000 1.158073 209.000000 211.000000 153.000000 -0.012275 187.000000 0.065389 194.000000 0.041393 195.000000 0.030751 15.000000 -0.066001 117.000000 -0.003821 153.000000 -0.012275
107733.000000 1.195579 211.000000 246.000000 152.000000 -0.034081 180.000000 0.053617 211.000000 -0.015179 233.000000 0.036828 16.000000 -0.092807 133.000000 0.017020 152.000000 -0.034081
107979.000000 1.119665 246.000000 213.000000 143.000000 0.022198 187.000000 0.100223 189.000000 0.070035 197.000000 0.056680 12.000000 -0.039459 96.000000 -0.005848 103.000000 -0.025534
108192.000000 1.160440 213.000000 461.000000 383.000000 -0.033794 400.000000 0.025344 414.000000 -0.024389 446.000000 0.015733 14.000000 -0.050501 189.000000 0.482239 311.000000 -0.141351
108653.000000 1.013866 461.000000 183.000000 136.000000 -0.032130 160.000000 0.077837 166.000000 0.082789 167.000000 0.088526 16.000000 -0.102559 107.000000 0.038831 137.000000 -0.017161
108836.000000 1.097021 183.000000 223.000000 176.000000 0.026770 200.000000 0.070310 202.000000 0.053852 205.000000 0.071768 16.000000 -0.073829 127.000000 -0.015487 158.000000 0.044781
109059.000000 1.142162 223.000000 243.000000 123.000000 -0.076868 162.000000 0.065315 189.000000 -0.022351 227.000000 0.020281 19.000000 -0.129376 144.000000 0.018229 189.000000 -0.022351
109544.000000 1.108350 242.000000 220.000000 174.000000 0.001829 195.000000 0.059446 203.000000 0.028352 206.000000 0.026284 17.000000 -0.117576 110.000000 -0.007401 123.000000 -0.041459
110003.000000 1.194563 239.000000 251.000000 127.000000 -0.052664 166.000000 0.080547 190.000000 -0.013484 235.000000 0.001061 12.000000 -0.009213 149.000000 -0.003761 190.000000 -0.013484
110254.000000 1.138270 251.000000 254.000000 137.000000 -0.052993 168.000000 0.069250 193.000000 -0.051581 239.000000 0.013212 15.000000 -0.100805 84.000000 -0.013344 103.000000 -0.053389
110508.000000 1.063177 254.000000 258.000000 145.000000 -0.056869 177.000000 0.045671 189.000000 0.016470 242.000000 -0.001335 14.000000 -0.067500 153.000000 -0.011367 189.000000 0.016470
110766.000000 1.124514 258.000000 227.000000 149.000000 -0.023713 189.000000 0.064090 206.000000 0.021535 207.000000 0.031111 14.000000 -0.072571 135.000000 -0.009464 155.000000 -0.004653
111260.000000 1.072653 267.000000 272.000000 144.000000 -0.037363 188.000000 0.044909 200.000000 0.000410 256.000000 -0.007739 19.000000 -0.102737 104.000000 0.015759 118.000000 -0.045166
111532.000000 1.110302 272.000000 232.000000 170.000000 0.015877 191.000000 0.058148 209.000000 -0.024046 215.000000 -0.012949 14.000000 -0.071877 138.000000 0.000455 153.000000 -0.047289
111764.000000 1.196515 232.000000 234.000000 144.000000 -0.027385 169.000000 0.040232 181.000000 0.018368 227.000000 0.380797 15.000000 -0.044302 134.000000 0.009371 144.000000 -0.027385
111998.000000 1.068477 234.000000 269.000000 151.000000 -0.052570 187.000000 0.043904 191.000000 0.011755 253.000000 0.008874 4.000000 0.742348 91.000000 0.013810 118.000000 -0.056833
112267.000000 1.110584 269.000000 229.000000 155.000000 -0.031267 183.000000 0.050566 207.000000 -0.002820 211.000000 -0.005578 14.000000 -0.067281 135.000000 -0.003618 147.000000 -0.029871
112703.000000 1.185940 207.000000 249.000000 156.000000 -0.017351 173.000000 0.054890 179.000000 0.038683 233.000000 0.013807 20.000000 -0.126441 148.000000 0.013997 157.000000 -0.024186
112952.000000 1.069715 249.000000 212.000000 146.000000 -0.016175 176.000000 0.081224 183.000000 0.053527 191.000000 0.004404 17.000000 -0.076007 122.000000 0.043980 138.000000 -0.026834
113372.000000 1.153011 208.000000 239.000000 175.000000 0.015732 200.000000 0.073524 211.000000 -0.007933 222.000000 -0.009389 16.000000 -0.094148 140.000000 -0.019203 181.000000 0.045136
113611.000000 1.056634 239.000000 311.000000 244.000000 0.013400 285.000000 0.049644 293.000000 0.039754 294.000000 0.034660 18.000000 -0.102847 177.000000 0.046274 205.000000 -0.030890
113922.000000 1.100146 311.000000 260.000000 148.000000 -0.018419 189.000000 0.047602 218.000000 -0.026729 244.000000 0.039433 16.000000 -0.083207 143.000000 -0.002635 148.000000 -0.018419
114182.000000 1.044137 260.000000 210.000000 160.000000 -0.010436 188.000000 0.069656 192.000000 0.036504 196.000000 0.023479 13.000000 -0.074875 122.000000 -0.010358 128.000000 -0.014841
114392.000000 1.062100 210.000000 197.000000 152.000000 0.007304 176.000000 0.069625 173.000000 0.045738 180.000000 0.057729 13.000000 -0.063525 116.000000 0.003743 145.000000 0.009999
114589.000000 1.165442 197.000000 179.000000 112.000000 -0.032879 136.000000 0.046571 154.000000 0.008137 162.000000 0.024641 14.000000 -0.068929 100.000000 -0.005903 113.000000 -0.032455
115061.000000 1.026550 293.000000 267.000000 124.000000 -0.033283 191.000000 0.055801 194.000000 0.039970 250.000000 0.042512 13.000000 -0.029236 157.000000 0.021564 179.000000 0.029516
115328.000000 1.100677 267.000000 232.000000 174.000000 -0.002651 194.000000 0.065327 212.000000 0.027284 214.000000 0.011751 17.000000 -0.131769 136.000000 -0.006457 156.000000 -0.007133
115560.000000 1.116907 232.000000 234.000000 146.000000 -0.020389 190.000000 0.071869 197.000000 0.028530 218.000000 0.014219 17.000000 -0.113925 137.000000 -0.007114 146.000000 -0.020389
116699.000000 1.221287 234.000000 209.000000 133.000000 -0.027009 169.000000 0.057002 174.000000 0.047926 194.000000 0.030669 16.000000 -0.055139 119.000000 0.013291 134.000000 -0.026899
116908.000000 1.140624 209.000000 254.000000 180.000000 -0.013338 216.000000 0.070611 228.000000 0.048776 235.000000 0.020359 16.000000 -0.117415 151.000000 0.006728 180.000000 -0.013338
117162.000000 1.129889 254.000000 347.000000 281.000000 -0.004089 322.000000 0.042980 323.000000 0.038153 330.000000 0.044094 19.000000 -0.093451 166.000000 0.041985 180.000000 0.024856
117509.000000 1.059844 347.000000 251.000000 193.000000 0.021285 216.000000 0.062039 228.000000 0.021728 233.000000 0.009548 16.000000 -0.117633 149.000000 -0.002604 162.000000 0.038870
117760.000000 1.144878 251.000000 230.000000 142.000000 -0.042632 175.000000 0.058951 204.000000 0.016283 205.000000 0.015389 16.000000 -0.085295 127.000000 -0.029497 130.000000 -0.058023
117990.000000 1.145217 230.000000 317.000000 181.000000 -0.040748 215.000000 0.052273 237.000000 -0.033587 301.000000 0.019128 8.000000 0.149779 155.000000 0.046432 181.000000 -0.040748
118307.000000 1.123160 317.000000 235.000000 187.000000 0.007739 210.000000 0.046032 218.000000 0.007694 219.000000 0.007318 15.000000 -0.086261 102.000000 0.009865 127.000000 -0.052739
118542.000000 1.132536 235.000000 245.000000 149.000000 -0.040082 179.000000 0.054856 198.000000 0.000704 230.000000 0.032272 19.000000 -0.125412 131.000000 0.019059 150.000000 -0.034282
119265.000000 1.133607 249.000000 233.000000 196.000000 0.007755 212.000000 0.068240 215.000000 0.046124 217.000000 0.054730 14.000000 -0.073823 138.000000 -0.000141 168.000000 0.001161
119498.000000 1.107428 233.000000 479.000000 298.000000 -0.058558 345.000000 0.068918 361.000000 0.033309 463.000000 -0.011302 17.000000 -0.178357 174.000000 1.203831 211.000000 -0.338023
120184.000000 1.163007 207.000000 227.000000 156.000000 -0.007164 181.000000 0.051144 204.000000 0.027037 209.000000 0.028541 16.000000 -0.096351 134.000000 0.006659 156.000000 -0.007164
120411.000000 1.116816 227.000000 339.000000 251.000000 -0.039355 279.000000 0.044062 296.000000 -0.002929 322.000000 0.038702 17.000000 -0.087404 171.000000 0.061310 191.000000 -0.020318
120750.000000 1.014044 339.000000 305.000000 166.000000 -0.020831 197.000000 0.045268 227.000000 -0.023839 285.000000 0.000881 15.000000 -0.124359 143.000000 0.040547 166.000000 -0.020831
121055.000000 1.075799 305.000000 253.000000 197.000000 -0.010987 216.000000 0.043074 230.000000 0.017620 235.000000 0.031021 16.000000 -0.093276 150.000000 0.011457 182.000000 0.008387
121308.000000 1.154722 253.000000 250.000000 142.000000 -0.035088 178.000000 0.062836 196.000000 0.003808 231.000000 0.032759 15.000000 -0.069430 126.000000 -0.010181 142.000000 -0.035088
121558.000000 1.081695 250.000000 276.000000 131.000000 -0.069802 176.000000 0.053888 192.000000 0.006110 260.000000 0.011771 17.000000 -0.115717 162.000000 0.039674 171.000000 0.026929
121834.000000 1.137308 276.000000 247.000000 138.000000 -0.038147 163.000000 0.047599 166.000000 0.020484 232.000000 0.002964 17.000000 -0.123347 110.000000 -0.020699 117.000000 -0.047970
122081.000000 1.127137 247.000000 282.000000 242.000000 -0.015407 259.000000 0.048620 265.000000 0.039622 266.000000 0.029827 13.000000 -0.048409 162.000000 0.014921 171.000000 -0.017023
122363.000000 1.077948 282.000000 230.000000 148.000000 -0.045093 180.000000 0.061742 187.000000 0.054515 215.000000 0.002082 15.000000 -0.078998 132.000000 -0.001522 148.000000 -0.045093
122593.000000 1.128163 230.000000 243.000000 186.000000 -0.003840 208.000000 0.061378 224.000000 -0.019705 229.000000 0.002833 14.000000 -0.077950 118.000000 -0.004723 125.000000 -0.046165
122836.000000 1.118083 243.000000 234.000000 158.000000 -0.018556 176.000000 0.030771 183.000000 -0.020373 218.000000 0.034657 12.000000 -0.012825 127.000000 0.013622 158.000000 -0.018556
123070.000000 1.128920 234.000000 220.000000 153.000000 -0.018792 193.000000 0.064794 203.000000 0.012805 206.000000 0.036128 15.000000 -0.103040 127.000000 -0.014656 153.000000 -0.018792
123290.000000 1.138258 220.000000 222.000000 163.000000 -0.008447 195.000000 0.058059 204.000000 0.023074 204.000000 0.023074 12.000000 -0.072794 130.000000 0.034121 147.000000 -0.002178
123819.000000 1.112912 307.000000 232.000000 150.000000 -0.068247 176.000000 0.086894 180.000000 0.060875 214.000000 -0.005612 16.000000 -0.071997 117.000000 -0.005068 136.000000 -0.031979
124293.000000 1.129747 242.000000 234.000000 147.000000 -0.004687 189.000000 0.055817 207.000000 0.020345 214.000000 0.025863 13.000000 -0.059032 134.000000 0.017991 147.000000 -0.004687
124527.000000 1.134888 234.000000 296.000000 154.000000 -0.042655 182.000000 0.039367 196.000000 -0.015897 280.000000 0.009605 20.000000 -0.100115 171.000000 0.026764 174.000000 -0.007123
125309.000000 1.167974 215.000000 263.000000 138.000000 -0.049925 169.000000 0.052509 182.000000 0.014137 243.000000 -0.013043 15.000000 -0.085647 96.000000 -0.015318 108.000000 -0.050835
125572.000000 1.127065 263.000000 253.000000 151.000000 -0.046258 181.000000 0.033442 193.000000 0.010794 236.000000 0.020826 17.000000 -0.086933 128.000000 -0.013782 140.000000 -0.043013
125825.000000 1.128635 253.000000 295.000000 186.000000 -0.004390 211.000000 0.039904 231.000000 -0.013199 278.000000 0.037705 17.000000 -0.110124 174.000000 0.026255 192.000000 0.010249
126398.000000 1.119511 278.000000 240.000000 179.000000 0.011817 208.000000 0.063857 221.000000 0.030019 226.000000 0.002058 19.000000 -0.150834 142.000000 -0.007019 164.000000 0.021539
126638.000000 1.128376 240.000000 249.000000 143.000000 -0.049258 166.000000 0.049110 198.000000 -0.020248 233.000000 0.048684 14.000000 -0.058096 148.000000 -0.012127 198.000000 -0.020248
126887.000000 1.115893 249.000000 275.000000 157.000000 -0.015459 193.000000 0.049430 209.000000 -0.008497 259.000000 0.011202 14.000000 -0.077430 96.000000 0.018599 112.000000 -0.066181
127162.000000 1.144367 275.000000 248.000000 146.000000 -0.030896 170.000000 0.072664 186.000000 0.008087 231.000000 0.035001 16.000000 -0.117546 93.000000 -0.003313 101.000000 -0.076416
127874.000000 1.119952 231.000000 259.000000 154.000000 -0.016784 195.000000 0.046584 213.000000 -0.014324 243.000000 0.033013 16.000000 -0.084937 147.000000 -0.005278 154.000000 -0.016784
128420.000000 1.178689 287.000000 200.000000 141.000000 -0.035970 172.000000 0.094345 182.000000 0.034768 182.000000 0.034768 22.000000 -0.175498 112.000000 0.031631 141.000000 -0.035970
128620.000000 1.186166 200.000000 249.000000 146.000000 -0.037382 182.000000 0.064653 209.000000 -0.028777 233.000000 0.017620 18.000000 -0.096405 134.000000 0.009940 146.000000 -0.037382
128869.000000 1.099033 249.000000 438.000000 373.000000 -0.075079 402.000000 0.041460 416.000000 -0.015106 419.000000 0.015521 15.000000 -0.072408 215.000000 0.458391 287.000000 -0.063554
129521.000000 1.198805 214.000000 234.000000 150.000000 -0.040300 171.000000 0.060202 199.000000 0.010119 218.000000 0.039304 16.000000 -0.071087 139.000000 -0.007557 150.000000 -0.040300
129755.000000 1.114227 234.000000 260.000000 180.000000 -0.030489 200.000000 0.058271 231.000000 -0.050678 245.000000 0.027737 14.000000 -0.109754 152.000000 0.024858 170.000000 0.024073
130015.000000 1.189715 260.000000 260.000000 183.000000 -0.015725 215.000000 0.068494 237.000000 -0.026805 242.000000 -0.018624 13.000000 -0.066286 155.000000 0.006693 187.000000 -0.016399
130275.000000 1.161063 260.000000 275.000000 155.000000 -0.070346 189.000000 0.087243 217.000000 -0.048868 257.000000 -0.002520 15.000000 -0.040662 111.000000 -0.000816 123.000000 -0.033667
130550.000000 1.068026 275.000000 269.000000 154.000000 -0.022886 184.000000 0.060721 197.000000 -0.006520 251.000000 -0.025925 15.000000 -0.090347 160.000000 0.011283 176.000000 0.020360
131147.000000 1.071019 328.000000 355.000000 303.000000 -0.037790 333.000000 0.033854 335.000000 0.028619 338.000000 0.048509 12.000000 -0.058386 187.000000 0.053461 205.000000 -0.034219
131502.000000 0.998539 355.000000 252.000000 154.000000 -0.040144 180.000000 0.070186 191.000000 0.019872 232.000000 0.018207 17.000000 -0.103769 132.000000 0.005466 155.000000 -0.043028
131754.000000 1.128020 252.000000 258.000000 177.000000 -0.008214 203.000000 0.031678 212.000000 0.002523 246.000000 0.033398 17.000000 -0.118047 96.000000 0.021243 112.000000 -0.097392
132012.000000 1.219275 258.000000 260.000000 148.000000 -0.056180 169.000000 0.064027 200.000000 -0.011346 242.000000 0.020987 14.000000 -0.076541 115.000000 -0.015962 127.000000 -0.031965
132535.000000 1.140482 263.000000 270.000000 177.000000 -0.023140 204.000000 0.049432 234.000000 -0.032933 255.000000 0.024920 15.000000 -0.112056 161.000000 0.014277 177.000000 -0.023140
133337.000000 1.187691 292.000000 295.000000 249.000000 -0.034544 273.000000 0.047772 279.000000 0.048555 280.000000 0.033633 16.000000 -0.092855 170.000000 0.048543 198.000000 -0.025185
133632.000000 1.064902 295.000000 257.000000 154.000000 -0.045554 180.000000 0.049731 206.000000 -0.010457 242.000000 -0.007354 16.000000 -0.104473 97.000000 -0.010149 107.000000 -0.083283
134089.000000 1.214338 200.000000 291.000000 240.000000 -0.006867 264.000000 0.048506 270.000000 0.027878 274.000000 0.002298 15.000000 -0.063721 168.000000 0.000908 226.000000 -0.031130
134380.000000 1.128509 291.000000 262.000000 132.000000 -0.085888 207.000000 0.057453 223.000000 0.016562 245.000000 0.009150 17.000000 -0.088605 153.000000 0.031539 193.000000 0.017094
134642.000000 1.184780 262.000000 253.000000 139.000000 -0.059148 174.000000 0.080000 187.000000 0.034656 237.000000 0.022853 15.000000 -0.067805 119.000000 -0.017047 139.000000 -0.059148
134895.000000 1.148027 253.000000 274.000000 172.000000 0.016054 201.000000 0.043562 226.000000 -0.015684 258.000000 0.022233 13.000000 -0.090168 160.000000 0.008830 172.000000 0.016054
135169.000000 1.135725 274.000000 231.000000 142.000000 -0.011343 163.000000 0.041430 167.000000 0.019346 216.000000 0.030664 14.000000 -0.104696 132.000000 -0.006862 145.000000 0.010537
135400.000000 1.168142 231.000000 244.000000 129.000000 -0.049459 172.000000 0.059424 187.000000 -0.005935 228.000000 0.015993 13.000000 -0.076090 118.000000 -0.010353 129.000000 -0.049459
135644.000000 1.105035 244.000000 208.000000 154.000000 -0.003606 185.000000 0.071004 193.000000 0.047759 194.000000 0.057210 17.000000 -0.105369 108.000000 0.000206 115.000000 -0.030454
135852.000000 1.209658 208.000000 240.000000 180.000000 -0.001331 199.000000 0.058026 218.000000 0.011522 223.000000 0.018420 13.000000 -0.071469 140.000000 -0.011800 148.000000 -0.011926
136092.000000 1.197356 240.000000 242.000000 133.000000 -0.033040 164.000000 0.069386 187.000000 0.005171 226.000000 0.004844 16.000000 -0.125762 109.000000 0.003343 133.000000 -0.033040
136334.000000 1.183923 242.000000 329.000000 255.000000 -0.051849 300.000000 0.047836 300.000000 0.047836 307.000000 -0.027603 14.000000 -0.062657 125.000000 0.025696 137.000000 -0.014070
136663.000000 1.114374 329.000000 241.000000 176.000000 0.015817 210.000000 0.061456 219.000000 0.006473 225.000000 -0.011553 17.000000 -0.064573 140.000000 0.000897 159.000000 0.001633
136904.000000 1.192412 241.000000 283.000000 151.000000 -0.055030 197.000000 0.046603 220.000000 -0.035059 263.000000 -0.003825 15.000000 -0.075144 162.000000 -0.008761 220.000000 -0.035059
137436.000000 1.156079 249.000000 244.000000 176.000000 0.013026 195.000000 0.054201 202.000000 0.030438 227.000000 -0.011680 21.000000 -0.164660 145.000000 0.017884 158.000000 0.028527
137680.000000 1.180229 244.000000 245.000000 140.000000 -0.033138 166.000000 0.055328 177.000000 0.018386 231.000000 0.010891 14.000000 -0.066340 136.000000 0.004495 144.000000 -0.020786
137925.000000 1.145294 245.000000 227.000000 136.000000 -0.018901 168.000000 0.056634 182.000000 0.022807 210.000000 0.022411 14.000000 -0.107389 131.000000 0.013967 136.000000 -0.018901
138152.000000 1.217296 227.000000 259.000000 137.000000 -0.048936 176.000000 0.040846 190.000000 0.003135 243.000000 -0.023499 20.000000 -0.158554 154.000000 0.001238 190.000000 0.003135
138411.000000 1.194382 259.000000 253.000000 142.000000 -0.062511 173.000000 0.040248 184.000000 -0.001493 235.000000 0.023225 15.000000 -0.091106 113.000000 -0.001868 123.000000 -0.068905
138664.000000 1.125784 253.000000 266.000000 122.000000 -0.062363 190.000000 0.052724 220.000000 0.001331 248.000000 0.035411 18.000000 -0.121533 154.000000 -0.002370 220.000000 0.001331
139284.000000 1.026742 354.000000 243.000000 179.000000 0.013840 201.000000 0.077804 218.000000 -0.004922 226.000000 0.007209 16.000000 -0.092410 141.000000 -0.000891 159.000000 0.004563
139527.000000 1.206646 243.000000 250.000000 136.000000 -0.054391 174.000000 0.067209 191.000000 -0.018435 235.000000 0.059808 15.000000 -0.071315 126.000000 -0.004812 137.000000 -0.043748
139777.000000 1.139263 250.000000 253.000000 158.000000 0.010046 181.000000 0.062098 200.000000 0.030310 237.000000 0.042362 13.000000 -0.086381 133.000000 0.012649 144.000000 -0.024124
140030.000000 1.152143 253.000000 219.000000 151.000000 -0.035092 192.000000 0.063684 202.000000 0.015111 202.000000 0.015111 15.000000 -0.112169 127.000000 -0.000908 152.000000 -0.044105
140249.000000 1.143638 219.000000 296.000000 149.000000 -0.078324 178.000000 0.043447 200.000000 -0.034451 280.000000 0.048993 14.000000 -0.066381 123.000000 0.042694 151.000000 -0.082070
140545.000000 1.098960 296.000000 284.000000 235.000000 -0.026321 260.000000 0.036077 266.000000 0.034746 267.000000 0.024558 16.000000 -0.091934 115.000000 0.020654 125.000000 -0.031917
140829.000000 1.181489 284.000000 275.000000 161.000000 -0.002256 209.000000 0.054902 227.000000 -0.012074 260.000000 0.019306 16.000000 -0.083809 155.000000 0.020143 163.000000 -0.024749
141358.000000 1.188640 254.000000 291.000000 206.000000 -0.023836 238.000000 0.045771 263.000000 0.012069 273.000000 -0.009184 19.000000 -0.108143 173.000000 0.022478 206.000000 -0.023836
141649.000000 1.180234 291.000000 270.000000 150.000000 -0.038529 175.000000 0.067502 217.000000 -0.000349 255.000000 0.026881 16.000000 -0.085599 158.000000 0.003053 217.000000 -0.000349
141919.000000 1.193402 270.000000 275.000000 147.000000 -0.056279 176.000000 0.043591 188.000000 0.015423 258.000000 -0.026132 15.000000 -0.063459 164.000000 0.012121 188.000000 0.015423
142194.000000 1.162789 275.000000 191.000000 132.000000 -0.076065 170.000000 0.048594 177.000000 0.022027 177.000000 0.022027 17.000000 -0.115609 109.000000 0.006804 121.000000 -0.046142
142385.000000 1.234269 191.000000 228.000000 142.000000 -0.026091 171.000000 0.075305 193.000000 0.006795 212.000000 0.044304 12.000000 -0.029367 123.000000 -0.000355 142.000000 -0.026091
142613.000000 1.204098 228.000000 252.000000 155.000000 -0.020311 190.000000 0.053617 209.000000 0.007236 237.000000 0.031532 15.000000 -0.066199 142.000000 0.014502 156.000000 -0.032286
142865.000000 1.191704 252.000000 238.000000 148.000000 -0.060093 166.000000 0.076478 192.000000 -0.010657 221.000000 0.029936 15.000000 -0.066304 118.000000 0.003543 126.000000 -0.021097
143103.000000 1.189291 238.000000 287.000000 194.000000 -0.026961 227.000000 0.064511 262.000000 0.001865 270.000000 0.006021 16.000000 -0.093104 168.000000 0.061522 195.000000 -0.017322
143390.000000 1.192779 287.000000 276.000000 191.000000 -0.018275 217.000000 0.069250 244.000000 -0.065357 260.000000 0.022385 14.000000 -0.076183 163.000000 0.047116 191.000000 -0.018275
143666.000000 1.226898 276.000000 271.000000 177.000000 -0.038804 211.000000 0.028438 234.000000 -0.056326 255.000000 -0.015135 15.000000 -0.077804 103.000000 0.023925 123.000000 -0.095888
143937.000000 1.103842 271.000000 263.000000 126.000000 -0.089687 169.000000 0.060330 182.000000 -0.013964 246.000000 0.009901 16.000000 -0.113198 155.000000 0.026489 160.000000 0.023559
144200.000000 1.220919 263.000000 247.000000 172.000000 -0.029074 199.000000 0.052197 210.000000 0.015894 227.000000 -0.018746 15.000000 -0.084504 104.000000 -0.010273 126.000000 -0.063891
144447.000000 1.264448 247.000000 223.000000 148.000000 -0.050406 168.000000 0.055063 190.000000 -0.000579 207.000000 -0.000863 17.000000 -0.110789 126.000000 0.031490 148.000000 -0.050406
144918.000000 1.255548 248.000000 211.000000 132.000000 -0.044511 166.000000 0.088700 183.000000 0.052146 186.000000 0.015705 17.000000 -0.118980 111.000000 0.028641 132.000000 -0.044511
145938.000000 1.261446 233.000000 256.000000 153.000000 -0.039184 178.000000 0.035848 198.000000 -0.045895 240.000000 -0.012321 16.000000 -0.028866 141.000000 -0.017035 153.000000 -0.039184
146194.000000 1.127331 256.000000 210.000000 155.000000 0.026932 185.000000 0.082403 193.000000 0.058077 193.000000 0.058077 18.000000 -0.135223 125.000000 -0.016113 157.000000 0.011478
146622.000000 1.229084 218.000000 213.000000 154.000000 -0.037379 178.000000 0.052339 194.000000 0.003842 198.000000 0.027038 17.000000 -0.104146 124.000000 -0.020217 140.000000 -0.054199
147037.000000 1.274825 202.000000 208.000000 149.000000 -0.019780 182.000000 0.061901 190.000000 0.074564 190.000000 0.074564 14.000000 -0.052621 123.000000 -0.019188 149.000000 -0.019780
147245.000000 1.225583 208.000000 327.000000 229.000000 -0.057906 257.000000 0.016093 283.000000 -0.038892 307.000000 -0.013846 15.000000 -0.076200 155.000000 0.051702 186.000000 -0.016462
147572.000000 1.084589 327.000000 260.000000 184.000000 -0.027288 212.000000 0.052086 221.000000 0.039092 240.000000 0.012178 18.000000 -0.089031 152.000000 0.005610 184.000000 -0.027288
148101.000000 1.178685 269.000000 234.000000 170.000000 -0.003686 193.000000 0.056563 214.000000 -0.008731 217.000000 0.028275 16.000000 -0.114949 115.000000 -0.032837 121.000000 -0.067039
148335.000000 1.161319 234.000000 212.000000 152.000000 -0.030592 175.000000 0.042999 191.000000 0.007607 196.000000 0.022232 19.000000 -0.064448 126.000000 -0.023447 155.000000 -0.017567
148547.000000 1.288956 212.000000 234.000000 143.000000 -0.019981 167.000000 0.075428 173.000000 0.058092 217.000000 0.058922 14.000000 -0.082346 119.000000 0.012806 132.000000 -0.000687
148781.000000 1.166256 234.000000 234.000000 172.000000 0.024998 202.000000 0.069073 211.000000 0.016863 218.000000 -0.004657 16.000000 -0.102664 137.000000 0.006003 162.000000 0.029340
149015.000000 1.173069 234.000000 220.000000 149.000000 -0.006241 186.000000 0.070405 201.000000 0.033868 204.000000 0.027646 14.000000 -0.050507 131.000000 -0.022354 152.000000 -0.043498
149235.000000 1.144085 220.000000 324.000000 252.000000 0.018968 302.000000 0.070800 298.000000 0.045815 305.000000 0.040909 17.000000 -0.114019 128.000000 0.033364 145.000000 -0.008907
149827.000000 1.144920 268.000000 222.000000 127.000000 -0.057300 178.000000 0.068149 195.000000 0.036252 202.000000 0.044387 15.000000 -0.087129 111.000000 -0.009697 127.000000 -0.057300
150049.000000 1.234546 222.000000 266.000000 118.000000 -0.091356 166.000000 0.053616 195.000000 0.011410 250.000000 0.015192 19.000000 -0.173652 158.000000 0.014055 195.000000 0.011410
150315.000000 1.141650 266.000000 257.000000 137.000000 -0.078303 163.000000 0.083920 190.000000 -0.002162 238.000000 0.013415 14.000000 -0.058303 151.000000 0.002825 190.000000 -0.002162
150572.000000 1.204527 257.000000 248.000000 148.000000 -0.021110 181.000000 0.074704 189.000000 0.056787 231.000000 0.060954 18.000000 -0.118892 147.000000 -0.001988 151.000000 -0.031674
150820.000000 1.154119 248.000000 211.000000 156.000000 0.035113 181.000000 0.078732 185.000000 0.047226 194.000000 0.029202 17.000000 -0.130287 102.000000 0.000563 114.000000 -0.055738
151031.000000 1.197021 211.000000 215.000000 149.000000 -0.003745 174.000000 0.052163 177.000000 0.036301 199.000000 0.040595 14.000000 -0.070972 125.000000 0.000267 149.000000 -0.003745
151246.000000 1.179103 215.000000 210.000000 147.000000 -0.013697 181.000000 0.090095 190.000000 0.035519 191.000000 0.055064 16.000000 -0.101463 121.000000 -0.009953 130.000000 -0.049795
151456.000000 1.272603 210.000000 1147.000000 882.000000 -1.006582 954.000000 0.507953 1015.000000 0.030381 1124.000000 -0.027601 16.000000 -0.011708 553.000000 0.572835 601.000000 -0.884545
152603.000000 1.184170 1147.000000 457.000000 262.000000 -0.040947 288.000000 0.025436 313.000000 -0.148530 443.000000 0.021190 24.000000 -0.114106 215.000000 0.370309 268.000000 -0.026903
153060.000000 1.096001 457.000000 233.000000 170.000000 -0.016536 191.000000 0.046584 197.000000 0.046395 217.000000 0.003292 14.000000 -0.064329 108.000000 0.018023 122.000000 -0.052338
153293.000000 1.221770 233.000000 204.000000 146.000000 -0.032395 174.000000 0.081442 177.000000 0.050393 191.000000 0.054027 15.000000 -0.109752 118.000000 0.049842 147.000000 -0.047521
153497.000000 1.261251 204.000000 258.000000 204.000000 -0.003777 233.000000 0.045626 237.000000 0.024293 241.000000 0.033494 12.000000 -0.051540 120.000000 -0.005820 135.000000 -0.043782
153755.000000 1.130281 258.000000 289.000000 187.000000 -0.014421 209.000000 0.035595 218.000000 0.013667 272.000000 0.011928 15.000000 -0.100927 168.000000 0.030545 187.000000 -0.014421
154044.000000 1.179828 289.000000 268.000000 189.000000 -0.023260 220.000000 0.062663 224.000000 0.025045 252.000000 -0.021770 18.000000 -0.123227 159.000000 0.030207 189.000000 -0.023260
154552.000000 1.210721 240.000000 223.000000 178.000000 0.001564 198.000000 0.053363 205.000000 0.054900 205.000000 0.054900 12.000000 -0.072369 104.000000 -0.006151 109.000000 -0.027938
154775.000000 1.205292 223.000000 249.000000 178.000000 0.006032 204.000000 0.041442 211.000000 0.011725 233.000000 0.001602 15.000000 -0.116308 144.000000 0.014667 154.000000 -0.034785
155024.000000 1.193609 249.000000 371.000000 295.000000 -0.030063 315.000000 0.020282 321.000000 0.000205 357.000000 0.068847 12.000000 -0.072659 201.000000 0.048208 239.000000 -0.051734
155904.000000 1.219166 266.000000 254.000000 150.000000 -0.056726 179.000000 0.066193 194.000000 -0.015204 235.000000 0.037365 16.000000 -0.033249 125.000000 0.009856 151.000000 -0.070425
156158.000000 1.144701 254.000000 286.000000 137.000000 -0.099173 177.000000 0.027537 204.000000 -0.025893 268.000000 0.006943 19.000000 -0.175176 111.000000 0.047283 137.000000 -0.099173
156444.000000 1.212536 286.000000 255.000000 139.000000 -0.060928 179.000000 0.063244 194.000000 -0.020829 241.000000 0.006835 18.000000 -0.119661 119.000000 0.000151 139.000000 -0.060928
156699.000000 1.157556 255.000000 237.000000 158.000000 -0.020529 201.000000 0.064544 211.000000 -0.006913 221.000000 -0.012494 14.000000 -0.066235 141.000000 0.029314 159.000000 -0.016611
156936.000000 1.189717 237.000000 240.000000 143.000000 -0.036862 166.000000 0.060223 193.000000 -0.017642 227.000000 0.033407 13.000000 -0.080254 119.000000 0.030657 143.000000 -0.036862
157176.000000 1.162950 240.000000 221.000000 154.000000 0.003558 185.000000 0.065942 196.000000 -0.012725 206.000000 0.018734 13.000000 -0.083729 131.000000 0.010470 154.000000 0.003558
157397.000000 1.193627 221.000000 211.000000 144.000000 -0.025705 174.000000 0.058760 190.000000 -0.020504 195.000000 0.027599 14.000000 -0.060931 120.000000 0.032384 133.000000 -0.014719
157608.000000 1.211202 211.000000 213.000000 145.000000 -0.027914 173.000000 0.081412 192.000000 0.009686 196.000000 0.007585 18.000000 -0.075694 120.000000 0.039392 146.000000 -0.032631
157821.000000 1.244685 213.000000 215.000000 153.000000 -0.018510 176.000000 0.077557 178.000000 0.037024 198.000000 0.005830 14.000000 -0.051196 122.000000 0.044261 154.000000 -0.022209
158036.000000 1.215500 215.000000 272.000000 146.000000 -0.038750 184.000000 0.046269 208.000000 -0.003494 254.000000 0.035390 16.000000 -0.061128 99.000000 -0.007133 118.000000 -0.051242
158308.000000 1.126719 272.000000 241.000000 167.000000 -0.017819 188.000000 0.056729 219.000000 0.022884 225.000000 0.008996 17.000000 -0.099773 139.000000 0.006912 151.000000 -0.000406
158948.000000 1.053620 399.000000 261.000000 142.000000 -0.033573 177.000000 0.048294 208.000000 -0.014860 245.000000 0.013587 16.000000 -0.056662 99.000000 -0.014061 114.000000 -0.047757
159209.000000 1.160030 261.000000 268.000000 149.000000 -0.071346 182.000000 0.027933 204.000000 -0.026315 253.000000 0.003229 16.000000 -0.110737 133.000000 -0.002915 152.000000 -0.061895
159734.000000 1.167678 257.000000 201.000000 139.000000 -0.060020 171.000000 0.044637 181.000000 0.002065 186.000000 0.009933 14.000000 -0.057278 118.000000 -0.004095 128.000000 -0.056132
159935.000000 1.277206 201.000000 242.000000 155.000000 -0.039873 181.000000 0.062400 189.000000 0.028433 225.000000 0.015074 16.000000 -0.086539 128.000000 0.006927 133.000000 -0.010267
160177.000000 1.190024 242.000000 262.000000 137.000000 -0.044142 168.000000 0.079122 213.000000 -0.008432 246.000000 0.016378 16.000000 -0.078502 156.000000 -0.006600 213.000000 -0.008432
160439.000000 1.224324 262.000000 282.000000 155.000000 -0.073261 181.000000 0.055031 203.000000 -0.018952 267.000000 -0.011505 17.000000 -0.102919 115.000000 0.000217 119.000000 -0.047276
160980.000000 1.202136 259.000000 232.000000 151.000000 -0.029721 198.000000 0.048303 213.000000 -0.016192 216.000000 0.011926 16.000000 -0.094398 138.000000 -0.011882 151.000000 -0.029721
161212.000000 1.198652 232.000000 265.000000 150.000000 -0.040269 188.000000 0.046521 217.000000 -0.031707 250.000000 0.022022 14.000000 -0.030173 145.000000 0.009887 152.000000 -0.021163
161477.000000 1.164201 265.000000 224.000000 157.000000 -0.037351 187.000000 0.053683 199.000000 0.017789 207.000000 0.002099 16.000000 -0.097775 133.000000 0.006001 148.000000 -0.054529
161701.000000 1.213665 224.000000 232.000000 126.000000 -0.047249 168.000000 0.053438 180.000000 0.029347 216.000000 0.054894 16.000000 -0.080972 107.000000 -0.013660 126.000000 -0.047249
161933.000000 1.185206 232.000000 232.000000 159.000000 -0.021129 194.000000 0.053308 210.000000 0.034404 215.000000 -0.007758 16.000000 -0.134918 138.000000 0.011818 149.000000 -0.048715
162165.000000 1.219875 232.000000 273.000000 140.000000 -0.099554 171.000000 0.049500 194.000000 -0.036110 253.000000 -0.045247 15.000000 -0.057852 112.000000 0.006842 141.000000 -0.078943
162438.000000 1.166370 273.000000 261.000000 150.000000 -0.049886 174.000000 0.071096 192.000000 0.021410 243.000000 0.033482 19.000000 -0.102203 120.000000 -0.027645 134.000000 -0.073287
162699.000000 1.216569 261.000000 429.000000 146.000000 -0.698054 263.000000 0.057468 280.000000 -0.044947 410.000000 -0.006523 20.000000 -0.068022 220.000000 0.503846 280.000000 -0.044947
163360.000000 1.148637 232.000000 234.000000 178.000000 -0.002474 200.000000 0.055284 213.000000 0.028590 217.000000 0.009765 15.000000 -0.117320 139.000000 -0.002080 155.000000 -0.027614
163594.000000 1.219527 234.000000 255.000000 205.000000 -0.008335 232.000000 0.090129 229.000000 0.052747 236.000000 0.098169 14.000000 -0.039454 92.000000 0.000589 111.000000 -0.038186
163849.000000 1.230379 255.000000 372.000000 151.000000 -0.019987 224.000000 0.099934 266.000000 -0.084843 356.000000 -0.031790 20.000000 -0.104233 198.000000 0.452785 266.000000 -0.084843
164221.000000 1.038589 372.000000 225.000000 151.000000 -0.005566 181.000000 0.054246 187.000000 0.021174 210.000000 0.027572 12.000000 -0.068447 127.000000 0.033653 134.000000 0.011944
164446.000000 1.271979 225.000000 295.000000 201.000000 -0.011754 231.000000 0.057033 247.000000 -0.009203 280.000000 0.046171 16.000000 -0.112535 171.000000 0.060412 201.000000 -0.011754
164741.000000 1.136300 295.000000 274.000000 134.000000 -0.085813 165.000000 0.053043 185.000000 0.003842 258.000000 -0.008433 16.000000 -0.129231 163.000000 0.036617 185.000000 0.003842
165015.000000 1.205378 274.000000 267.000000 144.000000 -0.045477 183.000000 0.046990 200.000000 -0.003638 247.000000 -0.014058 14.000000 -0.076877 118.000000 0.001200 144.000000 -0.045477
165494.000000 1.235312 212.000000 201.000000 155.000000 -0.030581 180.000000 0.062489 183.000000 0.050280 184.000000 0.054558 15.000000 -0.083119 119.000000 -0.029559 128.000000 -0.054842
166189.000000 1.106349 260.000000 280.000000 147.000000 -0.047033 186.000000 0.058105 214.000000 -0.029796 264.000000 0.007175 16.000000 -0.117960 163.000000 0.004295 214.000000 -0.029796
166469.000000 1.184246 280.000000 217.000000 147.000000 -0.011236 177.000000 0.092758 194.000000 0.032866 199.000000 0.015922 16.000000 -0.084363 123.000000 0.038888 148.000000 -0.026111
166883.000000 1.211111 197.000000 244.000000 170.000000 0.027274 201.000000 0.059419 220.000000 0.020740 226.000000 0.030222 15.000000 -0.083231 145.000000 0.013323 155.000000 -0.005940
167127.000000 1.159311 244.000000 250.000000 151.000000 -0.065829 178.000000 0.074512 196.000000 0.050751 231.000000 0.026125 15.000000 -0.080312 125.000000 -0.000828 151.000000 -0.065829
167377.000000 1.165563 250.000000 247.000000 180.000000 0.012618 205.000000 0.060487 224.000000 0.018246 230.000000 0.016413 18.000000 -0.119815 103.000000 -0.013579 121.000000 -0.039958
167624.000000 1.214753 247.000000 270.000000 146.000000 -0.065340 181.000000 0.036694 214.000000 -0.031458 254.000000 -0.002270 16.000000 -0.066360 102.000000 0.014569 125.000000 -0.036091
167894.000000 1.114377 270.000000 302.000000 197.000000 -0.009280 222.000000 0.065988 238.000000 -0.012851 288.000000 0.001518 16.000000 -0.090387 180.000000 0.043900 201.000000 -0.030393
168196.000000 1.142738 302.000000 249.000000 155.000000 -0.014907 173.000000 0.055312 193.000000 -0.020301 233.000000 0.033105 15.000000 -0.087168 148.000000 -0.012461 156.000000 -0.047478
168685.000000 1.167661 240.000000 267.000000 148.000000 -0.061281 182.000000 0.055253 215.000000 -0.011471 250.000000 0.009955 15.000000 -0.038862 159.000000 -0.006454 215.000000 -0.011471
168952.000000 1.145425 267.000000 267.000000 207.000000 -0.017555 244.000000 0.063263 243.000000 0.033357 250.000000 0.042825 15.000000 -0.108132 101.000000 0.014312 119.000000 -0.032475
169714.000000 1.100240 265.000000 339.000000 289.000000 -0.041537 311.000000 0.054563 318.000000 0.024438 324.000000 0.019672 16.000000 -0.092766 142.000000 0.039851 158.000000 -0.035980
170053.000000 1.063797 339.000000 418.000000 205.000000 -0.076940 253.000000 0.165019 279.000000 0.017710 400.000000 -0.009606 15.000000 -0.090919 168.000000 0.390665 189.000000 -0.297454
170471.000000 1.151223 418.000000 385.000000 132.000000 -0.679361 231.000000 0.020709 241.000000 -0.062285 370.000000 0.026824 17.000000 -0.066992 203.000000 0.435080 241.000000 -0.062285
171117.000000 1.181989 261.000000 263.000000 145.000000 -0.035169 193.000000 0.060499 207.000000 0.000657 246.000000 0.050111 16.000000 -0.082089 133.000000 0.001432 149.000000 -0.038915
171380.000000 1.113434 263.000000 212.000000 155.000000 0.038994 187.000000 0.059885 195.000000 0.036234 195.000000 0.036234 15.000000 -0.099556 103.000000 -0.007522 114.000000 -0.027100
171592.000000 1.246207 212.000000 236.000000 126.000000 -0.049405 162.000000 0.070235 184.000000 -0.004218 219.000000 0.042819 15.000000 -0.112710 107.000000 0.007366 130.000000 -0.051647
171828.000000 1.154416 236.000000 270.000000 167.000000 -0.025533 190.000000 0.052164 210.000000 -0.008838 253.000000 0.014249 19.000000 -0.128391 141.000000 0.005684 167.000000 -0.025533
172098.000000 1.124936 270.000000 261.000000 161.000000 -0.019700 189.000000 0.058685 215.000000 -0.048806 245.000000 0.029016 14.000000 -0.098733 141.000000 0.014952 161.000000 -0.019700
172359.000000 1.131850 261.000000 212.000000 163.000000 -0.007537 186.000000 0.067370 195.000000 0.067479 195.000000 0.067479 15.000000 -0.122979 126.000000 -0.004796 154.000000 -0.000264
172571.000000 1.193292 212.000000 245.000000 158.000000 -0.042301 179.000000 0.052855 186.000000 0.039688 229.000000 0.014185 17.000000 -0.099590 137.000000 0.029892 147.000000 -0.013414
172816.000000 1.147554 245.000000 225.000000 168.000000 -0.009747 193.000000 0.059295 205.000000 0.031144 210.000000 0.028291 16.000000 -0.102197 132.000000 -0.003277 156.000000 -0.009967
173041.000000 1.129761 225.000000 249.000000 148.000000 -0.030423 182.000000 0.060722 214.000000 -0.031693 233.000000 0.029857 14.000000 -0.062122 129.000000 -0.000644 148.000000 -0.030423
173594.000000 1.142628 304.000000 250.000000 185.000000 -0.040202 211.000000 0.055565 229.000000 0.026990 232.000000 0.015830 17.000000 -0.137781 148.000000 -0.025691 162.000000 0.005094
173844.000000 1.161472 250.000000 343.000000 260.000000 -0.047279 303.000000 0.024351 320.000000 -0.016262 326.000000 -0.006827 16.000000 -0.066946 184.000000 0.067515 203.000000 -0.038267
174187.000000 1.082153 343.000000 403.000000 338.000000 -0.015941 363.000000 0.040628 379.000000 0.001427 385.000000 0.016961 15.000000 -0.087941 170.000000 0.057065 183.000000 0.029041
174590.000000 1.042068 403.000000 251.000000 139.000000 -0.060784 171.000000 0.047478 181.000000 -0.003290 235.000000 -0.019263 16.000000 -0.087918 117.000000 -0.022431 129.000000 -0.061333
174841.000000 1.165814 251.000000 267.000000 161.000000 -0.006650 182.000000 0.050373 206.000000 -0.024545 253.000000 -0.009199 16.000000 -0.070755 159.000000 -0.000129 161.000000 -0.006650
175108.000000 1.145878 267.000000 262.000000 167.000000 -0.022809 186.000000 0.062474 209.000000 -0.025549 247.000000 0.025046 12.000000 -0.068245 132.000000 0.020702 152.000000 -0.044470
175604.000000 1.154730 234.000000 302.000000 148.000000 -0.060882 188.000000 0.048759 211.000000 -0.019170 286.000000 -0.018322 6.000000 0.672598 128.000000 0.041814 151.000000 -0.064330
175906.000000 1.186143 302.000000 262.000000 158.000000 -0.024112 192.000000 0.053368 199.000000 0.039715 247.000000 0.031814 16.000000 -0.085113 144.000000 0.001499 151.000000 -0.003234
176168.000000 1.181423 262.000000 236.000000 171.000000 0.008853 200.000000 0.048496 203.000000 0.026741 221.000000 -0.013728 15.000000 -0.094236 140.000000 0.017758 157.000000 -0.001414
176404.000000 1.243152 236.000000 199.000000 150.000000 -0.011475 174.000000 0.097758 182.000000 0.077854 182.000000 0.077854 14.000000 -0.051988 114.000000 0.028888 130.000000 -0.002195
176603.000000 1.265252 199.000000 360.000000 120.000000 -0.652933 216.000000 0.171937 255.000000 -0.065048 346.000000 -0.052429 15.000000 -0.067648 196.000000 0.490668 255.000000 -0.065048
176963.000000 1.108682 360.000000 182.000000 137.000000 0.009124 161.000000 0.048887 162.000000 0.047194 164.000000 0.047836 15.000000 -0.083670 108.000000 -0.001736 137.000000 0.009124
177145.000000 1.238887 182.000000 255.000000 170.000000 -0.028782 207.000000 0.056034 229.000000 -0.009246 237.000000 0.005896 18.000000 -0.113449 148.000000 0.006016 170.000000 -0.028782
177400.000000 1.151350 255.000000 303.000000 151.000000 -0.026714 186.000000 0.017927 205.000000 -0.017776 285.000000 0.018551 22.000000 -0.154807 126.000000 0.044617 151.000000 -0.026714
177703.000000 1.078959 303.000000 280.000000 134.000000 -0.068245 171.000000 0.043382 188.000000 -0.013091 265.000000 0.022738 19.000000 -0.137074 166.000000 0.057552 188.000000 -0.013091
177983.000000 1.152785 280.000000 249.000000 188.000000 0.004547 215.000000 0.040455 227.000000 0.009654 233.000000 0.001597 13.000000 -0.091371 138.000000 -0.008121 164.000000 0.006223
178232.000000 1.155388 249.000000 260.000000 160.000000 0.015608 195.000000 0.062662 223.000000 -0.038294 244.000000 0.025404 16.000000 -0.054599 152.000000 0.000136 163.000000 -0.017542
178492.000000 1.173149 260.000000 254.000000 178.000000 -0.019358 199.000000 0.040673 208.000000 0.005563 237.000000 -0.014608 16.000000 -0.149484 150.000000 0.025582 161.000000 -0.002963
178935.000000 1.230168 189.000000 338.000000 251.000000 -0.063104 278.000000 0.037930 299.000000 -0.041963 323.000000 0.011092 15.000000 -0.055571 170.000000 0.059557 185.000000 -0.035316
179273.000000 1.069901 338.000000 227.000000 177.000000 -0.006238 193.000000 0.064359 204.000000 0.041803 210.000000 0.036552 14.000000 -0.115633 134.000000 -0.004579 159.000000 -0.012273
179936.000000 1.085760 436.000000 253.000000 135.000000 -0.054149 165.000000 0.063341 192.000000 -0.011928 235.000000 -0.007009 21.000000 -0.116688 123.000000 -0.018064 138.000000 -0.086813
180189.000000 1.178647 253.000000 263.000000 202.000000 -0.001659 242.000000 0.044424 241.000000 0.035082 248.000000 0.040191 16.000000 -0.080196 146.000000 -0.024781 182.000000 0.008279
180452.000000 1.152948 263.000000 228.000000 174.000000 -0.026362 202.000000 0.062180 207.000000 0.038809 209.000000 0.027305 16.000000 -0.095841 106.000000 -0.000859 125.000000 -0.064810
180680.000000 1.177975 228.000000 285.000000 173.000000 -0.003653 196.000000 0.060218 231.000000 -0.023776 269.000000 -0.002018 20.000000 -0.121321 105.000000 0.027269 131.000000 -0.049642
180965.000000 1.144926 285.000000 248.000000 144.000000 -0.014686 174.000000 0.028978 206.000000 -0.022399 235.000000 0.033480 14.000000 -0.072767 126.000000 -0.002645 131.000000 -0.018947
181213.000000 1.131226 248.000000 228.000000 149.000000 -0.013633 184.000000 0.064203 193.000000 0.012493 212.000000 0.000013 14.000000 -0.109979 135.000000 0.002245 149.000000 -0.013633
181441.000000 1.233728 228.000000 202.000000 148.000000 -0.012807 167.000000 0.060987 178.000000 0.050298 183.000000 0.028024 14.000000 -0.059974 112.000000 0.011423 139.000000 -0.043325
181865.000000 1.203591 222.000000 294.000000 145.000000 -0.060023 186.000000 0.055954 204.000000 0.025341 275.000000 0.003999 16.000000 -0.098387 174.000000 0.020857 204.000000 0.025341
182159.000000 1.205927 294.000000 294.000000 144.000000 -0.023485 187.000000 0.053184 201.000000 0.000132 278.000000 0.011995 18.000000 -0.056379 127.000000 0.037392 144.000000 -0.023485
182453.000000 1.223624 294.000000 295.000000 147.000000 -0.098821 181.000000 0.054073 217.000000 0.008853 276.000000 0.008733 16.000000 -0.082021 126.000000 0.036352 149.000000 -0.082504
182748.000000 1.124942 295.000000 235.000000 165.000000 -0.012864 197.000000 0.047604 212.000000 0.025989 217.000000 0.017290 16.000000 -0.131278 140.000000 -0.013476 150.000000 0.010349
183195.000000 1.226361 212.000000 238.000000 130.000000 -0.040411 188.000000 0.062823 204.000000 0.004405 221.000000 -0.000579 18.000000 -0.118719 141.000000 -0.009030 204.000000 0.004405
183433.000000 1.209842 238.000000 250.000000 133.000000 -0.070097 166.000000 0.078980 178.000000 0.033759 233.000000 0.016959 18.000000 -0.135127 149.000000 -0.027714 178.000000 0.033759
183683.000000 1.134169 250.000000 264.000000 130.000000 -0.063904 175.000000 0.042089 184.000000 -0.002788 246.000000 0.020641 17.000000 -0.129873 91.000000 0.003667 107.000000 -0.041268
183947.000000 1.233368 264.000000 276.000000 154.000000 -0.055961 187.000000 0.038761 200.000000 -0.022760 256.000000 -0.008685 15.000000 -0.083045 108.000000 0.000906 139.000000 -0.087041
184223.000000 1.113746 276.000000 228.000000 148.000000 -0.033748 192.000000 0.073432 208.000000 0.014310 212.000000 0.005423 21.000000 -0.145314 134.000000 -0.026789 152.000000 -0.030597
184451.000000 1.190267 228.000000 268.000000 195.000000 0.038578 211.000000 0.062262 227.000000 -0.033695 250.000000 -0.007565 17.000000 -0.072004 151.000000 0.005970 155.000000 -0.030032
184719.000000 1.200977 268.000000 248.000000 133.000000 -0.051845 177.000000 0.090643 187.000000 0.026520 231.000000 0.061713 17.000000 -0.089919 117.000000 0.005287 133.000000 -0.051845
185887.000000 1.038992 427.000000 298.000000 216.000000 0.000122 239.000000 0.049289 251.000000 0.037550 280.000000 0.001281 15.000000 -0.098076 168.000000 0.041429 216.000000 0.000122
186185.000000 1.209855 298.000000 284.000000 139.000000 -0.096615 175.000000 0.057430 210.000000 -0.016208 267.000000 0.009557 15.000000 -0.073245 169.000000 0.059688 210.000000 -0.016208
186469.000000 1.223397 284.000000 258.000000 136.000000 -0.079440 168.000000 0.059355 189.000000 -0.031316 241.000000 0.013309 18.000000 -0.086370 107.000000 -0.006182 123.000000 -0.085883
186727.000000 1.124372 258.000000 246.000000 150.000000 -0.022883 197.000000 0.068323 208.000000 0.001238 228.000000 0.013932 17.000000 -0.073984 143.000000 0.003528 151.000000 -0.036942
186973.000000 1.258020 246.000000 226.000000 142.000000 -0.054701 173.000000 0.076004 185.000000 0.031034 210.000000 0.048088 21.000000 -0.150743 113.000000 -0.005426 142.000000 -0.054701
187199.000000 1.230078 226.000000 206.000000 139.000000 -0.061783 163.000000 0.112105 183.000000 0.044301 189.000000 0.031981 16.000000 -0.128292 110.000000 0.013246 139.000000 -0.061783
187405.000000 1.318639 206.000000 239.000000 191.000000 0.000225 211.000000 0.044301 222.000000 0.024301 225.000000 0.002780 19.000000 -0.119762 132.000000 -0.016407 176.000000 0.005240
187644.000000 1.112197 239.000000 246.000000 106.000000 -0.078335 174.000000 0.056477 190.000000 -0.015953 230.000000 0.027793 14.000000 -0.098555 144.000000 0.021416 190.000000 -0.015953
187890.000000 1.158903 246.000000 237.000000 157.000000 -0.036520 180.000000 0.054560 190.000000 0.024529 220.000000 -0.003654 16.000000 -0.125906 138.000000 -0.009983 157.000000 -0.036520
188127.000000 1.222382 237.000000 257.000000 149.000000 -0.058715 183.000000 0.064675 214.000000 0.017621 243.000000 0.051130 17.000000 -0.061614 136.000000 -0.009343 150.000000 -0.077586
188384.000000 1.210110 257.000000 291.000000 193.000000 -0.006789 214.000000 0.046129 244.000000 -0.020879 276.000000 0.047552 15.000000 -0.108404 165.000000 0.038631 193.000000 -0.006789
188675.000000 1.130233 291.000000 237.000000 120.000000 -0.066568 187.000000 0.054607 211.000000 0.031143 219.000000 0.025862 13.000000 -0.055961 140.000000 -0.008869 177.000000 0.003541
188912.000000 1.215297 237.000000 283.000000 146.000000 -0.065277 186.000000 0.061177 200.000000 0.003387 266.000000 -0.009228 20.000000 -0.129420 167.000000 0.017510 200.000000 0.003387
189195.000000 1.214207 283.000000 260.000000 143.000000 -0.046657 172.000000 0.049717 200.000000 -0.022995 244.000000 0.021990 14.000000 -0.076653 117.000000 -0.009461 143.000000 -0.046657
189677.000000 1.233350 222.000000 291.000000 192.000000 -0.022694 218.000000 0.027056 250.000000 -0.059150 278.000000 0.034984 16.000000 -0.076103 169.000000 0.019372 179.000000 -0.027867
190430.000000 1.208383 220.000000 248.000000 138.000000 -0.070379 173.000000 0.083027 178.000000 0.078717 229.000000 0.042525 15.000000 -0.094688 112.000000 -0.023700 139.000000 -0.084721
190678.000000 1.196898 248.000000 262.000000 182.000000 -0.009718 208.000000 0.065642 210.000000 0.024671 246.000000 -0.023200 16.000000 -0.095863 153.000000 0.025529 183.000000 -0.004656
190940.000000 1.249714 262.000000 266.000000 145.000000 -0.068389 174.000000 0.083682 200.000000 -0.035296 251.000000 0.008309 17.000000 -0.083122 156.000000 0.004825 200.000000 -0.035296
191206.000000 1.169968 266.000000 284.000000 153.000000 -0.049299 183.000000 0.055970 208.000000 -0.018260 267.000000 0.010719 15.000000 -0.054155 124.000000 -0.007217 153.000000 -0.049299
192036.000000 1.175000 273.000000 240.000000 174.000000 0.009670 194.000000 0.067255 219.000000 0.006657 223.000000 0.009948 15.000000 -0.126439 140.000000 0.007965 159.000000 0.004562
192276.000000 1.222394 240.000000 226.000000 135.000000 -0.044845 164.000000 0.056238 185.000000 -0.010928 212.000000 0.063775 17.000000 -0.119627 111.000000 -0.015265 120.000000 -0.054184
192780.000000 1.151984 278.000000 286.000000 201.000000 -0.008684 223.000000 0.053731 234.000000 0.000017 268.000000 -0.022777 21.000000 -0.129285 168.000000 0.044810 201.000000 -0.008684
193066.000000 1.219447 286.000000 234.000000 145.000000 -0.066124 189.000000 0.076637 209.000000 0.032499 215.000000 0.035321 16.000000 -0.100823 128.000000 -0.002117 145.000000 -0.066124
193300.000000 1.234519 234.000000 246.000000 191.000000 -0.022476 213.000000 0.066412 217.000000 0.044375 232.000000 0.022352 21.000000 -0.160702 146.000000 -0.006316 153.000000 0.003558
193546.000000 1.171758 246.000000 218.000000 149.000000 -0.014575 178.000000 0.062463 188.000000 -0.016691 203.000000 0.031587 12.000000 -0.076452 124.000000 0.014204 132.000000 -0.026172
193764.000000 1.248108 218.000000 213.000000 137.000000 -0.052259 169.000000 0.071851 189.000000 0.026945 195.000000 0.029140 14.000000 -0.033535 116.000000 0.042851 140.000000 -0.036350
193977.000000 1.288513 213.000000 449.000000 398.000000 -0.029607 425.000000 0.046490 431.000000 0.031240 435.000000 0.020771 14.000000 -0.012945 192.000000 0.499071 251.000000 -0.030336
194930.000000 1.183564 504.000000 241.000000 147.000000 -0.037528 168.000000 0.054210 186.000000 -0.007700 226.000000 0.049294 16.000000 -0.054834 138.000000 0.004245 150.000000 -0.015992
195398.000000 1.297320 227.000000 259.000000 146.000000 -0.046817 174.000000 0.091631 187.000000 0.004968 244.000000 0.003231 16.000000 -0.097398 139.000000 -0.010921 148.000000 -0.040296
195920.000000 1.178626 263.000000 217.000000 146.000000 -0.035016 186.000000 0.071349 198.000000 0.006460 200.000000 -0.004528 15.000000 -0.112611 127.000000 0.017728 146.000000 -0.035016
196137.000000 1.241133 217.000000 197.000000 143.000000 -0.030641 167.000000 0.079721 177.000000 0.023419 181.000000 0.032118 15.000000 -0.081452 115.000000 -0.001722 131.000000 -0.011786
196334.000000 1.245146 197.000000 254.000000 149.000000 -0.047552 174.000000 0.060613 205.000000 -0.001754 237.000000 0.002679 16.000000 -0.089790 132.000000 -0.006845 149.000000 -0.047552
196588.000000 1.132882 254.000000 257.000000 153.000000 -0.050171 185.000000 0.068044 215.000000 -0.013117 241.000000 0.043825 18.000000 -0.115393 131.000000 0.017005 153.000000 -0.050171
196845.000000 1.190705 257.000000 258.000000 189.000000 -0.008653 215.000000 0.055377 238.000000 0.006755 240.000000 0.006051 14.000000 -0.095176 153.000000 -0.012306 185.000000 0.002318
197103.000000 1.232005 258.000000 271.000000 142.000000 -0.053493 179.000000 0.060675 196.000000 -0.011959 253.000000 -0.046865 15.000000 -0.082448 161.000000 0.014860 196.000000 -0.011959
197603.000000 1.255098 229.000000 474.000000 261.000000 0.005498 304.000000 0.378745 338.000000 -0.023746 459.000000 0.001208 18.000000 -0.134696 283.000000 0.135124 338.000000 -0.023746
198077.000000 1.179829 474.000000 214.000000 153.000000 0.005521 172.000000 0.055143 181.000000 0.004737 198.000000 -0.005045 14.000000 -0.118789 112.000000 -0.014824 122.000000 -0.047944
198291.000000 1.180691 214.000000 145.000000 97.000000 -0.000678 124.000000 0.153553 123.000000 0.103426 130.000000 0.498757 12.000000 -0.148054 85.000000 -0.018812 108.000000 -0.028390
198735.000000 1.222220 299.000000 222.000000 174.000000 0.009984 198.000000 0.052819 203.000000 0.059324 204.000000 0.068712 15.000000 -0.085100 108.000000 0.034967 133.000000 -0.062144
199206.000000 1.174279 249.000000 238.000000 139.000000 -0.044251 188.000000 0.063322 213.000000 0.035907 221.000000 0.010813 15.000000 -0.054845 130.000000 -0.009097 154.000000 -0.007274
199444.000000 1.232708 238.000000 265.000000 151.000000 -0.049567 185.000000 0.063007 192.000000 0.027460 247.000000 0.007450 16.000000 -0.069068 126.000000 -0.025714 138.000000 -0.039742
199709.000000 1.161963 265.000000 231.000000 165.000000 0.020579 185.000000 0.071047 211.000000 0.008727 216.000000 0.012348 15.000000 -0.105970 137.000000 0.017712 151.000000 -0.019984
199940.000000 1.233944 231.000000 262.000000 143.000000 -0.095927 175.000000 0.047978 189.000000 -0.010769 246.000000 0.015187 14.000000 -0.058672 121.000000 -0.031740 132.000000 -0.066976
200202.000000 1.121994 262.000000 244.000000 154.000000 -0.016443 183.000000 0.063039 189.000000 0.050202 227.000000 0.000426 16.000000 -0.070135 135.000000 0.032947 154.000000 -0.016443
200446.000000 1.214565 244.000000 246.000000 129.000000 -0.070387 166.000000 0.048557 180.000000 0.011206 230.000000 -0.018860 18.000000 -0.126529 144.000000 0.004611 161.000000 0.026457
200692.000000 1.212360 246.000000 227.000000 182.000000 -0.003021 203.000000 0.082653 211.000000 0.086806 213.000000 0.069941 16.000000 -0.091508 119.000000 -0.007645 131.000000 -0.051754
200919.000000 1.200880 227.000000 369.000000 122.000000 -0.706772 223.000000 0.025097 234.000000 -0.014606 351.000000 -0.027244 14.000000 -0.060859 192.000000 0.500315 229.000000 0.019972
201288.000000 1.125564 369.000000 237.000000 124.000000 -0.072074 159.000000 0.046284 169.000000 0.009138 219.000000 0.021205 17.000000 -0.120755 141.000000 -0.015756 169.000000 0.009138
201795.000000 1.239686 270.000000 242.000000 149.000000 -0.036956 175.000000 0.073429 201.000000 0.019150 225.000000 0.043054 17.000000 -0.094557 121.000000 0.001621 131.000000 -0.023067
202037.000000 1.287221 242.000000 445.000000 392.000000 -0.044890 419.000000 0.031756 427.000000 -0.000330 428.000000 -0.005612 14.000000 -0.059659 197.000000 0.469134 249.000000 -0.001984
202482.000000 1.038952 445.000000 217.000000 151.000000 -0.000347 184.000000 0.085420 195.000000 0.060375 199.000000 0.053196 15.000000 -0.090969 129.000000 0.027286 146.000000 0.003039
202699.000000 1.244374 217.000000 226.000000 149.000000 -0.019561 189.000000 0.051897 204.000000 -0.000187 208.000000 0.017665 17.000000 -0.100722 129.000000 -0.012161 149.000000 -0.019561
203174.000000 1.167405 249.000000 223.000000 177.000000 0.013917 200.000000 0.049307 198.000000 0.039668 205.000000 0.022930 13.000000 -0.078894 130.000000 0.014610 152.000000 -0.037742
203397.000000 1.228228 223.000000 271.000000 130.000000 -0.107918 170.000000 0.051568 180.000000 -0.005579 255.000000 -0.038119 19.000000 -0.142040 103.000000 0.013287 130.000000 -0.107918
203946.000000 1.184628 278.000000 240.000000 150.000000 -0.024104 190.000000 0.080519 214.000000 0.040610 220.000000 0.037819 15.000000 -0.025138 136.000000 0.015551 150.000000 -0.024104
204186.000000 1.267268 240.000000 211.000000 146.000000 -0.072947 179.000000 0.086691 193.000000 0.034183 196.000000 0.047381 19.000000 -0.105929 125.000000 -0.017284 147.000000 -0.067822
204397.000000 1.162554 211.000000 226.000000 155.000000 -0.048149 190.000000 0.075253 205.000000 0.019641 210.000000 0.020519 15.000000 -0.052354 134.000000 0.016066 157.000000 -0.073039
204623.000000 1.207606 226.000000 251.000000 145.000000 -0.034608 169.000000 0.064356 193.000000 0.004749 235.000000 0.028685 14.000000 -0.055733 114.000000 0.006443 145.000000 -0.034608
205357.000000 1.218341 219.000000 221.000000 148.000000 0.003149 178.000000 0.072273 182.000000 0.045016 205.000000 -0.018153 14.000000 -0.072428 118.000000 0.023854 134.000000 -0.014327
205578.000000 1.272932 221.000000 224.000000 151.000000 -0.038404 179.000000 0.081848 199.000000 0.012070 205.000000 0.013714 14.000000 -0.056549 124.000000 0.034310 151.000000 -0.038404
205802.000000 1.209015 224.000000 265.000000 140.000000 -0.082749 183.000000 0.074533 197.000000 -0.016956 246.000000 0.020168 17.000000 -0.112550 129.000000 -0.018284 140.000000 -0.082749
206318.000000 1.197413 251.000000 254.000000 141.000000 -0.041443 177.000000 0.054811 206.000000 -0.004343 238.000000 0.011849 14.000000 -0.091946 111.000000 -0.006927 144.000000 -0.064013
206572.000000 1.184422 254.000000 215.000000 160.000000 -0.027179 187.000000 0.106257 189.000000 0.095018 196.000000 0.074955 16.000000 -0.113460 128.000000 -0.007166 149.000000 -0.043027
206787.000000 1.246161 215.000000 243.000000 158.000000 -0.013538 188.000000 0.061367 208.000000 -0.009559 225.000000 0.027068 15.000000 -0.086941 134.000000 0.023324 158.000000 -0.013538
207030.000000 1.129968 243.000000 204.000000 126.000000 -0.031365 155.000000 0.058336 184.000000 0.018323 189.000000 0.038638 14.000000 -0.123106 101.000000 0.003902 127.000000 -0.036570
207234.000000 1.264530 204.000000 239.000000 112.000000 -0.048635 167.000000 0.053182 176.000000 0.006050 221.000000 0.017426 14.000000 -0.082850 142.000000 0.006427 161.000000 0.044498
207788.000000 1.117624 315.000000 273.000000 175.000000 -0.014029 208.000000 0.069590 211.000000 0.043242 257.000000 0.015025 20.000000 -0.132544 160.000000 0.007633 176.000000 -0.003559
208061.000000 1.221079 273.000000 264.000000 180.000000 0.019135 203.000000 0.031220 219.000000 -0.047840 247.000000 0.004199 15.000000 -0.076728 150.000000 0.011672 162.000000 -0.009000
208325.000000 1.213476 264.000000 273.000000 140.000000 -0.062072 170.000000 0.074152 180.000000 0.026204 256.000000 -0.028903 17.000000 -0.084625 162.000000 0.025673 180.000000 0.026204
208598.000000 1.170315 273.000000 277.000000 136.000000 -0.051397 167.000000 0.036236 189.000000 -0.002167 260.000000 0.004852 19.000000 -0.140089 111.000000 0.031301 136.000000 -0.051397
208875.000000 1.135670 277.000000 243.000000 182.000000 0.008636 202.000000 0.056913 216.000000 0.015391 223.000000 0.012115 16.000000 -0.083938 105.000000 -0.019578 117.000000 -0.023576
209118.000000 1.190279 243.000000 221.000000 151.000000 -0.025185 180.000000 0.070754 189.000000 0.022383 206.000000 0.008369 20.000000 -0.121276 127.000000 -0.001503 135.000000 -0.032146
209339.000000 1.228569 221.000000 248.000000 133.000000 -0.036629 163.000000 0.064153 200.000000 -0.009027 232.000000 -0.009779 15.000000 -0.113188 110.000000 -0.004030 133.000000 -0.036629
209844.000000 1.157293 257.000000 326.000000 277.000000 -0.033136 305.000000 0.044042 306.000000 0.044073 307.000000 0.044041 17.000000 -0.073754 180.000000 0.050457 213.000000 -0.062537
210420.000000 1.200796 250.000000 257.000000 145.000000 -0.047588 181.000000 0.081851 210.000000 -0.006789 241.000000 0.072912 15.000000 -0.079583 134.000000 -0.014263 145.000000 -0.047588
210677.000000 1.157582 257.000000 270.000000 220.000000 -0.022521 248.000000 0.053278 254.000000 0.053121 255.000000 0.038136 13.000000 -0.091760 97.000000 0.015545 120.000000 -0.091915
211204.000000 1.171210 257.000000 235.000000 153.000000 -0.017083 189.000000 0.051083 195.000000 0.032588 219.000000 0.009514 16.000000 -0.113022 134.000000 0.009797 153.000000 -0.017083
211439.000000 1.205597 235.000000 343.000000 297.000000 -0.013813 319.000000 0.026987 318.000000 0.022174 325.000000 0.041188 17.000000 -0.119767 170.000000 0.068583 197.000000 -0.043720
211782.000000 1.094526 343.000000 247.000000 159.000000 -0.025268 181.000000 0.061770 213.000000 -0.048076 232.000000 0.014040 17.000000 -0.112434 139.000000 0.009150 146.000000 -0.006539
212029.000000 1.246377 247.000000 223.000000 172.000000 0.011625 197.000000 0.043471 204.000000 0.059852 207.000000 0.038127 14.000000 -0.102324 102.000000 -0.014109 123.000000 -0.094061
212252.000000 1.243616 223.000000 250.000000 129.000000 -0.079999 167.000000 0.056584 186.000000 -0.000471 234.000000 0.017240 17.000000 -0.087416 148.000000 -0.018932 186.000000 -0.000471
212502.000000 1.182854 250.000000 294.000000 231.000000 -0.044123 258.000000 0.044343 271.000000 0.006978 275.000000 -0.018665 14.000000 -0.068698 163.000000 0.010645 173.000000 -0.055373
213153.000000 1.072368 357.000000 312.000000 169.000000 -0.053194 197.000000 0.025633 204.000000 -0.018927 297.000000 0.047639 14.000000 -0.093572 142.000000 0.064959 169.000000 -0.053194
213465.000000 1.110979 312.000000 276.000000 164.000000 -0.048527 185.000000 0.026551 208.000000 -0.000707 261.000000 -0.018322 15.000000 -0.091014 101.000000 0.004472 123.000000 -0.091000
213741.000000 1.176962 276.000000 259.000000 151.000000 -0.043869 178.000000 0.047587 190.000000 0.020422 251.000000 0.134672 14.000000 -0.069259 125.000000 0.002217 135.000000 -0.048019
214000.000000 1.229125 259.000000 221.000000 152.000000 -0.040864 172.000000 0.086516 185.000000 0.062802 205.000000 -0.018889 6.000000 0.237918 130.000000 0.037788 152.000000 -0.040864
214221.000000 1.277869 221.000000 259.000000 217.000000 -0.017349 238.000000 0.053293 240.000000 0.042352 242.000000 0.026318 17.000000 -0.067098 130.000000 -0.007407 142.000000 -0.021405
214480.000000 1.186553 259.000000 313.000000 238.000000 -0.010016 267.000000 0.037553 288.000000 -0.014153 295.000000 -0.004734 15.000000 -0.099636 147.000000 0.030855 159.000000 -0.019978
214793.000000 1.206193 313.000000 265.000000 153.000000 -0.041092 188.000000 0.057958 197.000000 -0.004236 245.000000 0.027144 18.000000 -0.127941 130.000000 -0.012391 136.000000 -0.034381
215058.000000 1.225485 265.000000 230.000000 174.000000 -0.027475 200.000000 0.092837 209.000000 0.033197 213.000000 0.041158 18.000000 -0.122945 134.000000 -0.010986 154.000000 -0.002491
215288.000000 1.206584 230.000000 198.000000 140.000000 -0.031648 168.000000 0.048197 178.000000 0.030252 183.000000 0.052540 18.000000 -0.136141 108.000000 -0.012352 113.000000 -0.040752
215486.000000 1.265755 198.000000 231.000000 154.000000 -0.041425 186.000000 0.078151 210.000000 -0.011110 216.000000 0.000427 15.000000 -0.123365 137.000000 0.016990 155.000000 -0.024027
215717.000000 1.206808 231.000000 305.000000 245.000000 -0.037823 267.000000 0.039324 284.000000 -0.026271 286.000000 -0.038559 15.000000 -0.051983 165.000000 0.033782 190.000000 -0.023510
