320.000000 1.789954 320.000000 177.000000 132.000000 -0.009665 156.000000 0.290164 148.000000 0.093611 155.000000 0.254835 16.000000 -0.168651 105.000000 -0.073522 119.000000 -0.002862
964.000000 1.929093 214.000000 129.000000 77.000000 -0.493008 105.000000 -0.108245 101.000000 -0.151474 108.000000 -0.113277 15.000000 0.038969 20.000000 -0.062928 41.000000 -0.189261
1383.000000 1.818229 290.000000 437.000000 361.000000 -0.016066 385.000000 0.332523 410.000000 -0.058451 416.000000 -0.039346 21.000000 -0.247365 178.000000 1.795002 197.000000 -0.889528
2035.000000 1.896395 215.000000 415.000000 317.000000 -0.217915 373.000000 0.136958 380.000000 -0.052526 387.000000 -0.132479 20.000000 0.011270 211.000000 1.086692 266.000000 -0.140764
3521.000000 1.851455 213.000000 209.000000 118.000000 -0.040361 166.000000 0.345594 168.000000 0.302976 179.000000 0.046300 17.000000 -0.118857 117.000000 -0.036803 138.000000 -0.027290
4160.000000 1.757733 216.000000 215.000000 140.000000 -0.018290 163.000000 0.389655 192.000000 -0.020471 194.000000 -0.020769 20.000000 -0.171687 127.000000 -0.016987 131.000000 -0.036110
4375.000000 1.836347 215.000000 132.000000 77.000000 -0.476990 111.000000 -0.076788 102.000000 -0.102995 109.000000 -0.090425 20.000000 -0.047964 20.000000 -0.047964 27.000000 -0.107103
4796.000000 1.710189 289.000000 159.000000 76.000000 -0.627505 137.000000 0.113368 114.000000 -0.036129 121.000000 -0.046098 18.000000 -0.213588 20.000000 -0.234544 27.000000 -0.272318
5439.000000 1.804766 220.000000 145.000000 69.000000 -0.434027 94.000000 0.132179 110.000000 -0.105751 126.000000 -0.076660 17.000000 -0.198116 86.000000 -0.059687 110.000000 -0.105751
6044.000000 1.768169 460.000000 210.000000 133.000000 -0.018744 159.000000 0.359468 184.000000 0.035601 190.000000 0.051447 14.000000 -0.089792 125.000000 0.011005 134.000000 -0.002928
7100.000000 1.716949 208.000000 210.000000 134.000000 -0.036379 160.000000 0.348448 185.000000 0.011192 191.000000 0.003088 15.000000 -0.047912 125.000000 -0.018526 134.000000 -0.036379
7310.000000 1.755659 210.000000 166.000000 69.000000 -0.524419 114.000000 0.137101 120.000000 0.112195 149.000000 -0.024024 18.000000 -0.244246 98.000000 -0.046693 120.000000 0.112195
7710.000000 1.856676 234.000000 215.000000 145.000000 -0.001958 165.000000 0.384812 191.000000 0.007461 198.000000 0.045299 16.000000 -0.090174 128.000000 -0.004983 136.000000 -0.032633
7925.000000 1.991521 215.000000 132.000000 77.000000 -0.521005 107.000000 -0.076019 97.000000 -0.202681 104.000000 -0.097336 14.000000 0.094216 20.000000 -0.044405 36.000000 -0.144797
8557.000000 1.832865 210.000000 209.000000 132.000000 -0.034201 157.000000 0.334451 184.000000 0.006629 191.000000 0.004873 19.000000 -0.164674 123.000000 -0.026239 133.000000 -0.023261
8766.000000 1.860248 209.000000 138.000000 77.000000 -0.474173 117.000000 -0.036898 108.000000 -0.061758 115.000000 -0.048136 17.000000 0.011205 21.000000 -0.035457 25.000000 -0.057792
9190.000000 1.765600 286.000000 210.000000 136.000000 0.002337 160.000000 0.344530 181.000000 0.071614 193.000000 0.053793 20.000000 -0.225970 125.000000 -0.007490 136.000000 0.002337
9400.000000 1.876193 210.000000 205.000000 124.000000 -0.083932 156.000000 0.275610 167.000000 0.203135 187.000000 0.021945 17.000000 -0.109296 117.000000 -0.057929 124.000000 -0.083932
9983.000000 2.263673 169.000000 225.000000 131.000000 -0.031005 192.000000 0.421522 190.000000 0.412290 197.000000 0.347526 7.000000 1.857780 20.000000 0.049425 70.000000 -1.110485
10648.000000 1.859531 309.000000 409.000000 338.000000 0.040814 360.000000 0.297304 385.000000 -0.043746 391.000000 -0.057806 19.000000 -0.293195 168.000000 1.874359 186.000000 -0.817900
11057.000000 1.946800 409.000000 212.000000 78.000000 -0.617645 161.000000 0.264391 186.000000 -0.018259 191.000000 0.003700 17.000000 -0.165253 126.000000 -0.062346 186.000000 -0.018259
11692.000000 1.836678 423.000000 177.000000 130.000000 -0.019668 156.000000 0.333029 144.000000 0.068060 151.000000 0.227292 20.000000 -0.248996 105.000000 -0.091627 121.000000 -0.023760
12314.000000 2.033431 206.000000 135.000000 80.000000 -0.495109 110.000000 -0.097146 111.000000 -0.101456 116.000000 -0.092883 17.000000 0.041724 23.000000 -0.022398 43.000000 -0.156568
12735.000000 1.870016 286.000000 182.000000 135.000000 -0.071680 161.000000 0.341566 147.000000 0.058854 154.000000 0.211378 18.000000 -0.179545 108.000000 -0.145833 135.000000 -0.071680
13155.000000 1.876209 238.000000 208.000000 117.000000 -0.044450 159.000000 0.399546 182.000000 0.053717 193.000000 0.082886 23.000000 -0.231097 122.000000 -0.035014 170.000000 0.263137
13363.000000 1.830488 208.000000 202.000000 73.000000 -0.594313 151.000000 0.305360 180.000000 0.001395 185.000000 -0.011897 14.000000 -0.069355 115.000000 -0.014799 180.000000 0.001395
14186.000000 1.979353 205.000000 406.000000 149.000000 -2.134797 244.000000 0.215374 268.000000 -0.085267 387.000000 -0.042020 20.000000 0.004339 133.000000 1.024530 151.000000 -2.000769
14999.000000 1.894859 222.000000 207.000000 106.000000 -0.125234 160.000000 0.321003 184.000000 0.016472 190.000000 0.024465 4.000000 1.394624 123.000000 -0.051534 163.000000 0.291928
15412.000000 1.908152 206.000000 611.000000 310.000000 -2.253714 382.000000 1.096118 426.000000 0.063077 592.000000 -0.074766 18.000000 -0.218805 173.000000 1.821615 190.000000 -0.864169
18076.000000 1.946674 201.000000 404.000000 329.000000 -0.219370 355.000000 0.222997 376.000000 -0.038303 386.000000 -0.097239 22.000000 -0.059109 218.000000 0.874419 266.000000 -0.095377
18686.000000 2.093905 206.000000 210.000000 123.000000 -0.008622 159.000000 0.368088 169.000000 0.285911 181.000000 0.048342 20.000000 -0.110044 123.000000 -0.008622 169.000000 0.285911
18896.000000 2.026604 210.000000 203.000000 107.000000 -0.098481 154.000000 0.270578 178.000000 0.011348 184.000000 0.042429 23.000000 -0.202534 116.000000 -0.044750 178.000000 0.011348
19099.000000 1.994939 203.000000 204.000000 132.000000 -0.052776 156.000000 0.284072 179.000000 0.005420 183.000000 -0.077135 20.000000 -0.169340 121.000000 0.003117 132.000000 -0.052776
19303.000000 2.009558 204.000000 141.000000 73.000000 -0.520204 118.000000 -0.048745 114.000000 -0.079968 121.000000 -0.067726 18.000000 -0.092198 23.000000 -0.004063 39.000000 -0.147244
20119.000000 2.005957 208.000000 171.000000 104.000000 -0.087914 150.000000 0.388637 128.000000 -0.036238 135.000000 0.013292 19.000000 -0.320688 101.000000 -0.076755 116.000000 -0.024608
20290.000000 1.880987 171.000000 236.000000 150.000000 -0.088119 187.000000 0.387792 210.000000 0.117603 214.000000 0.026867 18.000000 -0.885721 94.000000 0.154436 115.000000 -0.071317
21140.000000 2.157709 281.000000 212.000000 145.000000 -0.010045 170.000000 0.352133 190.000000 0.117086 192.000000 0.051663 27.000000 -0.122430 119.000000 0.121257 129.000000 -0.128572
21555.000000 2.103621 203.000000 207.000000 130.000000 -0.027228 162.000000 0.363539 185.000000 0.082066 187.000000 0.056518 15.000000 0.026693 106.000000 0.064872 119.000000 -0.005457
21762.000000 2.126706 207.000000 203.000000 70.000000 -0.615346 166.000000 0.343447 170.000000 0.145893 181.000000 0.069356 17.000000 -0.133027 108.000000 -0.012759 170.000000 0.145893
21965.000000 2.136332 203.000000 205.000000 135.000000 -0.150768 163.000000 0.335722 177.000000 -0.016425 180.000000 0.055738 20.000000 -0.137305 121.000000 0.036441 139.000000 0.004500
22170.000000 2.201272 205.000000 135.000000 72.000000 -0.486285 108.000000 -0.010787 113.000000 -0.123451 116.000000 0.008242 20.000000 -0.017647 20.000000 -0.017647 28.000000 -0.108071
22579.000000 2.058013 274.000000 175.000000 136.000000 -0.007241 154.000000 0.439311 148.000000 0.233496 155.000000 0.438292 22.000000 -0.324511 103.000000 -0.063275 126.000000 -0.025627
22991.000000 2.006678 237.000000 206.000000 139.000000 0.038839 157.000000 0.390157 182.000000 0.016896 188.000000 0.114922 9.000000 0.202775 111.000000 0.002351 139.000000 0.038839
23602.000000 2.186582 405.000000 413.000000 158.000000 -2.099294 248.000000 0.547025 272.000000 -0.070500 398.000000 -0.133414 16.000000 0.031801 229.000000 1.297448 272.000000 -0.070500
24219.000000 2.144217 204.000000 206.000000 130.000000 -0.053606 158.000000 0.443620 180.000000 -0.046912 187.000000 -0.038338 19.000000 -0.138888 119.000000 -0.024186 130.000000 -0.053606
24425.000000 2.088292 206.000000 208.000000 133.000000 0.085692 159.000000 0.442415 182.000000 0.070282 186.000000 0.116678 18.000000 -0.282539 122.000000 0.106365 133.000000 0.085692
24832.000000 2.079657 199.000000 163.000000 118.000000 -0.062649 142.000000 0.134544 142.000000 0.134544 149.000000 0.678761 22.000000 -0.367335 96.000000 -0.182602 118.000000 -0.062649
25248.000000 1.961131 253.000000 205.000000 135.000000 0.019029 157.000000 0.353464 179.000000 0.063199 184.000000 0.038073 19.000000 -0.200532 120.000000 0.058794 138.000000 0.012227
25453.000000 2.152320 205.000000 130.000000 75.000000 -0.557522 100.000000 -0.063872 103.000000 -0.139828 108.000000 -0.076537 18.000000 -0.052069 21.000000 -0.006379 39.000000 -0.245298
27934.000000 2.092334 205.000000 201.000000 120.000000 -0.014108 153.000000 0.386566 161.000000 0.238667 185.000000 0.089826 20.000000 -0.134075 25.000000 -0.012539 36.000000 -0.143166
28295.000000 1.938744 160.000000 248.000000 176.000000 0.143133 206.000000 0.553933 225.000000 0.070327 231.000000 -0.011883 20.000000 -0.883669 145.000000 -0.004830 177.000000 0.060734
28543.000000 1.982114 248.000000 213.000000 132.000000 -0.147085 163.000000 0.523623 188.000000 0.196742 195.000000 0.152494 16.000000 -0.191695 126.000000 0.112696 133.000000 -0.071364
29156.000000 1.849987 271.000000 161.000000 81.000000 -0.533667 105.000000 0.261271 130.000000 0.048999 137.000000 -0.036628 19.000000 -0.357255 95.000000 -0.060877 130.000000 0.048999
29317.000000 2.351601 161.000000 416.000000 333.000000 -0.151520 370.000000 0.359232 392.000000 0.083575 398.000000 0.108481 21.000000 -0.155641 95.000000 0.727463 114.000000 -1.396988
29733.000000 2.113433 416.000000 212.000000 128.000000 -0.005627 164.000000 0.381896 186.000000 -0.051176 188.000000 -0.122289 18.000000 -0.187490 115.000000 0.021004 128.000000 -0.005627
30152.000000 2.027008 207.000000 206.000000 130.000000 -0.030597 163.000000 0.408572 183.000000 0.145782 184.000000 0.165359 17.000000 -0.064559 103.000000 0.014890 114.000000 -0.052351
30560.000000 1.873512 202.000000 202.000000 116.000000 -0.155955 153.000000 0.371523 177.000000 -0.017522 184.000000 0.129061 22.000000 -0.269232 120.000000 0.033262 140.000000 0.043639
30967.000000 2.054937 205.000000 213.000000 136.000000 -0.217772 169.000000 0.346520 184.000000 0.066395 195.000000 0.019608 18.000000 -0.181569 23.000000 0.083447 28.000000 -0.485486
32186.000000 1.916880 402.000000 203.000000 79.000000 -0.661597 162.000000 0.313293 166.000000 0.221835 175.000000 0.090721 16.000000 -0.104702 120.000000 -0.015594 166.000000 0.221835
32389.000000 1.967524 203.000000 200.000000 116.000000 -0.186518 150.000000 0.245457 159.000000 0.229124 180.000000 -0.038416 25.000000 -0.215846 110.000000 -0.027662 116.000000 -0.186518
32791.000000 2.040065 202.000000 201.000000 115.000000 -0.047634 160.000000 0.339716 162.000000 0.312678 172.000000 0.086737 19.000000 -0.190608 119.000000 0.007507 175.000000 0.009339
33596.000000 2.091582 207.000000 201.000000 126.000000 -0.109497 160.000000 0.250799 179.000000 -0.022996 182.000000 -0.030567 16.000000 -0.042808 115.000000 -0.100672 126.000000 -0.109497
33937.000000 1.173325 140.000000 258.000000 188.000000 -0.102602 208.000000 0.196332 233.000000 -0.135095 239.000000 -0.122884 20.000000 -1.685607 87.000000 1.085099 133.000000 -0.065186
34195.000000 1.939137 258.000000 199.000000 127.000000 -0.036017 149.000000 0.316694 158.000000 0.307540 178.000000 0.046914 16.000000 -0.114012 110.000000 -0.040563 116.000000 -0.057882
34394.000000 1.952366 199.000000 204.000000 120.000000 -0.065030 163.000000 0.322429 179.000000 0.000628 184.000000 0.028856 18.000000 -0.139078 110.000000 -0.032177 120.000000 -0.065030
34598.000000 1.997304 204.000000 204.000000 124.000000 -0.064702 161.000000 0.318324 179.000000 -0.022567 184.000000 0.014345 23.000000 -0.216583 115.000000 -0.053151 124.000000 -0.064702
35805.000000 1.993608 199.000000 204.000000 113.000000 -0.091943 154.000000 0.320143 180.000000 0.036035 192.000000 0.161598 16.000000 -0.121188 121.000000 -0.048292 180.000000 0.036035
37004.000000 1.858124 398.000000 199.000000 122.000000 -0.004795 156.000000 0.322851 175.000000 0.036925 182.000000 0.051548 12.000000 0.022512 118.000000 -0.027867 124.000000 -0.026645
37203.000000 1.900843 199.000000 200.000000 130.000000 -0.001130 150.000000 0.328839 174.000000 0.018702 180.000000 0.041053 17.000000 -0.078437 114.000000 -0.018637 120.000000 -0.060911
37606.000000 1.957616 203.000000 194.000000 124.000000 -0.060296 143.000000 0.290738 168.000000 0.003637 174.000000 0.004420 19.000000 -0.207762 115.000000 -0.079920 125.000000 -0.058917
37800.000000 2.003981 194.000000 199.000000 118.000000 -0.059196 151.000000 0.294313 182.000000 0.011536 192.000000 0.905958 18.000000 -0.189295 118.000000 -0.059196 182.000000 0.011536
37999.000000 2.026256 199.000000 198.000000 115.000000 -0.071831 147.000000 0.293749 172.000000 0.014364 179.000000 0.025303 4.000000 1.434531 111.000000 -0.048760 116.000000 -0.075357
38601.000000 1.954108 202.000000 203.000000 124.000000 -0.035156 150.000000 0.302714 176.000000 0.012853 183.000000 0.027508 18.000000 -0.157680 119.000000 -0.035344 125.000000 -0.043526
39204.000000 1.974028 200.000000 203.000000 125.000000 -0.071069 151.000000 0.295359 176.000000 0.016928 182.000000 0.002007 19.000000 -0.156974 119.000000 -0.051853 125.000000 -0.071069
40420.000000 1.919544 205.000000 201.000000 119.000000 -0.065990 150.000000 0.343493 177.000000 0.022425 182.000000 0.023977 20.000000 -0.168889 115.000000 -0.040096 124.000000 -0.026460
40829.000000 1.961738 208.000000 208.000000 130.000000 -0.027055 158.000000 0.360627 188.000000 0.023152 189.000000 0.017446 20.000000 -0.188701 123.000000 -0.022854 135.000000 -0.012901
41037.000000 1.978231 208.000000 203.000000 70.000000 -0.582101 158.000000 0.316634 182.000000 0.034706 185.000000 0.014000 17.000000 -0.173149 120.000000 -0.038307 180.000000 0.035067
41240.000000 1.956460 203.000000 204.000000 127.000000 -0.064075 155.000000 0.327509 184.000000 0.029876 184.000000 0.029876 19.000000 -0.207240 120.000000 -0.042068 129.000000 -0.051613
42057.000000 1.983199 201.000000 212.000000 125.000000 -0.057617 161.000000 0.367745 188.000000 0.000345 195.000000 0.020643 16.000000 -0.092224 123.000000 -0.045988 127.000000 -0.074545
42269.000000 1.999701 212.000000 213.000000 135.000000 -0.029577 160.000000 0.377820 189.000000 0.040282 196.000000 0.112680 17.000000 -0.111661 124.000000 -0.039106 136.000000 -0.028025
43526.000000 1.999796 210.000000 406.000000 145.000000 -1.993181 244.000000 0.154750 268.000000 -0.140799 387.000000 -0.118760 17.000000 0.020345 129.000000 1.016506 147.000000 -1.928432
44351.000000 2.049721 239.000000 207.000000 133.000000 -0.036271 154.000000 0.314843 180.000000 0.014607 186.000000 -0.003025 17.000000 -0.168462 118.000000 -0.040535 133.000000 -0.036271
45988.000000 2.084690 165.000000 258.000000 180.000000 -0.007490 207.000000 0.304656 234.000000 -0.021566 240.000000 -0.037584 10.000000 -0.650637 92.000000 0.059896 122.000000 -0.154542
46246.000000 1.881411 258.000000 205.000000 120.000000 -0.030832 155.000000 0.296017 167.000000 0.194310 175.000000 0.003494 17.000000 -0.187382 122.000000 -0.026961 167.000000 0.194310
46451.000000 2.022683 205.000000 407.000000 321.000000 -0.196189 361.000000 0.244780 386.000000 -0.076427 391.000000 -0.051521 23.000000 -0.046269 218.000000 0.942793 271.000000 -0.095468
46858.000000 1.824121 407.000000 154.000000 78.000000 -0.639108 127.000000 0.151673 135.000000 0.173662 141.000000 0.401420 18.000000 -0.397683 24.000000 -0.167808 37.000000 -0.345253
47012.000000 2.154068 154.000000 249.000000 125.000000 -0.101490 197.000000 0.353920 222.000000 0.016082 229.000000 0.011160 16.000000 0.126104 20.000000 0.051606 30.000000 -0.039083
47261.000000 1.770784 249.000000 216.000000 119.000000 -0.099699 165.000000 0.359814 194.000000 0.011568 199.000000 0.032493 21.000000 -0.229969 127.000000 -0.043194 194.000000 0.011568
47477.000000 1.881129 216.000000 415.000000 153.000000 -1.898792 249.000000 0.297825 272.000000 -0.044418 396.000000 -0.031209 14.000000 0.179231 136.000000 1.001128 154.000000 -1.871284
48863.000000 0.974513 137.000000 273.000000 194.000000 -0.178354 222.000000 0.201568 247.000000 -0.119780 252.000000 -0.065579 16.000000 -1.705298 89.000000 0.930676 136.000000 -0.115923
49136.000000 1.938873 273.000000 208.000000 80.000000 -0.696284 159.000000 0.382492 167.000000 0.323872 182.000000 0.048591 19.000000 -0.199606 123.000000 -0.017225 167.000000 0.323872
49344.000000 2.029486 208.000000 212.000000 118.000000 -0.064763 168.000000 0.339953 188.000000 0.011801 193.000000 0.036316 23.000000 -0.153994 119.000000 -0.062538 188.000000 0.011801
50180.000000 2.075501 210.000000 413.000000 319.000000 -0.264076 363.000000 0.249857 383.000000 -0.048888 388.000000 -0.073169 24.000000 -0.125093 211.000000 1.001143 263.000000 -0.132071
52212.000000 1.062272 134.000000 287.000000 201.000000 -0.208370 236.000000 0.230580 259.000000 -0.114576 262.000000 -0.093339 22.000000 -1.736899 92.000000 1.019477 140.000000 -0.121083
52919.000000 2.055943 420.000000 430.000000 340.000000 -0.229328 381.000000 0.258823 405.000000 -0.061253 411.000000 -0.006582 18.000000 -0.067772 229.000000 1.064338 286.000000 -0.100740
53349.000000 1.940097 430.000000 620.000000 304.000000 -2.203871 373.000000 1.050939 433.000000 0.042424 602.000000 -0.004700 18.000000 -0.256109 166.000000 2.185191 190.000000 -0.100832
55459.000000 2.004732 426.000000 221.000000 145.000000 -0.037381 169.000000 0.424501 196.000000 0.001492 203.000000 0.044626 18.000000 -0.188543 127.000000 -0.025392 146.000000 -0.031189
56525.000000 2.071129 426.000000 400.000000 189.000000 0.412416 240.000000 0.243905 261.000000 -0.094857 382.000000 -0.042662 19.000000 -0.150878 134.000000 0.778981 150.000000 -2.176520
56925.000000 1.983906 400.000000 221.000000 138.000000 -0.033529 168.000000 0.382694 197.000000 0.003794 203.000000 -0.010265 20.000000 -0.219244 125.000000 -0.030645 142.000000 -0.028591
57990.000000 1.934887 428.000000 218.000000 145.000000 -0.024230 166.000000 0.411583 193.000000 0.007461 200.000000 0.074280 7.000000 0.643868 127.000000 -0.021426 134.000000 -0.041158
59909.000000 1.952341 428.000000 211.000000 137.000000 -0.006646 162.000000 0.390436 183.000000 0.019326 190.000000 0.027931 14.000000 -0.044087 124.000000 -0.017493 137.000000 -0.006646
60554.000000 1.852522 434.000000 200.000000 137.000000 0.009059 165.000000 0.392270 178.000000 0.316267 181.000000 0.200687 20.000000 -0.178183 118.000000 0.050611 137.000000 0.009059
61190.000000 1.948403 436.000000 214.000000 78.000000 -0.765016 162.000000 0.379345 192.000000 0.056771 197.000000 0.042115 19.000000 -0.223133 123.000000 -0.030278 192.000000 0.056771
61610.000000 2.086864 206.000000 419.000000 324.000000 -0.224435 368.000000 0.234874 397.000000 -0.016741 398.000000 -0.019954 20.000000 -0.071616 217.000000 0.967999 271.000000 -0.129732
62029.000000 1.980000 419.000000 209.000000 129.000000 -0.039814 160.000000 0.341503 178.000000 0.055609 186.000000 -0.011538 20.000000 -0.203795 121.000000 -0.023826 129.000000 -0.039814
62648.000000 1.949841 410.000000 217.000000 130.000000 -0.035330 164.000000 0.420940 193.000000 0.021208 196.000000 0.029437 15.000000 -0.058028 126.000000 -0.005926 140.000000 -0.013402
62865.000000 2.062069 217.000000 139.000000 78.000000 -0.497901 114.000000 -0.040330 118.000000 -0.067336 130.000000 0.229373 17.000000 0.019452 21.000000 -0.050015 32.000000 -0.110863
63701.000000 1.944593 413.000000 216.000000 81.000000 -0.724513 163.000000 0.401821 191.000000 0.057497 196.000000 0.065145 16.000000 -0.141880 127.000000 -0.018840 191.000000 0.057497
63917.000000 1.970490 216.000000 204.000000 73.000000 -0.576186 154.000000 0.313231 179.000000 0.022620 184.000000 -0.003789 17.000000 -0.102080 117.000000 -0.059558 179.000000 0.022620
64121.000000 1.910850 204.000000 211.000000 136.000000 -0.044042 168.000000 0.368779 186.000000 0.035739 191.000000 0.067102 20.000000 -0.167568 116.000000 -0.045406 122.000000 -0.072130
64332.000000 1.991884 211.000000 214.000000 139.000000 -0.015846 163.000000 0.347867 187.000000 0.023396 196.000000 0.049041 19.000000 -0.166832 110.000000 -0.063009 119.000000 -0.065658
64546.000000 1.911551 214.000000 207.000000 106.000000 -0.118573 163.000000 0.338842 181.000000 0.009358 185.000000 0.036646 17.000000 -0.134234 123.000000 -0.039072 181.000000 0.009358
65986.000000 1.901477 199.000000 411.000000 333.000000 0.016048 359.000000 0.329216 386.000000 -0.033089 390.000000 -0.026036 14.000000 -0.019777 162.000000 1.928619 181.000000 -0.736005
67590.000000 1.933164 207.000000 210.000000 134.000000 -0.054920 166.000000 0.344611 186.000000 0.037475 186.000000 0.037475 18.000000 -0.164312 125.000000 -0.027569 134.000000 -0.054920
67800.000000 1.970233 210.000000 210.000000 125.000000 -0.036801 160.000000 0.362354 185.000000 0.012495 200.000000 0.252901 19.000000 -0.199044 125.000000 -0.036801 185.000000 0.012495
68010.000000 1.951302 210.000000 208.000000 134.000000 -0.030171 155.000000 0.325393 186.000000 0.014436 191.000000 0.036583 14.000000 -0.016567 116.000000 -0.041333 121.000000 -0.055173
68218.000000 2.032194 208.000000 128.000000 77.000000 -0.562285 105.000000 -0.088839 110.000000 -0.050784 111.000000 -0.040377 13.000000 0.112070 20.000000 -0.091159 30.000000 -0.148323
68622.000000 1.902792 276.000000 415.000000 178.000000 -2.050237 250.000000 1.024485 294.000000 -0.075641 389.000000 -0.170424 19.000000 -0.157100 159.000000 1.185186 179.000000 -1.985895
69664.000000 2.070204 281.000000 415.000000 336.000000 -0.189577 364.000000 0.233043 389.000000 -0.079530 396.000000 -0.016819 20.000000 -0.117006 218.000000 1.012774 268.000000 -0.103121
70079.000000 1.960078 415.000000 210.000000 141.000000 -0.036978 162.000000 0.369935 185.000000 0.045375 192.000000 0.130469 17.000000 -0.167541 125.000000 -0.018985 130.000000 -0.043781
71123.000000 1.946852 412.000000 211.000000 137.000000 -0.028810 161.000000 0.340797 188.000000 0.000235 194.000000 0.034750 13.000000 0.001429 125.000000 -0.026773 137.000000 -0.028810
71334.000000 1.924248 211.000000 206.000000 130.000000 -0.011705 154.000000 0.315158 180.000000 0.001271 188.000000 0.030425 17.000000 -0.143495 120.000000 -0.008413 136.000000 -0.015093
71540.000000 1.904217 206.000000 415.000000 290.000000 -0.150329 365.000000 0.330739 392.000000 -0.031830 397.000000 -0.042300 18.000000 -0.217836 170.000000 1.847934 189.000000 -0.694244
71955.000000 1.903498 415.000000 205.000000 134.000000 0.001869 155.000000 0.316225 184.000000 0.035110 188.000000 0.040657 21.000000 -0.220905 121.000000 -0.010279 134.000000 0.001869
72160.000000 1.935860 205.000000 206.000000 135.000000 -0.027240 155.000000 0.338090 181.000000 0.040752 186.000000 0.027131 14.000000 0.015845 119.000000 -0.017476 125.000000 -0.056566
72784.000000 1.923279 418.000000 210.000000 131.000000 -0.046784 160.000000 0.311742 192.000000 0.012774 204.000000 1.176615 18.000000 -0.210406 121.000000 -0.064997 131.000000 -0.046784
72994.000000 2.070078 210.000000 414.000000 333.000000 -0.213072 364.000000 0.191130 388.000000 -0.098602 392.000000 -0.071017 4.000000 1.609513 221.000000 1.027826 265.000000 -0.144858
73806.000000 1.865955 398.000000 216.000000 77.000000 -0.687524 164.000000 0.345705 187.000000 0.015501 200.000000 0.072554 20.000000 -0.165346 128.000000 -0.025346 186.000000 0.031050
74449.000000 1.530598 215.000000 209.000000 115.000000 -0.063481 159.000000 0.287694 174.000000 0.146364 184.000000 0.075674 23.000000 -0.174605 124.000000 -0.038623 186.000000 0.074248
74658.000000 1.444122 209.000000 207.000000 127.000000 -0.025486 156.000000 0.273824 182.000000 0.052364 183.000000 0.061893 20.000000 -0.090282 120.000000 -0.031270 127.000000 -0.025486
74865.000000 1.421549 207.000000 211.000000 132.000000 -0.050093 162.000000 0.310689 189.000000 0.072740 194.000000 0.109229 18.000000 -0.065676 125.000000 -0.035017 132.000000 -0.050093
75076.000000 1.490076 211.000000 216.000000 78.000000 -0.547618 168.000000 0.313420 192.000000 0.088072 197.000000 0.095595 15.000000 0.062002 128.000000 -0.049762 191.000000 0.083573
75499.000000 1.621739 207.000000 205.000000 134.000000 -0.036771 164.000000 0.326772 182.000000 0.140910 185.000000 0.188872 15.000000 0.011597 118.000000 -0.032211 125.000000 -0.049844
78247.000000 1.774565 210.000000 209.000000 135.000000 -0.054607 167.000000 0.328887 188.000000 0.060769 190.000000 0.071083 16.000000 -0.075389 104.000000 -0.054905 119.000000 -0.068605
79310.000000 1.756301 216.000000 205.000000 72.000000 -0.548947 155.000000 0.290975 180.000000 0.013309 186.000000 0.049389 22.000000 -0.173886 122.000000 -0.041001 180.000000 0.013309
79515.000000 1.792697 205.000000 178.000000 136.000000 0.011049 157.000000 0.431597 143.000000 0.080375 150.000000 0.168243 20.000000 -0.225845 105.000000 -0.021285 139.000000 0.020907
79693.000000 1.702287 178.000000 138.000000 70.000000 -0.352272 101.000000 0.110141 96.000000 0.084326 103.000000 0.068965 22.000000 -0.819750 31.000000 -0.112070 70.000000 -0.352272
80361.000000 1.897773 216.000000 175.000000 124.000000 -0.036944 154.000000 0.271095 143.000000 0.032382 150.000000 0.158289 14.000000 -0.039486 103.000000 -0.013936 111.000000 -0.062634
81823.000000 1.885286 210.000000 212.000000 76.000000 -0.576186 169.000000 0.303591 188.000000 0.024015 191.000000 0.032072 20.000000 -0.187426 123.000000 -0.040938 188.000000 0.024015
82663.000000 1.639205 628.000000 211.000000 79.000000 -0.590028 161.000000 0.313027 176.000000 0.120302 187.000000 0.035741 20.000000 -0.187849 121.000000 -0.021173 188.000000 0.040192
84956.000000 1.860966 210.000000 212.000000 136.000000 -0.022336 168.000000 0.325565 189.000000 0.024121 193.000000 0.021911 15.000000 -0.009897 119.000000 -0.028323 124.000000 -0.058699
86197.000000 1.873780 205.000000 214.000000 135.000000 -0.050549 161.000000 0.345408 191.000000 0.020108 196.000000 0.052193 15.000000 -0.020123 126.000000 -0.028667 135.000000 -0.050549
86411.000000 1.881222 214.000000 215.000000 125.000000 -0.060910 163.000000 0.354749 193.000000 0.017838 194.000000 0.027102 17.000000 -0.098214 126.000000 -0.054358 189.000000 0.020298
87455.000000 1.911460 294.000000 425.000000 347.000000 0.013277 372.000000 0.322743 403.000000 -0.018647 405.000000 -0.014823 26.000000 -0.285627 173.000000 1.913179 194.000000 -0.448888
88496.000000 1.980080 285.000000 424.000000 322.000000 -0.244594 372.000000 0.214685 383.000000 0.168856 406.000000 -0.016113 16.000000 -0.042696 217.000000 0.964216 323.000000 -0.244672
88920.000000 1.738949 424.000000 212.000000 80.000000 -0.627151 163.000000 0.368226 174.000000 0.281062 189.000000 0.042001 17.000000 -0.136004 125.000000 -0.022541 174.000000 0.281062
89132.000000 1.734383 212.000000 210.000000 127.000000 -0.043230 158.000000 0.311976 184.000000 -0.017850 195.000000 0.022777 21.000000 -0.118829 120.000000 -0.044577 135.000000 -0.039876
89342.000000 1.691241 210.000000 207.000000 73.000000 -0.541173 164.000000 0.305364 182.000000 0.040519 187.000000 0.031882 13.000000 -0.020279 116.000000 -0.036721 182.000000 0.040519
89549.000000 1.763496 207.000000 214.000000 138.000000 -0.045422 161.000000 0.338262 181.000000 0.085595 197.000000 0.029921 20.000000 -0.187053 122.000000 -0.040641 139.000000 -0.049294
89763.000000 1.723039 214.000000 218.000000 142.000000 -0.026819 166.000000 0.323920 194.000000 0.012355 200.000000 0.012654 14.000000 0.001125 126.000000 -0.038918 142.000000 -0.026819
90188.000000 1.738310 207.000000 212.000000 137.000000 -0.040456 162.000000 0.327663 188.000000 0.006487 194.000000 0.048588 16.000000 -0.109025 121.000000 -0.032367 124.000000 -0.047164
90824.000000 1.755598 212.000000 204.000000 78.000000 -0.589763 155.000000 0.242181 182.000000 0.020438 187.000000 0.022192 20.000000 -0.177130 120.000000 -0.063963 182.000000 0.020438
91028.000000 1.795387 204.000000 216.000000 78.000000 -0.545633 166.000000 0.337537 191.000000 0.036708 196.000000 0.003181 20.000000 -0.138594 121.000000 -0.038795 191.000000 0.036708
91460.000000 1.795062 216.000000 206.000000 129.000000 -0.021631 156.000000 0.318293 182.000000 0.033010 187.000000 0.026019 20.000000 -0.184095 119.000000 -0.019390 129.000000 -0.021631
91666.000000 1.777946 206.000000 207.000000 76.000000 -0.555234 164.000000 0.315079 183.000000 -0.015110 188.000000 0.027180 20.000000 -0.141474 119.000000 -0.037004 183.000000 -0.015110
91873.000000 1.876695 207.000000 128.000000 74.000000 -0.522994 101.000000 -0.080441 107.000000 -0.082258 124.000000 0.490172 20.000000 -0.069734 20.000000 -0.069734 30.000000 -0.109970
92291.000000 1.790359 290.000000 195.000000 146.000000 -0.004547 174.000000 0.433463 161.000000 0.264308 168.000000 0.395689 20.000000 -0.193935 116.000000 0.009999 123.000000 -0.033027
92716.000000 1.821770 230.000000 206.000000 123.000000 -0.018116 157.000000 0.312007 185.000000 0.029480 186.000000 0.018917 17.000000 -0.147572 112.000000 -0.034026 123.000000 -0.018116
93130.000000 1.830266 208.000000 164.000000 123.000000 -0.068558 143.000000 0.218982 129.000000 -0.011629 136.000000 0.094421 16.000000 -0.115298 97.000000 -0.185014 123.000000 -0.068558
93750.000000 1.809249 344.000000 167.000000 99.000000 -0.412271 146.000000 0.165207 126.000000 0.008749 133.000000 0.034737 19.000000 -0.259185 24.000000 -0.232760 41.000000 -0.289984
94817.000000 1.745673 217.000000 215.000000 139.000000 -0.032240 164.000000 0.339530 191.000000 0.002180 195.000000 0.042132 20.000000 -0.195659 122.000000 -0.039200 127.000000 -0.057492
95665.000000 1.878733 212.000000 426.000000 337.000000 -0.225028 378.000000 0.294656 402.000000 -0.003853 405.000000 -0.022739 22.000000 -0.069401 206.000000 1.000539 317.000000 -0.254668
96091.000000 1.868670 426.000000 218.000000 137.000000 -0.017317 167.000000 0.444469 198.000000 0.044669 201.000000 0.046690 18.000000 -0.200376 128.000000 -0.037097 140.000000 -0.014260
96309.000000 1.944649 218.000000 216.000000 138.000000 -0.053133 165.000000 0.383749 192.000000 0.033527 199.000000 0.029481 16.000000 -0.030224 121.000000 -0.053573 138.000000 -0.053133
97374.000000 1.879313 428.000000 216.000000 138.000000 -0.024126 164.000000 0.386814 191.000000 0.034811 196.000000 0.055722 14.000000 -0.031032 123.000000 -0.013889 138.000000 -0.024126
97798.000000 1.933434 208.000000 213.000000 132.000000 -0.029641 163.000000 0.359952 196.000000 0.017977 202.000000 0.227069 18.000000 -0.163653 118.000000 -0.043308 132.000000 -0.029641
98011.000000 1.941380 213.000000 214.000000 131.000000 -0.017838 169.000000 0.344216 188.000000 -0.020062 190.000000 0.005643 14.000000 0.013713 126.000000 -0.040062 138.000000 -0.034719
99290.000000 2.005988 211.000000 211.000000 131.000000 -0.061677 167.000000 0.330974 185.000000 0.047152 190.000000 0.037702 19.000000 -0.138588 125.000000 -0.063637 133.000000 -0.074890
99501.000000 1.974520 211.000000 213.000000 137.000000 -0.044499 160.000000 0.331628 190.000000 0.023073 196.000000 -0.031175 19.000000 -0.167518 120.000000 -0.046004 138.000000 -0.053371
99714.000000 2.006647 213.000000 137.000000 80.000000 -0.532885 114.000000 -0.052619 109.000000 -0.060188 116.000000 -0.066568 15.000000 0.087101 21.000000 -0.081239 32.000000 -0.151395
100139.000000 1.935991 288.000000 211.000000 78.000000 -0.701251 165.000000 0.355798 187.000000 0.033215 190.000000 0.045943 20.000000 -0.209166 125.000000 -0.042789 184.000000 0.025330
100559.000000 2.102995 209.000000 427.000000 321.000000 -0.225204 376.000000 0.226238 392.000000 0.047444 405.000000 -0.035660 20.000000 -0.066519 222.000000 0.967693 281.000000 -0.114406
100986.000000 1.916974 427.000000 166.000000 80.000000 -0.637760 145.000000 0.188351 129.000000 0.002943 136.000000 0.063131 13.000000 -0.097744 98.000000 -0.242102 130.000000 -0.006900
102905.000000 2.035926 213.000000 421.000000 325.000000 -0.236411 378.000000 0.227242 396.000000 -0.038072 401.000000 0.009905 17.000000 -0.040986 218.000000 0.959282 273.000000 -0.108761
103326.000000 1.913165 421.000000 221.000000 82.000000 -0.724185 169.000000 0.410720 193.000000 0.042648 204.000000 0.050281 18.000000 -0.173575 131.000000 -0.040188 188.000000 0.090862
103547.000000 1.927648 221.000000 223.000000 137.000000 -0.076991 168.000000 0.391755 198.000000 -0.022869 204.000000 0.038589 16.000000 -0.059405 132.000000 -0.058903 137.000000 -0.076991
103770.000000 2.021003 223.000000 126.000000 73.000000 -0.524045 105.000000 -0.105250 91.000000 -0.319969 98.000000 -0.149530 18.000000 -0.054954 25.000000 -0.114139 44.000000 -0.220157
104195.000000 1.888495 299.000000 158.000000 77.000000 -0.657459 133.000000 0.099689 128.000000 0.009517 135.000000 0.084533 22.000000 -0.251458 24.000000 -0.250550 51.000000 -0.345674
104630.000000 1.779767 277.000000 220.000000 138.000000 0.165030 176.000000 0.605235 184.000000 0.236019 191.000000 0.144012 35.000000 -0.322444 123.000000 0.086677 138.000000 0.165030
104850.000000 1.936976 220.000000 218.000000 118.000000 -0.079309 175.000000 0.385158 193.000000 0.114686 195.000000 0.068166 24.000000 -0.036268 120.000000 0.007901 190.000000 -0.013714
105909.000000 1.809266 294.000000 217.000000 135.000000 -0.055138 166.000000 0.381978 193.000000 0.072244 197.000000 -0.004684 16.000000 -0.141314 119.000000 0.010472 124.000000 -0.065217
106338.000000 1.811588 212.000000 212.000000 134.000000 -0.034703 161.000000 0.373433 193.000000 -0.015455 196.000000 0.040047 19.000000 -0.075952 122.000000 -0.015204 134.000000 -0.034703
106758.000000 1.905986 208.000000 128.000000 74.000000 -0.428275 107.000000 -0.062460 93.000000 -0.244905 100.000000 -0.106019 17.000000 0.091551 25.000000 -0.015501 37.000000 -0.121802
107187.000000 1.719137 301.000000 212.000000 125.000000 -0.030628 162.000000 0.385312 175.000000 0.224323 184.000000 0.034745 21.000000 -0.214562 126.000000 -0.024076 175.000000 0.224323
107399.000000 1.851672 212.000000 212.000000 77.000000 -0.546347 161.000000 0.343247 185.000000 -0.011581 192.000000 0.066082 26.000000 -0.193199 126.000000 -0.053351 185.000000 -0.011581
108033.000000 1.892019 422.000000 213.000000 134.000000 -0.074573 163.000000 0.340896 192.000000 0.028103 197.000000 -0.004076 21.000000 -0.214611 122.000000 -0.055777 126.000000 -0.086108
108246.000000 1.912271 213.000000 216.000000 118.000000 -0.081893 166.000000 0.360127 192.000000 0.002715 197.000000 0.024172 14.000000 0.003463 123.000000 -0.049338 192.000000 0.002715
109102.000000 1.846438 215.000000 210.000000 128.000000 -0.062101 159.000000 0.332946 185.000000 -0.010643 191.000000 -0.002510 18.000000 -0.162824 119.000000 -0.036051 130.000000 -0.047383
109312.000000 1.940784 210.000000 436.000000 336.000000 -0.256423 389.000000 0.236680 412.000000 -0.046787 416.000000 -0.041914 19.000000 -0.033996 231.000000 0.940013 284.000000 -0.086192
111912.000000 1.687036 219.000000 440.000000 359.000000 -0.227867 396.000000 0.228404 413.000000 -0.072036 416.000000 -0.049543 23.000000 -0.032102 226.000000 0.997775 271.000000 0.031068
113210.000000 1.863870 430.000000 158.000000 85.000000 -0.629498 137.000000 0.190185 122.000000 -0.048279 129.000000 0.044167 17.000000 -0.170610 22.000000 -0.221676 38.000000 -0.296911
113649.000000 2.051550 281.000000 425.000000 354.000000 -0.169949 376.000000 0.242668 400.000000 -0.048962 406.000000 -0.036627 20.000000 -0.087023 221.000000 0.879479 283.000000 -0.141551
114509.000000 1.848294 270.000000 216.000000 142.000000 -0.022770 165.000000 0.382260 191.000000 0.037650 198.000000 0.071083 19.000000 -0.194355 125.000000 -0.028052 131.000000 -0.057174
114725.000000 1.862745 216.000000 213.000000 144.000000 -0.075158 165.000000 0.351756 188.000000 0.030677 193.000000 0.024456 16.000000 -0.068620 126.000000 -0.044138 144.000000 -0.075158
115366.000000 2.046286 215.000000 427.000000 331.000000 -0.257779 378.000000 0.262756 402.000000 -0.057319 407.000000 -0.014780 20.000000 -0.086677 219.000000 1.008782 276.000000 -0.070955
115793.000000 1.880505 427.000000 221.000000 143.000000 -0.033794 171.000000 0.402661 196.000000 0.015580 207.000000 0.038764 21.000000 -0.208947 129.000000 -0.015046 143.000000 -0.033794
116014.000000 1.921553 221.000000 214.000000 125.000000 -0.067915 162.000000 0.358682 188.000000 -0.015031 194.000000 0.039593 13.000000 0.003153 123.000000 -0.066161 138.000000 -0.044170
117933.000000 2.080988 211.000000 430.000000 336.000000 -0.220750 379.000000 0.245191 405.000000 -0.049433 411.000000 -0.012773 15.000000 0.046334 131.000000 0.981126 152.000000 -1.807386
118789.000000 2.095802 212.000000 427.000000 326.000000 -0.264671 384.000000 0.259733 403.000000 -0.031240 409.000000 -0.000301 16.000000 0.010832 217.000000 1.017160 308.000000 -0.206130
121168.000000 1.883638 218.000000 211.000000 137.000000 -0.046566 162.000000 0.360565 189.000000 0.059438 191.000000 0.048544 17.000000 -0.099152 125.000000 -0.051080 137.000000 -0.046566
121379.000000 1.918232 211.000000 177.000000 121.000000 -0.005191 156.000000 0.296124 144.000000 0.028852 151.000000 0.133977 19.000000 -0.244747 105.000000 -0.055113 121.000000 -0.005191
121815.000000 1.832020 259.000000 216.000000 134.000000 -0.039512 164.000000 0.405267 185.000000 0.052161 200.000000 0.038301 19.000000 -0.199297 127.000000 -0.025280 137.000000 -0.035170
122031.000000 1.837798 216.000000 213.000000 130.000000 -0.011334 165.000000 0.397977 192.000000 0.027084 195.000000 0.019482 17.000000 -0.141668 126.000000 -0.032713 139.000000 -0.014861
122667.000000 1.736270 423.000000 644.000000 328.000000 -2.117212 404.000000 1.186998 513.000000 -0.301986 627.000000 -0.000655 15.000000 -0.222196 158.000000 2.133276 231.000000 -0.855989
123311.000000 1.917354 644.000000 219.000000 79.000000 -0.761263 169.000000 0.444514 180.000000 0.312132 192.000000 0.073340 18.000000 -0.200342 130.000000 -0.026063 180.000000 0.312132
123530.000000 1.920004 219.000000 212.000000 77.000000 -0.559607 161.000000 0.356740 188.000000 0.040987 193.000000 0.063636 20.000000 -0.168885 119.000000 -0.047177 188.000000 0.040987
123742.000000 1.861693 212.000000 214.000000 136.000000 -0.043525 162.000000 0.352541 189.000000 0.011881 195.000000 0.058354 18.000000 -0.148261 123.000000 -0.038713 136.000000 -0.043525
123956.000000 1.753119 214.000000 220.000000 142.000000 -0.050707 168.000000 0.373497 198.000000 0.023903 199.000000 0.024389 20.000000 -0.181928 124.000000 -0.035643 142.000000 -0.050707
124176.000000 1.877084 220.000000 432.000000 354.000000 -0.187429 383.000000 0.284092 408.000000 -0.032275 411.000000 -0.014157 20.000000 -0.042634 223.000000 0.985237 277.000000 -0.065720
124608.000000 1.938883 432.000000 216.000000 138.000000 -0.029325 163.000000 0.404704 194.000000 0.048557 195.000000 0.042977 20.000000 -0.227243 124.000000 -0.020518 138.000000 -0.029325
125042.000000 1.971492 218.000000 435.000000 329.000000 -0.266534 384.000000 0.276708 389.000000 0.211646 418.000000 0.011068 18.000000 -0.029403 216.000000 0.957494 286.000000 -0.076924
126351.000000 1.793010 430.000000 220.000000 143.000000 0.022976 167.000000 0.368494 196.000000 0.045892 200.000000 0.058195 18.000000 -0.141098 131.000000 0.006191 147.000000 -0.006460
127009.000000 1.869859 218.000000 209.000000 65.000000 -0.502957 159.000000 0.328729 185.000000 -0.014907 186.000000 -0.003324 15.000000 -0.034387 121.000000 -0.051882 183.000000 0.000515
127218.000000 1.980016 209.000000 425.000000 333.000000 -0.193087 378.000000 0.259721 401.000000 -0.039180 406.000000 -0.025450 20.000000 -0.074922 221.000000 0.897833 276.000000 -0.111322
127643.000000 1.851726 425.000000 218.000000 138.000000 0.009265 165.000000 0.407964 194.000000 0.067512 196.000000 0.060929 16.000000 -0.153839 123.000000 0.000629 140.000000 -0.003493
132133.000000 1.811836 206.000000 207.000000 78.000000 -0.519166 157.000000 0.311964 186.000000 0.001540 188.000000 -0.001502 16.000000 -0.054527 120.000000 -0.022676 182.000000 -0.003758
132340.000000 1.834249 207.000000 130.000000 80.000000 -0.445738 109.000000 -0.044608 90.000000 -0.290455 97.000000 -0.145565 17.000000 -0.001660 21.000000 -0.006911 29.000000 -0.083150
132470.000000 0.789406 130.000000 291.000000 218.000000 -0.128306 239.000000 0.222291 266.000000 -0.057148 273.000000 -0.010205 26.000000 -1.334416 95.000000 0.867322 157.000000 -0.065722
132761.000000 1.739510 291.000000 218.000000 145.000000 -0.005315 166.000000 0.386849 195.000000 0.044839 200.000000 0.076062 20.000000 -0.186869 129.000000 -0.023715 145.000000 -0.005315
133192.000000 1.852461 213.000000 418.000000 326.000000 -0.197724 368.000000 0.207038 378.000000 0.152288 401.000000 -0.048354 18.000000 -0.062774 129.000000 0.900437 147.000000 -1.873358
133610.000000 1.746394 418.000000 216.000000 127.000000 -0.033964 164.000000 0.365848 190.000000 0.056567 195.000000 0.047366 17.000000 -0.199077 119.000000 -0.024747 127.000000 -0.033964
133826.000000 1.839872 216.000000 221.000000 138.000000 -0.061287 167.000000 0.363464 172.000000 0.275439 205.000000 0.012979 20.000000 -0.160504 131.000000 -0.055551 141.000000 -0.047400
134047.000000 1.871834 221.000000 133.000000 76.000000 -0.519515 111.000000 -0.061818 103.000000 -0.117351 110.000000 -0.082367 13.000000 0.124641 20.000000 -0.071724 27.000000 -0.127962
134683.000000 1.821503 211.000000 213.000000 75.000000 -0.534923 161.000000 0.327305 190.000000 0.002761 197.000000 0.026146 16.000000 -0.079185 126.000000 -0.047428 190.000000 0.002761
134896.000000 1.937697 213.000000 133.000000 78.000000 -0.551472 107.000000 -0.087195 104.000000 -0.113622 111.000000 -0.105189 15.000000 0.064955 22.000000 -0.084246 30.000000 -0.150734
135325.000000 1.848861 296.000000 221.000000 148.000000 -0.015691 169.000000 0.389089 197.000000 0.011252 203.000000 0.050861 17.000000 -0.165670 131.000000 -0.033560 148.000000 -0.015691
135546.000000 1.835253 221.000000 212.000000 134.000000 -0.061283 162.000000 0.338560 188.000000 0.016255 193.000000 0.010173 16.000000 -0.068367 119.000000 -0.051566 134.000000 -0.061283
136619.000000 1.904438 217.000000 422.000000 325.000000 -0.202586 374.000000 0.226442 378.000000 0.178401 401.000000 -0.041691 16.000000 0.031255 221.000000 0.916878 274.000000 -0.089059
138334.000000 1.946488 213.000000 427.000000 328.000000 -0.253947 376.000000 0.261269 380.000000 0.199607 410.000000 -0.010060 18.000000 -0.039797 217.000000 0.972634 317.000000 -0.234417
138761.000000 1.898514 427.000000 227.000000 146.000000 -0.055783 173.000000 0.372239 203.000000 0.049374 210.000000 0.019031 16.000000 -0.074322 130.000000 -0.033699 147.000000 -0.049388
138988.000000 1.890598 227.000000 214.000000 127.000000 -0.058040 162.000000 0.351300 192.000000 0.027962 195.000000 0.026709 11.000000 0.044046 120.000000 -0.049449 127.000000 -0.058040
139628.000000 1.863341 426.000000 216.000000 142.000000 -0.036472 164.000000 0.339170 190.000000 0.018680 194.000000 0.036108 18.000000 -0.192410 127.000000 -0.040906 142.000000 -0.036472
139844.000000 1.896626 216.000000 212.000000 133.000000 -0.087509 161.000000 0.325501 168.000000 0.262711 194.000000 0.000094 16.000000 -0.051853 126.000000 -0.049688 136.000000 -0.070079
140056.000000 1.963496 212.000000 429.000000 329.000000 -0.236143 378.000000 0.240754 405.000000 -0.019370 411.000000 -0.034055 16.000000 0.019514 224.000000 0.920544 290.000000 -0.108872
140485.000000 1.894079 429.000000 215.000000 138.000000 -0.038841 164.000000 0.375218 192.000000 0.041459 193.000000 0.060627 19.000000 -0.207473 123.000000 -0.031960 139.000000 -0.037807
140700.000000 1.900113 215.000000 210.000000 139.000000 -0.043274 161.000000 0.341225 189.000000 0.007777 193.000000 0.043623 19.000000 -0.155061 121.000000 -0.046488 129.000000 -0.060578
140910.000000 1.960127 210.000000 428.000000 330.000000 -0.227868 376.000000 0.260657 404.000000 0.011488 409.000000 -0.013762 18.000000 -0.055218 217.000000 0.951696 318.000000 -0.226364
141558.000000 1.867778 220.000000 213.000000 77.000000 -0.542786 169.000000 0.319247 186.000000 -0.021959 193.000000 0.048825 15.000000 -0.019603 116.000000 -0.041269 186.000000 -0.021959
142185.000000 1.881031 414.000000 217.000000 141.000000 -0.021491 169.000000 0.357364 193.000000 0.034885 197.000000 0.061921 18.000000 -0.154094 128.000000 -0.013591 132.000000 -0.047556
142614.000000 1.969732 212.000000 429.000000 327.000000 -0.275548 380.000000 0.261788 384.000000 0.184907 412.000000 -0.023539 18.000000 -0.037304 224.000000 0.968167 279.000000 -0.099340
143043.000000 1.901398 429.000000 217.000000 141.000000 -0.025829 167.000000 0.400364 193.000000 0.039092 197.000000 0.031287 14.000000 -0.046894 122.000000 -0.026222 141.000000 -0.025829
143260.000000 1.927088 217.000000 212.000000 137.000000 -0.044719 162.000000 0.360752 189.000000 -0.001820 193.000000 0.014763 18.000000 -0.157990 121.000000 -0.053479 138.000000 -0.038513
143910.000000 1.859515 438.000000 222.000000 146.000000 -0.023381 169.000000 0.405271 197.000000 0.037151 199.000000 0.050363 18.000000 -0.203933 130.000000 -0.015296 138.000000 -0.016768
144343.000000 1.851816 211.000000 214.000000 135.000000 -0.041380 163.000000 0.393433 190.000000 0.019654 195.000000 0.021174 17.000000 -0.159814 127.000000 -0.021663 138.000000 -0.033355
144557.000000 1.860140 214.000000 216.000000 136.000000 -0.052067 165.000000 0.386100 191.000000 0.017262 197.000000 0.012387 18.000000 -0.193434 127.000000 -0.033776 137.000000 -0.045813
144773.000000 1.844864 216.000000 430.000000 353.000000 0.145201 380.000000 0.473713 409.000000 0.057479 411.000000 0.046977 21.000000 -0.326250 171.000000 2.270439 244.000000 -1.004670
147372.000000 1.901270 436.000000 193.000000 146.000000 0.010537 172.000000 0.492090 163.000000 0.189518 170.000000 0.401259 21.000000 -0.208682 114.000000 -0.043351 146.000000 0.010537
148036.000000 2.053403 217.000000 431.000000 330.000000 -0.262102 380.000000 0.241004 407.000000 -0.012223 412.000000 -0.008336 18.000000 -0.044420 133.000000 1.021959 152.000000 -1.926836
148908.000000 1.863332 441.000000 219.000000 142.000000 -0.043728 168.000000 0.394719 194.000000 0.035676 200.000000 0.050802 15.000000 -0.080772 125.000000 -0.028381 142.000000 -0.043728
149127.000000 1.938953 219.000000 213.000000 136.000000 -0.045970 160.000000 0.362694 186.000000 0.023306 191.000000 0.050047 17.000000 -0.134620 119.000000 -0.052680 136.000000 -0.045970
149766.000000 1.895067 426.000000 219.000000 78.000000 -0.628819 167.000000 0.405329 189.000000 0.060378 202.000000 0.041664 17.000000 -0.159322 130.000000 -0.019796 177.000000 0.336820
149985.000000 1.866727 219.000000 181.000000 144.000000 0.037148 160.000000 0.447367 156.000000 0.260783 163.000000 0.657571 15.000000 -0.074466 105.000000 0.003822 133.000000 0.025141
150166.000000 1.825346 181.000000 462.000000 349.000000 -0.241860 413.000000 0.297590 436.000000 -0.008476 441.000000 -0.023036 22.000000 -1.002979 238.000000 0.945429 288.000000 -0.011198
150628.000000 1.984988 462.000000 437.000000 336.000000 -0.213669 385.000000 0.256472 411.000000 -0.031947 418.000000 -0.014846 17.000000 -0.077192 231.000000 0.961190 293.000000 -0.095360
152158.000000 1.717242 218.000000 211.000000 134.000000 -0.092066 158.000000 0.298562 184.000000 0.018405 186.000000 0.011917 15.000000 -0.071377 114.000000 -0.057554 135.000000 -0.085656
152369.000000 1.865728 211.000000 216.000000 136.000000 -0.040957 162.000000 0.356238 190.000000 0.031584 197.000000 0.032760 21.000000 -0.180981 119.000000 -0.021503 137.000000 -0.029656
153005.000000 1.919530 281.000000 211.000000 80.000000 -0.757741 163.000000 0.372694 189.000000 0.008541 195.000000 0.092130 12.000000 0.073622 119.000000 -0.019374 189.000000 0.008541
153216.000000 1.940987 211.000000 212.000000 130.000000 -0.058465 160.000000 0.367181 185.000000 0.051196 190.000000 0.051447 15.000000 -0.063983 124.000000 -0.026632 131.000000 -0.057227
153428.000000 1.922387 212.000000 191.000000 136.000000 0.000155 170.000000 0.489058 167.000000 0.441989 174.000000 0.682850 20.000000 -0.193098 107.000000 -0.013841 136.000000 0.000155
154489.000000 1.794232 426.000000 211.000000 83.000000 -0.782775 160.000000 0.376052 182.000000 0.081144 195.000000 0.086331 20.000000 -0.240094 125.000000 -0.002772 182.000000 0.081144
156190.000000 1.912319 216.000000 210.000000 126.000000 -0.101143 160.000000 0.383873 173.000000 0.094155 178.000000 0.073652 19.000000 -0.158685 121.000000 -0.072209 130.000000 -0.156378
156602.000000 1.892588 202.000000 207.000000 116.000000 -0.053936 158.000000 0.419341 174.000000 0.172915 178.000000 0.064168 20.000000 -0.168996 111.000000 -0.003982 116.000000 -0.053936
157230.000000 1.846022 207.000000 208.000000 75.000000 -0.558040 155.000000 0.335313 183.000000 0.035014 189.000000 0.036707 20.000000 -0.214275 107.000000 -0.022147 183.000000 0.035014
158255.000000 1.917144 403.000000 216.000000 134.000000 -0.090942 165.000000 0.342380 183.000000 0.049262 190.000000 -0.026709 19.000000 -0.181396 127.000000 -0.045613 136.000000 -0.074813
158885.000000 1.947178 284.000000 204.000000 128.000000 -0.044048 154.000000 0.308259 179.000000 0.029063 186.000000 0.028061 21.000000 -0.206694 121.000000 -0.031886 128.000000 -0.044048
159298.000000 1.970078 209.000000 212.000000 144.000000 -0.027772 163.000000 0.354767 187.000000 0.035659 190.000000 0.037822 16.000000 -0.061707 125.000000 -0.049306 133.000000 -0.067566
160142.000000 1.872209 419.000000 216.000000 133.000000 -0.028385 163.000000 0.348338 172.000000 0.346692 198.000000 0.055250 14.000000 -0.052760 128.000000 -0.020047 133.000000 -0.028385
161401.000000 1.877695 286.000000 195.000000 133.000000 0.001069 167.000000 0.416084 174.000000 0.295238 186.000000 0.916458 18.000000 -0.196442 116.000000 0.000475 132.000000 0.006383
161818.000000 1.845350 222.000000 208.000000 134.000000 -0.032069 164.000000 0.365176 188.000000 0.053956 191.000000 0.063187 18.000000 -0.185951 117.000000 -0.014766 134.000000 -0.032069
162026.000000 1.876838 208.000000 213.000000 142.000000 -0.039228 162.000000 0.361382 188.000000 0.011665 193.000000 0.025068 17.000000 -0.102658 126.000000 -0.060797 142.000000 -0.039228
162239.000000 1.894945 213.000000 400.000000 336.000000 -0.011347 372.000000 0.300580 370.000000 0.242273 377.000000 0.232773 18.000000 -0.201406 186.000000 1.694619 205.000000 -0.808014
163521.000000 1.914196 216.000000 220.000000 75.000000 -0.566774 166.000000 0.391613 194.000000 -0.018184 200.000000 0.026425 16.000000 -0.092606 131.000000 -0.027557 194.000000 -0.018184
165589.000000 0.863164 129.000000 307.000000 198.000000 -0.262945 255.000000 0.271445 280.000000 -0.058244 288.000000 -0.027555 24.000000 -1.561834 92.000000 0.963304 152.000000 -0.088186
166112.000000 1.936161 216.000000 216.000000 126.000000 -0.080044 166.000000 0.386084 194.000000 0.028514 197.000000 0.032982 16.000000 -0.039106 120.000000 -0.053384 126.000000 -0.080044
166975.000000 1.945219 218.000000 226.000000 136.000000 -0.069390 170.000000 0.405876 203.000000 0.012599 207.000000 0.029135 15.000000 0.002322 133.000000 -0.038246 139.000000 -0.080237
168530.000000 1.923338 445.000000 219.000000 149.000000 0.026460 170.000000 0.419266 191.000000 0.124171 195.000000 0.073183 17.000000 -0.118122 130.000000 0.040865 149.000000 0.026460
168749.000000 1.954733 219.000000 215.000000 38.000000 -0.190801 164.000000 0.370003 183.000000 0.084031 187.000000 0.026869 20.000000 -0.133373 126.000000 0.016223 173.000000 0.337495
168964.000000 1.932745 215.000000 425.000000 330.000000 -0.228101 376.000000 0.270535 401.000000 -0.012241 403.000000 -0.038810 19.000000 -0.066065 223.000000 0.923589 288.000000 -0.095109
170681.000000 2.028981 215.000000 429.000000 342.000000 -0.280831 379.000000 0.164091 407.000000 -0.092006 411.000000 -0.059248 19.000000 -0.093228 221.000000 0.921222 287.000000 -0.156176
171953.000000 1.978573 284.000000 217.000000 126.000000 -0.052413 165.000000 0.358105 195.000000 0.064717 196.000000 0.063854 17.000000 -0.160316 127.000000 -0.041207 192.000000 0.027256
172516.000000 0.893164 127.000000 291.000000 199.000000 -0.249637 242.000000 0.200470 267.000000 -0.069013 272.000000 -0.035722 26.000000 -1.276928 92.000000 0.941538 145.000000 -0.124121
172807.000000 2.007788 291.000000 217.000000 138.000000 -0.029215 166.000000 0.387338 189.000000 0.025582 193.000000 0.057211 25.000000 -0.214125 124.000000 -0.034560 141.000000 -0.036064
173245.000000 2.152272 221.000000 423.000000 349.000000 -0.211627 373.000000 0.210567 397.000000 -0.075451 404.000000 -0.013257 21.000000 -0.098997 223.000000 1.020515 272.000000 -0.139173
173880.000000 2.044642 212.000000 212.000000 137.000000 -0.065264 159.000000 0.326931 185.000000 -0.013478 191.000000 0.006333 15.000000 -0.049059 118.000000 -0.066645 125.000000 -0.085202
174939.000000 2.081853 208.000000 417.000000 322.000000 -0.210564 368.000000 0.236285 391.000000 -0.061974 398.000000 -0.060609 15.000000 0.113168 221.000000 0.996813 269.000000 -0.091415
175356.000000 1.951539 417.000000 217.000000 135.000000 -0.045485 166.000000 0.387006 190.000000 0.042555 195.000000 0.014421 21.000000 -0.228179 129.000000 -0.023933 137.000000 -0.037570
177915.000000 2.047180 632.000000 435.000000 336.000000 -0.240862 385.000000 0.260877 401.000000 0.009577 417.000000 -0.011832 19.000000 -0.071033 233.000000 1.066586 285.000000 -0.043963
178350.000000 1.872071 435.000000 218.000000 143.000000 0.006362 168.000000 0.416002 196.000000 0.065812 201.000000 0.059229 14.000000 -0.090830 123.000000 -0.013198 128.000000 -0.087759
179833.000000 1.942009 209.000000 212.000000 138.000000 -0.029041 163.000000 0.384517 167.000000 0.331414 194.000000 0.061727 17.000000 -0.095580 118.000000 -0.014749 140.000000 -0.026847
182597.000000 2.085892 207.000000 432.000000 330.000000 -0.207003 379.000000 0.273435 409.000000 -0.014622 412.000000 -0.093024 15.000000 0.012098 136.000000 1.154672 156.000000 -1.836643
184430.000000 1.232354 137.000000 122.000000 69.000000 0.581036 97.000000 1.009686 97.000000 1.009686 104.000000 0.790032 23.000000 -1.637020 66.000000 0.606335 69.000000 0.581036
185120.000000 2.074633 216.000000 220.000000 141.000000 -0.070787 166.000000 0.397224 178.000000 0.302695 201.000000 0.030736 17.000000 -0.079789 114.000000 -0.042526 130.000000 -0.088373
185340.000000 2.206787 220.000000 136.000000 76.000000 -0.649499 109.000000 -0.064561 116.000000 -0.108166 121.000000 0.029796 15.000000 0.113903 23.000000 -0.082680 76.000000 -0.649499
185476.000000 1.085739 136.000000 294.000000 198.000000 -0.243619 252.000000 0.250485 273.000000 -0.018341 278.000000 -0.019156 22.000000 -1.824608 93.000000 0.941909 145.000000 -0.062950
185770.000000 2.035075 294.000000 214.000000 134.000000 -0.067006 163.000000 0.377571 181.000000 0.170660 199.000000 0.071803 13.000000 0.020641 127.000000 0.003088 134.000000 -0.067006
185984.000000 2.056710 214.000000 213.000000 135.000000 -0.072993 162.000000 0.345658 181.000000 0.077884 195.000000 -0.015627 16.000000 -0.019901 110.000000 -0.043291 135.000000 -0.072993
186197.000000 2.140158 213.000000 424.000000 329.000000 -0.267227 371.000000 0.243839 380.000000 0.227240 407.000000 -0.026128 16.000000 0.079906 135.000000 1.025456 157.000000 -1.851080
186621.000000 2.051553 424.000000 220.000000 137.000000 0.002398 174.000000 0.426710 195.000000 0.083105 201.000000 0.079375 15.000000 -0.073682 126.000000 -0.004357 137.000000 0.002398
188561.000000 2.221987 218.000000 216.000000 123.000000 -0.102850 163.000000 0.369090 189.000000 -0.008717 195.000000 0.020548 14.000000 0.058335 115.000000 -0.076847 124.000000 -0.106330
188777.000000 2.285000 216.000000 423.000000 341.000000 -0.236101 374.000000 0.290483 398.000000 -0.055771 405.000000 -0.029110 19.000000 -0.071003 127.000000 1.019797 144.000000 -2.211927
189636.000000 2.216445 212.000000 214.000000 119.000000 -0.095816 171.000000 0.384906 189.000000 0.008451 196.000000 0.038559 14.000000 0.040582 125.000000 -0.034248 189.000000 0.008451
190282.000000 2.196424 220.000000 132.000000 82.000000 -0.592885 111.000000 -0.078779 98.000000 -0.215894 105.000000 -0.102713 17.000000 0.001392 20.000000 -0.067620 33.000000 -0.145583
190918.000000 2.125443 210.000000 213.000000 78.000000 -0.605234 160.000000 0.370375 182.000000 0.041771 196.000000 0.004735 17.000000 -0.109479 120.000000 -0.057069 170.000000 0.312947
192631.000000 2.129086 220.000000 219.000000 145.000000 -0.046552 167.000000 0.397665 191.000000 0.003606 196.000000 -0.036160 15.000000 -0.019957 119.000000 -0.064700 129.000000 -0.067490
193273.000000 2.083230 423.000000 184.000000 129.000000 -0.006883 163.000000 0.467631 153.000000 0.091926 160.000000 0.332287 20.000000 -0.225265 109.000000 -0.101272 129.000000 -0.006883
193923.000000 2.109279 217.000000 218.000000 141.000000 -0.047790 164.000000 0.384670 193.000000 0.061346 199.000000 0.016266 21.000000 -0.213652 124.000000 -0.061536 129.000000 -0.094608
194998.000000 2.116504 216.000000 391.000000 243.000000 -0.287041 277.000000 0.200312 304.000000 0.023651 367.000000 0.127757 5.000000 1.353197 180.000000 1.955343 201.000000 -0.643780
195644.000000 1.968106 255.000000 213.000000 135.000000 -0.056301 162.000000 0.381943 188.000000 0.026911 195.000000 0.047336 18.000000 -0.252928 119.000000 -0.046191 125.000000 -0.077869
196917.000000 2.079278 422.000000 212.000000 138.000000 0.005910 164.000000 0.419766 183.000000 0.070972 185.000000 0.059530 17.000000 -0.207384 126.000000 -0.025579 138.000000 0.005910
197129.000000 2.134387 212.000000 215.000000 132.000000 -0.033748 168.000000 0.358761 188.000000 0.035641 193.000000 0.048196 24.000000 -0.144295 123.000000 -0.049812 132.000000 -0.033748
197559.000000 1.976114 215.000000 216.000000 139.000000 -0.026001 171.000000 0.353404 192.000000 -0.016533 197.000000 0.010504 21.000000 -0.184921 124.000000 -0.031879 139.000000 -0.026001
198741.000000 0.911506 126.000000 300.000000 200.000000 -0.255895 249.000000 0.222522 254.000000 0.194278 278.000000 -0.048273 19.000000 -2.145346 96.000000 0.971775 151.000000 -0.090278
199261.000000 2.039989 220.000000 209.000000 133.000000 -0.044971 164.000000 0.329715 184.000000 0.008777 190.000000 0.028965 16.000000 -0.078097 121.000000 -0.028481 133.000000 -0.044971
200747.000000 1.779479 246.000000 205.000000 122.000000 -0.029528 152.000000 0.305426 181.000000 0.012479 189.000000 0.066178 17.000000 -0.151745 121.000000 -0.026346 123.000000 -0.032820
201582.000000 1.982743 248.000000 210.000000 128.000000 -0.031096 160.000000 0.362335 169.000000 0.349591 192.000000 0.019511 17.000000 -0.129107 123.000000 -0.018824 129.000000 -0.034749
202636.000000 2.020015 220.000000 211.000000 73.000000 -0.633226 157.000000 0.330549 185.000000 0.011003 190.000000 0.008244 17.000000 -0.151819 123.000000 -0.043071 185.000000 0.011003
203689.000000 2.038696 210.000000 214.000000 124.000000 -0.060157 161.000000 0.379451 191.000000 0.045843 196.000000 0.032347 19.000000 -0.179986 116.000000 -0.054137 124.000000 -0.060157
205613.000000 2.098622 214.000000 213.000000 138.000000 -0.048444 159.000000 0.368231 189.000000 -0.001472 195.000000 0.031162 16.000000 -0.047788 126.000000 -0.045217 139.000000 -0.037081
206476.000000 2.029658 221.000000 218.000000 138.000000 -0.049699 167.000000 0.379969 193.000000 -0.001316 199.000000 0.033089 20.000000 -0.178336 124.000000 -0.023712 138.000000 -0.049699
207791.000000 2.023479 221.000000 212.000000 138.000000 -0.040222 162.000000 0.354230 194.000000 0.032349 204.000000 0.827506 18.000000 -0.197822 126.000000 -0.061303 130.000000 -0.065473
208652.000000 2.020867 218.000000 219.000000 131.000000 -0.078135 165.000000 0.379893 197.000000 0.012288 198.000000 0.017038 20.000000 -0.181060 124.000000 -0.065188 131.000000 -0.078135
209302.000000 2.087307 261.000000 214.000000 125.000000 -0.060484 164.000000 0.397539 189.000000 0.048447 195.000000 0.052851 18.000000 -0.208272 121.000000 -0.040594 126.000000 -0.054262
209516.000000 2.119106 214.000000 217.000000 141.000000 -0.061270 165.000000 0.361991 192.000000 0.014498 198.000000 0.020249 18.000000 -0.157635 122.000000 -0.048995 127.000000 -0.071033
209910.000000 1.936769 177.000000 256.000000 179.000000 -0.009436 203.000000 0.313651 230.000000 -0.036378 236.000000 -0.030015 20.000000 -0.771181 90.000000 0.045528 121.000000 -0.164422
210595.000000 2.042379 211.000000 431.000000 351.000000 0.017100 378.000000 0.332353 402.000000 -0.004797 409.000000 -0.025033 13.000000 -0.059926 176.000000 1.973507 199.000000 -0.407592
211250.000000 2.021165 224.000000 221.000000 143.000000 -0.032649 167.000000 0.374186 196.000000 0.008217 202.000000 0.058249 15.000000 -0.029274 129.000000 -0.037241 144.000000 -0.026505
211644.000000 1.914306 173.000000 207.000000 157.000000 0.004674 186.000000 0.054029 184.000000 0.025707 191.000000 0.211442 18.000000 -0.886950 97.000000 0.184641 124.000000 -0.024464
211851.000000 1.374592 207.000000 119.000000 20.000000 -1.899062 95.000000 0.919123 84.000000 0.727759 91.000000 0.906474 19.000000 -1.987259 69.000000 0.468809 140.000000 -2.444670
212331.000000 2.008588 361.000000 168.000000 85.000000 -0.699120 147.000000 0.117246 135.000000 0.012229 142.000000 0.096948 19.000000 -0.259764 22.000000 -0.229247 36.000000 -0.301314
213206.000000 1.851555 216.000000 213.000000 128.000000 0.007223 169.000000 0.331378 179.000000 0.157084 194.000000 0.030707 19.000000 -0.203960 116.000000 0.014920 135.000000 -0.054862
214055.000000 1.904763 292.000000 218.000000 142.000000 0.011128 167.000000 0.400032 195.000000 0.045190 197.000000 0.034345 18.000000 -0.199484 129.000000 -0.013291 144.000000 0.013182
214483.000000 1.950022 210.000000 221.000000 142.000000 -0.042696 169.000000 0.378620 190.000000 0.035014 203.000000 0.038273 19.000000 -0.163113 128.000000 -0.054013 142.000000 -0.042696
214920.000000 2.047869 216.000000 421.000000 329.000000 -0.226943 371.000000 0.221475 395.000000 -0.048636 401.000000 -0.050064 14.000000 0.125096 134.000000 1.068259 153.000000 -1.934203
215556.000000 1.922566 215.000000 216.000000 146.000000 -0.022979 167.000000 0.387052 190.000000 0.003684 195.000000 0.019233 13.000000 0.026376 121.000000 -0.035817 125.000000 -0.058919
215772.000000 2.027963 216.000000 130.000000 76.000000 -0.533680 109.000000 -0.057505 102.000000 -0.109010 109.000000 -0.057505 15.000000 0.073871 23.000000 -0.032791 76.000000 -0.533680
215902.000000 0.963889 130.000000 303.000000 220.000000 -0.191143 253.000000 0.261269 276.000000 -0.026946 283.000000 -0.036115 21.000000 -1.878272 96.000000 0.894175 151.000000 -0.108429
216205.000000 1.909872 303.000000 220.000000 147.000000 -0.003777 170.000000 0.423278 195.000000 0.049487 201.000000 0.040928 20.000000 -0.191336 131.000000 0.006724 147.000000 -0.003777
217067.000000 1.958438 427.000000 227.000000 139.000000 -0.057899 174.000000 0.391237 202.000000 0.030750 209.000000 0.059372 15.000000 -0.016248 134.000000 -0.008511 143.000000 -0.013213
217923.000000 1.905408 417.000000 219.000000 136.000000 -0.073618 166.000000 0.396774 192.000000 0.012711 199.000000 0.040579 14.000000 -0.052852 129.000000 -0.016612 138.000000 -0.051706
218988.000000 1.966743 214.000000 210.000000 136.000000 -0.056945 167.000000 0.332428 186.000000 0.017662 191.000000 0.023038 12.000000 -0.165201 109.000000 -0.070203 113.000000 -0.092477
219626.000000 1.843259 428.000000 216.000000 81.000000 -0.614030 165.000000 0.396160 193.000000 0.009436 198.000000 0.010220 19.000000 -0.184502 128.000000 -0.022526 193.000000 0.009436
220699.000000 1.873606 214.000000 218.000000 77.000000 -0.554041 167.000000 0.368198 192.000000 -0.003540 198.000000 0.043811 15.000000 -0.026628 127.000000 -0.030077 192.000000 -0.003540
222925.000000 1.675143 306.000000 328.000000 245.000000 -0.056108 275.000000 0.313182 300.000000 -0.017115 305.000000 -0.032114 22.000000 -1.181330 101.000000 0.213230 129.000000 0.013448
223899.000000 1.987981 215.000000 208.000000 125.000000 -0.057554 155.000000 0.322759 175.000000 0.084218 190.000000 0.038545 16.000000 -0.133602 119.000000 -0.038446 135.000000 -0.049969
224742.000000 1.923213 350.000000 220.000000 86.000000 -0.692605 169.000000 0.392491 177.000000 0.370610 201.000000 0.073776 15.000000 -0.095189 130.000000 -0.000457 177.000000 0.370610
228914.000000 0.903620 128.000000 296.000000 195.000000 -0.211737 244.000000 0.237336 271.000000 -0.031287 276.000000 -0.019029 23.000000 -1.581695 93.000000 0.915876 145.000000 -0.086063
230063.000000 1.889215 209.000000 210.000000 75.000000 -0.544139 158.000000 0.332461 162.000000 0.311081 192.000000 0.035189 15.000000 -0.041772 125.000000 -0.024328 162.000000 0.311081
230273.000000 1.901164 210.000000 207.000000 135.000000 -0.039416 157.000000 0.314187 183.000000 0.022244 188.000000 0.024737 18.000000 -0.161564 122.000000 -0.049683 135.000000 -0.039416
231073.000000 1.902397 165.000000 164.000000 69.000000 -0.321475 101.000000 0.220973 122.000000 -0.004342 138.000000 0.071599 19.000000 -1.240738 97.000000 0.198277 122.000000 -0.004342
231667.000000 0.835404 140.000000 296.000000 218.000000 -0.202979 244.000000 0.196252 271.000000 -0.044877 277.000000 -0.051335 18.000000 -1.964391 96.000000 0.892774 147.000000 -0.112397
234108.000000 1.996131 214.000000 224.000000 143.000000 -0.061864 168.000000 0.378087 198.000000 0.017821 206.000000 0.021660 16.000000 -0.038085 126.000000 -0.067194 143.000000 -0.061864
235181.000000 1.974261 211.000000 162.000000 111.000000 -0.053756 141.000000 0.089319 126.000000 -0.033301 133.000000 0.017890 20.000000 -0.222480 22.000000 -0.190520 39.000000 -0.282164
235343.000000 1.924661 162.000000 261.000000 174.000000 0.030300 210.000000 0.367522 233.000000 -0.021006 239.000000 -0.041586 20.000000 -0.670264 93.000000 0.079719 125.000000 -0.147758
237964.000000 2.080282 429.000000 221.000000 135.000000 -0.025674 168.000000 0.391302 200.000000 0.056723 202.000000 0.069826 17.000000 -0.143180 131.000000 -0.035816 139.000000 -0.030016
238614.000000 2.026744 216.000000 206.000000 133.000000 -0.062147 155.000000 0.339843 179.000000 0.054844 182.000000 -0.011787 17.000000 -0.175608 105.000000 -0.038024 115.000000 -0.093070
240078.000000 1.918231 205.000000 159.000000 71.000000 -0.511846 138.000000 0.140237 125.000000 -0.011001 132.000000 0.069173 18.000000 -0.219419 21.000000 -0.127898 38.000000 -0.298087
242192.000000 2.051256 419.000000 215.000000 136.000000 -0.088274 166.000000 0.456411 185.000000 0.044356 188.000000 0.040736 15.000000 -0.066048 128.000000 -0.043087 140.000000 -0.029169
242826.000000 2.044201 208.000000 214.000000 134.000000 -0.036237 170.000000 0.337085 189.000000 0.053339 194.000000 0.062619 20.000000 -0.186959 119.000000 -0.093054 134.000000 -0.036237
243040.000000 2.052808 214.000000 213.000000 142.000000 -0.036990 164.000000 0.414328 191.000000 0.037476 197.000000 0.005157 16.000000 -0.045062 126.000000 -0.005676 142.000000 -0.036990
243253.000000 2.008997 213.000000 208.000000 126.000000 -0.018367 164.000000 0.429046 188.000000 0.052854 191.000000 0.084939 14.000000 0.008198 114.000000 0.097260 126.000000 -0.018367
243461.000000 1.991318 208.000000 167.000000 117.000000 -0.070330 146.000000 0.312038 138.000000 0.146427 145.000000 0.231442 16.000000 -0.077180 98.000000 -0.160815 117.000000 -0.070330
245764.000000 2.026709 257.000000 210.000000 141.000000 -0.110549 157.000000 0.344608 168.000000 0.277351 194.000000 0.085830 22.000000 -0.390094 120.000000 -0.045628 141.000000 -0.110549
245974.000000 2.206285 210.000000 127.000000 69.000000 -0.446348 100.000000 0.022602 91.000000 -0.121866 98.000000 -0.067100 18.000000 -0.051630 23.000000 0.006866 29.000000 -0.234545
246817.000000 2.082508 425.000000 416.000000 339.000000 -0.191879 365.000000 0.347540 389.000000 0.062493 394.000000 -0.097664 18.000000 -0.065646 217.000000 1.143118 283.000000 -0.210062
247233.000000 2.004734 416.000000 169.000000 80.000000 -0.726474 115.000000 0.202585 140.000000 0.102947 147.000000 0.118434 21.000000 -0.213387 43.000000 -0.141302 80.000000 -0.726474
249506.000000 1.832540 236.000000 210.000000 78.000000 -0.611475 163.000000 0.379263 172.000000 0.306772 185.000000 0.010769 18.000000 -0.178872 124.000000 -0.004107 172.000000 0.306772
249716.000000 1.969185 210.000000 132.000000 79.000000 -0.482491 109.000000 -0.055079 91.000000 -0.314168 98.000000 -0.162852 19.000000 -0.021927 20.000000 -0.019937 35.000000 -0.094575
250566.000000 1.951471 429.000000 211.000000 137.000000 -0.046096 168.000000 0.339373 185.000000 0.010122 192.000000 0.030404 17.000000 -0.160567 125.000000 -0.021393 137.000000 -0.046096
250777.000000 1.970998 211.000000 207.000000 131.000000 -0.060158 165.000000 0.324233 174.000000 0.129029 189.000000 0.026585 17.000000 -0.104456 123.000000 -0.051067 132.000000 -0.074171
250984.000000 1.924641 207.000000 164.000000 107.000000 -0.056408 143.000000 0.093528 135.000000 0.030159 142.000000 0.078779 16.000000 -0.130044 97.000000 -0.133976 117.000000 -0.062255
251632.000000 1.918248 217.000000 214.000000 141.000000 -0.055703 164.000000 0.389939 190.000000 -0.006178 196.000000 0.029086 22.000000 -0.190764 120.000000 -0.066502 128.000000 -0.071784
251846.000000 1.981080 214.000000 211.000000 73.000000 -0.608562 159.000000 0.371426 191.000000 0.024030 191.000000 0.024030 14.000000 -0.025740 125.000000 -0.046728 191.000000 0.024030
252057.000000 1.993340 211.000000 212.000000 75.000000 -0.594811 159.000000 0.343668 186.000000 0.011787 191.000000 0.052759 18.000000 -0.165499 120.000000 -0.048839 186.000000 0.011787
252478.000000 1.993685 209.000000 135.000000 77.000000 -0.516348 114.000000 -0.072147 117.000000 -0.030532 118.000000 -0.034843 18.000000 -0.019449 22.000000 -0.024245 77.000000 -0.516348
253752.000000 1.904551 212.000000 319.000000 251.000000 -0.159938 271.000000 0.048433 288.000000 -0.083401 292.000000 -0.094795 14.000000 -0.021453 179.000000 1.789153 198.000000 -0.660894
255865.000000 1.866961 209.000000 213.000000 77.000000 -0.604245 164.000000 0.351180 185.000000 0.051901 194.000000 0.033124 16.000000 -0.071768 125.000000 -0.049918 182.000000 0.086541
256294.000000 1.987573 216.000000 421.000000 337.000000 -0.228246 372.000000 0.234448 381.000000 0.208618 402.000000 -0.053653 17.000000 0.003904 218.000000 0.962712 275.000000 -0.093759
257126.000000 1.974170 248.000000 216.000000 135.000000 -0.055768 166.000000 0.347069 193.000000 0.036096 199.000000 0.080375 17.000000 -0.014028 122.000000 -0.034826 135.000000 -0.055768
257342.000000 1.899152 216.000000 216.000000 134.000000 -0.040060 173.000000 0.342247 194.000000 0.079786 196.000000 0.069582 15.000000 0.025061 128.000000 0.011616 137.000000 0.003889
257558.000000 1.877448 216.000000 176.000000 122.000000 0.010033 155.000000 0.338919 143.000000 0.152086 150.000000 0.198935 15.000000 0.018420 104.000000 0.099563 122.000000 0.010033
257984.000000 2.042286 250.000000 220.000000 147.000000 -0.014465 170.000000 0.382950 198.000000 0.042685 203.000000 0.077058 16.000000 0.027929 131.000000 -0.005687 147.000000 -0.014465
258591.000000 1.741002 176.000000 257.000000 179.000000 -0.015892 208.000000 0.284340 235.000000 -0.033373 240.000000 -0.031461 19.000000 -0.664609 97.000000 -0.008146 119.000000 -0.160074
258848.000000 1.914588 257.000000 218.000000 137.000000 -0.057589 166.000000 0.353385 194.000000 0.028067 199.000000 -0.012937 19.000000 -0.209706 120.000000 -0.053764 137.000000 -0.057589
259276.000000 1.925971 210.000000 174.000000 129.000000 0.011931 152.000000 0.210662 133.000000 -0.023444 140.000000 0.031273 17.000000 -0.112257 103.000000 -0.065201 129.000000 0.011931
259917.000000 1.808150 214.000000 215.000000 135.000000 -0.041582 162.000000 0.341524 190.000000 0.046147 197.000000 0.022525 19.000000 -0.152979 122.000000 -0.039200 135.000000 -0.041582
260549.000000 1.776394 245.000000 206.000000 130.000000 -0.013624 160.000000 0.335830 184.000000 0.019042 189.000000 0.064326 14.000000 -0.021851 113.000000 0.019371 118.000000 -0.014579
260755.000000 1.913684 206.000000 427.000000 197.000000 0.501158 266.000000 0.061036 285.000000 -0.216816 410.000000 -0.170427 14.000000 0.130251 130.000000 0.938622 149.000000 -1.605330
261182.000000 1.775937 427.000000 208.000000 135.000000 0.121337 160.000000 0.415819 189.000000 0.093888 191.000000 0.100565 15.000000 -0.105506 123.000000 0.147699 135.000000 0.121337
261801.000000 1.902710 206.000000 211.000000 125.000000 -0.063998 158.000000 0.293196 195.000000 0.036431 199.000000 0.139222 18.000000 -0.187212 122.000000 -0.051193 134.000000 -0.036490
262643.000000 1.947961 424.000000 417.000000 349.000000 0.003433 369.000000 0.332150 395.000000 -0.010030 399.000000 -0.008055 18.000000 -0.230408 168.000000 1.938354 184.000000 -0.830315
263060.000000 1.930754 417.000000 210.000000 133.000000 -0.023307 160.000000 0.365456 187.000000 0.005676 192.000000 0.056444 16.000000 -0.122854 122.000000 -0.016850 140.000000 -0.014028
263700.000000 1.871082 430.000000 213.000000 134.000000 -0.030455 161.000000 0.366882 187.000000 0.053432 193.000000 0.049685 17.000000 -0.185156 117.000000 -0.017304 123.000000 -0.033730
264539.000000 1.898917 287.000000 213.000000 135.000000 -0.066895 169.000000 0.311852 188.000000 -0.003949 193.000000 0.028999 20.000000 -0.236522 120.000000 -0.074340 135.000000 -0.066895
264752.000000 1.978732 213.000000 214.000000 112.000000 -0.089498 169.000000 0.339044 188.000000 -0.010001 195.000000 0.047114 19.000000 -0.190267 124.000000 -0.062727 188.000000 -0.010001
265393.000000 1.922429 427.000000 211.000000 136.000000 -0.009134 161.000000 0.361554 188.000000 0.045737 194.000000 0.080534 18.000000 -0.216896 117.000000 -0.012004 136.000000 -0.009134
266036.000000 1.900247 308.000000 219.000000 141.000000 -0.004466 168.000000 0.418291 191.000000 0.198746 196.000000 0.101254 18.000000 -0.183609 130.000000 -0.008478 141.000000 -0.004466
266898.000000 1.855866 428.000000 216.000000 139.000000 0.020938 171.000000 0.348197 192.000000 0.047244 197.000000 0.058294 25.000000 -0.189164 126.000000 0.009764 139.000000 0.020938
267114.000000 1.848170 216.000000 217.000000 139.000000 -0.021585 167.000000 0.336427 193.000000 0.013543 196.000000 0.026004 17.000000 -0.052772 124.000000 -0.014737 139.000000 -0.021585
267331.000000 1.906130 217.000000 429.000000 355.000000 -0.118446 379.000000 0.245677 404.000000 -0.033353 411.000000 -0.002052 16.000000 0.098041 135.000000 0.920409 153.000000 -2.093479
267760.000000 1.880234 429.000000 219.000000 83.000000 -0.750973 170.000000 0.381926 172.000000 0.349888 189.000000 0.074591 15.000000 -0.063514 125.000000 -0.029546 172.000000 0.349888
268192.000000 2.049230 213.000000 439.000000 362.000000 -0.162952 388.000000 0.289370 398.000000 0.189621 417.000000 0.008790 16.000000 -0.032181 137.000000 1.004829 156.000000 -1.907944
268631.000000 2.036425 439.000000 221.000000 140.000000 -0.014924 168.000000 0.409105 196.000000 0.027083 202.000000 0.055109 16.000000 -0.049139 115.000000 -0.020347 125.000000 -0.046412
269485.000000 1.795473 424.000000 218.000000 141.000000 0.029577 167.000000 0.418920 191.000000 0.048074 199.000000 0.092289 17.000000 -0.170484 129.000000 0.006113 141.000000 0.029577
270339.000000 1.797525 421.000000 210.000000 138.000000 0.044954 161.000000 0.354077 188.000000 0.114393 191.000000 0.096446 14.000000 -0.025562 125.000000 0.027416 138.000000 0.044954
271184.000000 1.772301 423.000000 215.000000 141.000000 -0.001834 166.000000 0.378153 195.000000 0.054551 199.000000 0.052983 17.000000 -0.146555 121.000000 -0.027225 141.000000 -0.001834
271399.000000 1.852779 215.000000 211.000000 131.000000 -0.064376 161.000000 0.348571 189.000000 0.013903 194.000000 0.025156 15.000000 -0.057251 123.000000 -0.048387 131.000000 -0.064376
271610.000000 1.810892 211.000000 176.000000 125.000000 -0.023699 155.000000 0.287693 142.000000 0.007947 149.000000 0.127067 18.000000 -0.217212 104.000000 -0.027741 111.000000 -0.035218
272034.000000 1.807558 248.000000 221.000000 128.000000 -0.034026 171.000000 0.382810 199.000000 0.035598 203.000000 0.034234 17.000000 -0.125202 124.000000 -0.016753 129.000000 -0.053305
273113.000000 1.974035 212.000000 218.000000 141.000000 -0.032036 168.000000 0.309407 195.000000 0.024109 198.000000 0.042917 16.000000 -0.036406 126.000000 -0.036942 141.000000 -0.032036
273331.000000 1.953073 218.000000 214.000000 141.000000 -0.046789 167.000000 0.283870 183.000000 0.122192 197.000000 0.030027 17.000000 -0.110735 123.000000 -0.055142 142.000000 -0.040567
273545.000000 1.939384 214.000000 216.000000 141.000000 -0.022854 167.000000 0.297132 186.000000 0.084232 197.000000 0.047696 15.000000 -0.020192 127.000000 -0.027728 141.000000 -0.022854
273761.000000 1.934608 216.000000 208.000000 74.000000 -0.595611 159.000000 0.264765 168.000000 0.212211 189.000000 0.029688 18.000000 -0.164059 123.000000 -0.046898 168.000000 0.212211
274600.000000 1.906728 212.000000 213.000000 127.000000 -0.049387 164.000000 0.295238 187.000000 0.039878 193.000000 -0.008037 18.000000 -0.127503 126.000000 -0.046111 128.000000 -0.042600
274813.000000 1.917103 213.000000 425.000000 346.000000 -0.002426 377.000000 0.238781 388.000000 0.122152 408.000000 -0.007659 20.000000 -0.219984 168.000000 1.944532 182.000000 -1.040061
275881.000000 1.992368 306.000000 213.000000 135.000000 -0.012034 164.000000 0.323091 186.000000 0.017791 195.000000 0.041553 17.000000 -0.140674 119.000000 -0.030560 122.000000 -0.040609
276307.000000 1.947789 213.000000 213.000000 138.000000 -0.041676 163.000000 0.293011 170.000000 0.241413 194.000000 0.042290 18.000000 -0.168967 123.000000 -0.034513 138.000000 -0.041676
277160.000000 1.954014 215.000000 425.000000 355.000000 0.017915 377.000000 0.241081 400.000000 -0.035770 405.000000 -0.042009 17.000000 -0.187616 177.000000 1.751632 195.000000 -0.872287
277585.000000 1.922709 425.000000 210.000000 136.000000 -0.043778 163.000000 0.285423 184.000000 -0.003057 188.000000 0.037116 20.000000 -0.196884 121.000000 -0.029468 136.000000 -0.043778
279264.000000 1.886092 415.000000 212.000000 135.000000 -0.027509 168.000000 0.311156 189.000000 0.032282 195.000000 0.012784 14.000000 -0.054362 126.000000 -0.043997 137.000000 -0.038433
279476.000000 1.937786 212.000000 210.000000 129.000000 -0.099498 158.000000 0.283168 181.000000 -0.016568 194.000000 0.018445 15.000000 -0.028249 125.000000 -0.052037 132.000000 -0.069451
279899.000000 1.971786 213.000000 210.000000 129.000000 -0.028402 159.000000 0.333323 187.000000 0.016901 188.000000 0.020914 16.000000 -0.111679 122.000000 -0.037134 129.000000 -0.028402
280109.000000 1.897904 210.000000 206.000000 73.000000 -0.571671 164.000000 0.304500 182.000000 0.006301 187.000000 0.057256 18.000000 -0.134697 122.000000 -0.048321 182.000000 0.006301
280959.000000 1.890859 212.000000 210.000000 131.000000 -0.032678 161.000000 0.338232 187.000000 0.021676 187.000000 0.021676 17.000000 -0.116195 124.000000 -0.043305 133.000000 -0.035326
282419.000000 1.879170 205.000000 205.000000 122.000000 -0.019670 157.000000 0.311350 173.000000 0.087244 182.000000 0.007885 15.000000 -0.048715 122.000000 -0.019670 173.000000 0.087244
282624.000000 1.898480 205.000000 203.000000 74.000000 -0.569482 154.000000 0.313445 179.000000 0.026458 184.000000 0.019201 18.000000 -0.162397 120.000000 -0.029405 179.000000 0.026458
282827.000000 1.878622 203.000000 206.000000 128.000000 -0.047871 156.000000 0.320735 184.000000 0.020111 187.000000 0.018559 16.000000 -0.103541 122.000000 -0.019234 130.000000 -0.034893
283033.000000 1.873827 206.000000 213.000000 120.000000 -0.027271 169.000000 0.341317 190.000000 0.042589 192.000000 0.046272 18.000000 -0.173601 119.000000 -0.024199 127.000000 -0.040249
285059.000000 1.139922 183.000000 270.000000 199.000000 -0.173399 221.000000 0.071458 245.000000 -0.119183 251.000000 -0.071925 24.000000 -1.373870 95.000000 0.947074 139.000000 -0.132553
285545.000000 1.994873 216.000000 213.000000 119.000000 -0.124464 173.000000 0.267368 189.000000 0.088655 190.000000 0.017652 18.000000 -0.098811 112.000000 0.007652 119.000000 -0.124464
285975.000000 1.870375 217.000000 209.000000 75.000000 -0.590236 157.000000 0.267525 183.000000 -0.025814 189.000000 0.048465 20.000000 -0.134673 117.000000 -0.047430 183.000000 -0.025814
286596.000000 1.853868 288.000000 210.000000 138.000000 0.007416 167.000000 0.335738 185.000000 0.040157 192.000000 0.070642 19.000000 -0.175473 119.000000 0.001302 127.000000 -0.022130
286806.000000 1.804858 210.000000 206.000000 75.000000 -0.552772 163.000000 0.275376 179.000000 0.011538 194.000000 0.109686 17.000000 -0.073668 113.000000 -0.040531 179.000000 0.011538
287836.000000 1.830921 210.000000 215.000000 133.000000 -0.037663 163.000000 0.350285 169.000000 0.260314 197.000000 0.039590 18.000000 -0.148796 127.000000 -0.016269 137.000000 -0.033133
288051.000000 1.806109 215.000000 206.000000 135.000000 -0.036570 156.000000 0.325265 181.000000 0.002772 188.000000 0.059198 18.000000 -0.170804 116.000000 -0.034892 135.000000 -0.036570
289515.000000 1.862637 213.000000 204.000000 76.000000 -0.570185 155.000000 0.298667 179.000000 0.032993 185.000000 0.008557 16.000000 -0.068396 118.000000 -0.029593 179.000000 0.032993
289719.000000 1.847118 204.000000 205.000000 135.000000 -0.028620 156.000000 0.324185 181.000000 0.036162 188.000000 0.051068 19.000000 -0.169168 119.000000 -0.032397 135.000000 -0.028620
289924.000000 1.819393 205.000000 204.000000 120.000000 -0.045691 154.000000 0.302396 162.000000 0.286879 186.000000 0.028303 16.000000 -0.100953 116.000000 -0.024421 127.000000 -0.023481
290128.000000 1.818854 204.000000 209.000000 133.000000 -0.030422 167.000000 0.312854 187.000000 0.043560 187.000000 0.043560 17.000000 -0.137557 118.000000 -0.032178 133.000000 -0.030422
290337.000000 1.813262 209.000000 212.000000 80.000000 -0.541518 161.000000 0.339452 188.000000 -0.031819 194.000000 0.044451 20.000000 -0.166394 123.000000 -0.009060 188.000000 -0.031819
290956.000000 1.851631 278.000000 208.000000 126.000000 -0.017930 167.000000 0.322291 189.000000 0.057606 190.000000 0.052089 17.000000 -0.160423 120.000000 -0.025985 126.000000 -0.017930
291369.000000 1.868905 205.000000 202.000000 115.000000 -0.044638 161.000000 0.292132 182.000000 0.035174 183.000000 0.034594 18.000000 -0.154982 120.000000 -0.043526 181.000000 0.030754
291988.000000 1.857464 212.000000 201.000000 127.000000 -0.016489 152.000000 0.317554 176.000000 0.012837 180.000000 0.021348 8.000000 0.299909 118.000000 -0.022915 127.000000 -0.016489
292189.000000 1.969843 201.000000 409.000000 321.000000 -0.203183 360.000000 0.223446 386.000000 -0.071080 390.000000 -0.045907 21.000000 -0.080689 217.000000 0.922672 269.000000 -0.101016
292598.000000 1.851802 409.000000 178.000000 137.000000 -0.040956 157.000000 0.209844 155.000000 0.155894 162.000000 0.372039 16.000000 -0.159027 105.000000 -0.067649 127.000000 -0.012538
293641.000000 1.882166 206.000000 215.000000 140.000000 -0.033277 165.000000 0.358996 195.000000 0.038654 195.000000 0.038654 20.000000 -0.169401 121.000000 -0.029279 127.000000 -0.053857
293856.000000 1.881067 215.000000 420.000000 298.000000 -0.134701 366.000000 0.297965 371.000000 0.225488 403.000000 -0.061741 20.000000 -0.259027 179.000000 1.484260 198.000000 -0.888420
294276.000000 1.800891 420.000000 213.000000 131.000000 -0.012707 165.000000 0.314047 179.000000 0.113905 186.000000 -0.016032 18.000000 -0.192323 120.000000 -0.014041 131.000000 -0.012707
294902.000000 1.833795 287.000000 212.000000 136.000000 -0.036533 167.000000 0.340941 186.000000 0.027526 192.000000 0.062133 18.000000 -0.206533 124.000000 -0.020767 138.000000 -0.029746
295114.000000 1.838311 212.000000 217.000000 80.000000 -0.515391 166.000000 0.330766 190.000000 0.015797 195.000000 0.027552 21.000000 -0.148054 123.000000 -0.040957 190.000000 0.015797
295331.000000 1.872271 217.000000 209.000000 129.000000 -0.050045 160.000000 0.298059 184.000000 0.011067 190.000000 0.031678 23.000000 -0.199484 122.000000 -0.035061 135.000000 -0.043822
297422.000000 1.841178 210.000000 213.000000 135.000000 -0.060451 162.000000 0.273374 165.000000 0.261853 195.000000 0.024813 18.000000 -0.129244 118.000000 -0.065057 122.000000 -0.073647
297635.000000 1.834608 213.000000 217.000000 138.000000 -0.043428 168.000000 0.303202 193.000000 0.023701 197.000000 0.031162 19.000000 -0.166020 123.000000 -0.057144 127.000000 -0.066705
297852.000000 1.843652 217.000000 213.000000 136.000000 -0.030831 161.000000 0.274749 187.000000 -0.013150 192.000000 0.025408 21.000000 -0.187414 120.000000 -0.039686 138.000000 -0.048150
298065.000000 1.918324 213.000000 418.000000 345.000000 -0.174970 371.000000 0.174201 393.000000 -0.044639 398.000000 -0.021191 18.000000 -0.029027 218.000000 0.980941 276.000000 -0.094138
298483.000000 1.846632 418.000000 216.000000 133.000000 -0.004935 165.000000 0.344549 188.000000 0.000722 197.000000 0.013557 16.000000 -0.116612 117.000000 -0.000248 133.000000 -0.004935
299340.000000 1.861316 293.000000 209.000000 136.000000 0.015357 158.000000 0.320639 183.000000 0.038632 192.000000 0.067255 20.000000 -0.184670 119.000000 0.000484 126.000000 -0.016993
299549.000000 1.870689 209.000000 209.000000 76.000000 -0.556129 167.000000 0.323558 169.000000 0.280408 179.000000 0.058512 18.000000 -0.117070 116.000000 -0.029719 169.000000 0.280408
299758.000000 1.922963 209.000000 420.000000 152.000000 -1.756583 252.000000 0.229140 275.000000 -0.121313 402.000000 -0.033824 22.000000 -0.058681 135.000000 0.935816 153.000000 -1.653511
300603.000000 1.901368 425.000000 158.000000 77.000000 -0.643305 134.000000 0.079778 135.000000 0.064417 146.000000 0.684244 19.000000 -0.249292 24.000000 -0.235796 46.000000 -0.282645
301021.000000 1.981035 260.000000 215.000000 128.000000 -0.034500 167.000000 0.351583 181.000000 0.124765 190.000000 0.020564 18.000000 -0.151613 128.000000 -0.034500 181.000000 0.124765
301875.000000 1.834363 335.000000 216.000000 140.000000 -0.002052 167.000000 0.372461 192.000000 0.020614 199.000000 0.035378 17.000000 -0.161358 120.000000 -0.016549 125.000000 -0.047254
302091.000000 1.852026 216.000000 207.000000 133.000000 -0.035093 155.000000 0.300876 166.000000 0.258745 189.000000 0.039531 16.000000 -0.063007 119.000000 -0.035250 125.000000 -0.057413
302726.000000 1.860379 428.000000 215.000000 134.000000 -0.003858 163.000000 0.347727 190.000000 0.045905 196.000000 0.047488 17.000000 -0.129621 128.000000 -0.021836 138.000000 -0.033748
303148.000000 1.871159 207.000000 210.000000 122.000000 -0.051678 162.000000 0.331707 188.000000 0.022633 191.000000 0.056239 16.000000 -0.080237 119.000000 -0.033637 122.000000 -0.051678
303988.000000 1.884406 418.000000 217.000000 136.000000 -0.036833 168.000000 0.380504 194.000000 0.032745 199.000000 0.058310 9.000000 0.233856 129.000000 -0.031424 136.000000 -0.036833
304205.000000 1.887072 217.000000 206.000000 127.000000 -0.032286 154.000000 0.293057 180.000000 0.004859 186.000000 0.026442 18.000000 -0.153243 119.000000 -0.037834 128.000000 -0.020797
304822.000000 1.784245 207.000000 211.000000 117.000000 -0.060482 161.000000 0.366115 187.000000 0.025912 190.000000 0.029408 17.000000 -0.108511 124.000000 -0.014934 187.000000 0.025912
305455.000000 1.843698 234.000000 408.000000 322.000000 -0.216225 358.000000 0.216204 383.000000 -0.068512 389.000000 -0.056711 17.000000 -0.098479 210.000000 0.942289 266.000000 -0.101536
305863.000000 1.794061 408.000000 417.000000 239.000000 -0.997664 364.000000 0.455248 392.000000 0.061534 398.000000 0.017930 18.000000 -0.293762 171.000000 2.258776 241.000000 -1.010892
306704.000000 1.702196 424.000000 153.000000 77.000000 -0.623915 132.000000 0.126261 113.000000 -0.024432 120.000000 -0.001280 17.000000 -0.204434 23.000000 -0.225235 44.000000 -0.297304
307115.000000 1.835897 258.000000 211.000000 130.000000 -0.026771 161.000000 0.374985 191.000000 0.011771 192.000000 0.022054 15.000000 -0.094229 125.000000 -0.015125 132.000000 -0.023919
307326.000000 1.961429 211.000000 423.000000 152.000000 -2.004925 254.000000 0.245802 280.000000 -0.116910 404.000000 -0.010844 17.000000 0.019218 226.000000 0.940472 280.000000 -0.116910
307749.000000 1.960300 423.000000 416.000000 318.000000 -0.206675 365.000000 0.222869 390.000000 -0.057414 397.000000 -0.058760 16.000000 0.014515 221.000000 0.968371 267.000000 -0.084761
308165.000000 1.899938 416.000000 417.000000 161.000000 -1.824626 251.000000 0.528265 283.000000 -0.089292 398.000000 -0.079574 16.000000 0.009249 234.000000 1.002619 283.000000 -0.089292
308796.000000 2.488159 214.000000 212.000000 113.000000 -0.084045 160.000000 0.379703 195.000000 0.074043 203.000000 0.680188 20.000000 -0.228787 123.000000 -0.061349 183.000000 0.092195
309427.000000 1.837662 419.000000 202.000000 133.000000 -0.013966 156.000000 0.357209 170.000000 0.210031 173.000000 0.155250 12.000000 -0.018372 116.000000 -0.020063 121.000000 -0.046819
310061.000000 2.032538 432.000000 416.000000 192.000000 0.546633 250.000000 0.263673 281.000000 -0.104573 396.000000 -0.064419 20.000000 -0.101929 225.000000 0.897764 281.000000 -0.104573
310477.000000 1.987632 416.000000 420.000000 325.000000 -0.203979 368.000000 0.218871 396.000000 -0.043778 401.000000 -0.040957 20.000000 -0.080941 222.000000 0.938216 288.000000 -0.109747
311535.000000 2.015001 215.000000 417.000000 325.000000 -0.187130 369.000000 0.247070 390.000000 -0.055800 394.000000 -0.045315 17.000000 -0.026958 219.000000 0.960442 271.000000 -0.099855
313862.000000 1.970170 430.000000 216.000000 141.000000 -0.007054 166.000000 0.417054 196.000000 0.066521 199.000000 0.093762 18.000000 -0.200016 122.000000 -0.021598 137.000000 -0.011178
314495.000000 1.906157 417.000000 182.000000 132.000000 0.008919 161.000000 0.420378 153.000000 0.163951 160.000000 0.354359 14.000000 -0.017887 108.000000 -0.101868 116.000000 -0.027713
314927.000000 1.847994 250.000000 215.000000 142.000000 -0.047056 164.000000 0.380328 190.000000 -0.026368 196.000000 0.034839 16.000000 -0.092414 123.000000 -0.013480 130.000000 -0.042964
316841.000000 1.958526 420.000000 215.000000 80.000000 -0.721441 165.000000 0.435141 187.000000 0.049026 192.000000 0.057992 23.000000 -0.203653 128.000000 -0.035550 187.000000 0.049026
317272.000000 1.981681 216.000000 426.000000 352.000000 -0.012884 374.000000 0.327492 401.000000 -0.034764 408.000000 -0.009263 18.000000 -0.233963 173.000000 1.846518 193.000000 -0.641004
318118.000000 1.877950 208.000000 420.000000 346.000000 0.016190 367.000000 0.317461 394.000000 -0.052694 401.000000 -0.022458 13.000000 0.014626 174.000000 1.831033 193.000000 -0.623525
318538.000000 1.873529 420.000000 212.000000 130.000000 -0.044903 160.000000 0.336331 182.000000 0.014262 195.000000 0.046189 16.000000 -0.109810 126.000000 -0.020154 133.000000 -0.026378
319161.000000 2.006912 281.000000 424.000000 317.000000 -0.264642 372.000000 0.224794 401.000000 -0.032400 406.000000 -0.029108 20.000000 -0.097649 221.000000 1.007455 277.000000 -0.132543
319585.000000 1.962710 424.000000 225.000000 138.000000 -0.036177 172.000000 0.403057 182.000000 0.345126 207.000000 0.043874 19.000000 -0.209249 134.000000 -0.021601 139.000000 -0.039720
320572.000000 0.966473 132.000000 286.000000 209.000000 -0.200346 235.000000 0.183935 261.000000 -0.081223 267.000000 -0.045253 25.000000 -1.290109 94.000000 0.924296 142.000000 -0.099592
321073.000000 1.896708 215.000000 217.000000 135.000000 -0.035079 165.000000 0.349121 196.000000 0.000374 201.000000 0.005859 17.000000 -0.105001 122.000000 -0.041300 135.000000 -0.035079
321702.000000 1.897337 412.000000 214.000000 137.000000 -0.007317 164.000000 0.351395 191.000000 0.043871 196.000000 0.025517 19.000000 -0.206033 127.000000 -0.010531 137.000000 -0.007317
322759.000000 1.845816 208.000000 210.000000 133.000000 -0.050990 164.000000 0.317709 185.000000 0.037145 191.000000 0.028147 15.000000 -0.061440 125.000000 -0.042760 134.000000 -0.049642
324444.000000 1.854517 208.000000 175.000000 129.000000 -0.014792 154.000000 0.254093 136.000000 0.024173 143.000000 0.023014 16.000000 -0.084480 104.000000 -0.086485 138.000000 -0.004620
324619.000000 1.791913 175.000000 246.000000 138.000000 -0.168779 200.000000 0.251299 221.000000 -0.041506 226.000000 -0.048512 21.000000 -0.715158 92.000000 0.102176 118.000000 -0.170690
325275.000000 1.862758 203.000000 167.000000 110.000000 0.027085 146.000000 0.330974 127.000000 -0.092255 134.000000 0.004799 22.000000 -0.218559 99.000000 0.054451 124.000000 -0.159935
325442.000000 1.778656 167.000000 242.000000 171.000000 0.002444 193.000000 0.272930 219.000000 -0.068058 221.000000 -0.009610 20.000000 -0.703821 110.000000 0.010612 119.000000 -0.161050
325684.000000 1.879906 242.000000 207.000000 122.000000 -0.079920 156.000000 0.351802 185.000000 0.049386 186.000000 0.009966 17.000000 -0.174592 111.000000 0.018827 124.000000 -0.103181
326300.000000 1.763653 409.000000 177.000000 126.000000 0.029090 156.000000 0.294124 145.000000 0.028543 152.000000 0.284390 17.000000 -0.191708 103.000000 -0.177413 126.000000 0.029090
327340.000000 1.681113 284.000000 1042.000000 806.000000 -0.036538 829.000000 1.092648 851.000000 -0.133762 1021.000000 -0.047508 18.000000 -0.179545 158.000000 1.649922 236.000000 -0.728023
328591.000000 1.338325 209.000000 205.000000 74.000000 -0.433984 153.000000 0.234183 181.000000 -0.030237 187.000000 0.012114 19.000000 -0.181314 119.000000 -0.033826 181.000000 -0.030237
329001.000000 1.296912 205.000000 203.000000 135.000000 0.031535 154.000000 0.432930 172.000000 0.176285 185.000000 0.068950 9.000000 0.157885 117.000000 0.086158 135.000000 0.031535
329204.000000 1.409767 203.000000 213.000000 139.000000 -0.076191 164.000000 0.282084 191.000000 -0.040032 193.000000 -0.059985 18.000000 -0.044088 21.000000 0.055096 28.000000 -0.202193
329417.000000 1.458950 213.000000 206.000000 86.000000 -0.480031 168.000000 0.161129 175.000000 -0.128292 184.000000 -0.332162 15.000000 -0.004263 116.000000 -0.057900 175.000000 -0.128292
329831.000000 1.302304 208.000000 202.000000 67.000000 -0.645593 152.000000 0.321270 168.000000 0.089342 177.000000 -0.041599 19.000000 -0.565422 120.000000 0.060566 168.000000 0.089342
330233.000000 1.678449 200.000000 205.000000 110.000000 -0.098731 165.000000 0.376864 184.000000 0.019733 188.000000 0.036928 25.000000 -0.112068 121.000000 -0.034765 184.000000 0.019733
330438.000000 1.707320 205.000000 203.000000 69.000000 -0.570819 155.000000 0.311804 178.000000 0.044578 183.000000 0.008292 18.000000 -0.155659 119.000000 -0.010237 178.000000 0.044578
330641.000000 1.735612 203.000000 207.000000 115.000000 -0.058024 163.000000 0.346441 178.000000 0.059670 196.000000 0.118496 18.000000 -0.123432 107.000000 -0.019214 116.000000 -0.077507
330848.000000 1.761788 207.000000 135.000000 75.000000 -0.525453 114.000000 -0.062854 108.000000 -0.147038 115.000000 -0.052964 8.000000 0.447681 22.000000 -0.031269 31.000000 -0.077427
331456.000000 1.781990 202.000000 205.000000 133.000000 -0.080548 155.000000 0.278026 181.000000 0.049387 185.000000 -0.033073 17.000000 -0.090001 121.000000 -0.074230 133.000000 -0.080548
332480.000000 1.696427 409.000000 207.000000 81.000000 -0.617445 157.000000 0.362241 184.000000 0.063119 187.000000 0.095784 26.000000 -0.254450 118.000000 -0.014891 179.000000 0.048589
332889.000000 1.795080 202.000000 136.000000 80.000000 -0.358292 111.000000 -0.073654 115.000000 -0.093339 120.000000 0.022226 17.000000 -0.000720 21.000000 0.030627 26.000000 -0.099937
333025.000000 0.857008 136.000000 278.000000 216.000000 -0.068308 236.000000 0.147350 253.000000 -0.072243 258.000000 -0.102384 19.000000 -1.628763 90.000000 0.962069 137.000000 -0.090062
333710.000000 1.786145 407.000000 201.000000 118.000000 -0.135783 160.000000 0.286446 181.000000 0.041056 183.000000 0.004693 19.000000 -0.215580 111.000000 -0.009638 118.000000 -0.135783
333911.000000 1.807559 201.000000 206.000000 126.000000 -0.055957 152.000000 0.322240 179.000000 0.026364 184.000000 0.048371 20.000000 -0.078460 120.000000 -0.041678 126.000000 -0.055957
334326.000000 1.792209 209.000000 202.000000 74.000000 -0.542068 154.000000 0.310502 163.000000 0.281191 185.000000 0.032790 19.000000 -0.089829 110.000000 -0.006816 163.000000 0.281191
334528.000000 1.876614 202.000000 400.000000 196.000000 0.590172 240.000000 0.198621 260.000000 -0.085671 375.000000 -0.124562 14.000000 0.113229 217.000000 0.902712 260.000000 -0.085671
335538.000000 1.932041 205.000000 209.000000 120.000000 -0.061831 164.000000 0.377006 172.000000 0.057179 179.000000 0.027915 21.000000 -0.072850 36.000000 -0.026829 61.000000 -0.457033
335747.000000 1.812164 209.000000 205.000000 76.000000 -0.532648 158.000000 0.322900 161.000000 0.298918 177.000000 0.091599 27.000000 -0.189170 121.000000 -0.058636 161.000000 0.298918
335952.000000 1.797476 205.000000 204.000000 117.000000 -0.118433 162.000000 0.235691 186.000000 -0.006520 187.000000 -0.012946 24.000000 -0.135880 114.000000 -0.083839 117.000000 -0.118433
336156.000000 1.669185 204.000000 197.000000 129.000000 -0.028478 151.000000 0.276349 174.000000 0.051491 180.000000 0.026977 18.000000 -0.157836 111.000000 -0.040314 130.000000 -0.023683
336353.000000 1.702652 197.000000 209.000000 136.000000 -0.030360 167.000000 0.315046 186.000000 0.007397 191.000000 0.070076 14.000000 0.055661 122.000000 -0.032241 136.000000 -0.030360
336562.000000 1.743745 209.000000 214.000000 77.000000 -0.517464 163.000000 0.320833 190.000000 -0.019983 196.000000 0.053512 15.000000 -0.078764 126.000000 -0.017289 190.000000 -0.019983
336776.000000 1.684639 214.000000 205.000000 131.000000 -0.055942 165.000000 0.315300 182.000000 0.007071 185.000000 0.006539 17.000000 -0.092256 119.000000 0.017006 131.000000 -0.055942
336981.000000 1.739374 205.000000 206.000000 112.000000 -0.168199 165.000000 0.313478 176.000000 0.135218 181.000000 0.015672 19.000000 -0.107649 118.000000 -0.038966 182.000000 0.020501
337388.000000 1.759123 201.000000 205.000000 77.000000 -0.568742 154.000000 0.314879 181.000000 0.008812 186.000000 0.003106 16.000000 -0.085532 121.000000 -0.059479 181.000000 0.008812
337593.000000 1.812604 205.000000 137.000000 77.000000 -0.475360 110.000000 -0.043307 112.000000 -0.062194 116.000000 -0.115516 15.000000 0.069108 22.000000 -0.069120 28.000000 -0.103149
338207.000000 1.836411 205.000000 204.000000 116.000000 -0.081836 157.000000 0.324748 181.000000 -0.009438 188.000000 0.100955 15.000000 -0.064781 106.000000 0.039325 116.000000 -0.081836
338411.000000 1.863008 204.000000 404.000000 152.000000 -1.940754 243.000000 0.415407 273.000000 -0.118964 380.000000 -0.110220 15.000000 0.140122 222.000000 0.950154 273.000000 -0.118964
339020.000000 1.790659 205.000000 210.000000 131.000000 -0.046912 165.000000 0.285316 189.000000 0.008403 194.000000 0.075189 19.000000 -0.130093 119.000000 -0.027036 135.000000 -0.049734
339230.000000 1.852242 210.000000 128.000000 77.000000 -0.479842 107.000000 -0.057978 90.000000 -0.327727 97.000000 -0.103714 15.000000 0.109609 20.000000 -0.044152 35.000000 -0.151331
340045.000000 1.485628 206.000000 202.000000 129.000000 -0.074214 156.000000 0.267869 165.000000 0.173166 185.000000 0.015830 22.000000 -0.161346 103.000000 -0.000578 108.000000 -0.166816
340247.000000 1.514748 202.000000 208.000000 129.000000 -0.036708 159.000000 0.315267 186.000000 0.016552 191.000000 0.021569 16.000000 0.053242 112.000000 -0.031333 118.000000 -0.034719
340455.000000 1.588606 208.000000 204.000000 121.000000 -0.085598 162.000000 0.240987 176.000000 0.072665 182.000000 0.042602 20.000000 -0.287381 113.000000 -0.020927 121.000000 -0.085598
340659.000000 1.623591 204.000000 208.000000 76.000000 -0.364906 167.000000 0.529231 189.000000 -0.063888 190.000000 -0.107744 18.000000 -0.110858 122.000000 0.196329 165.000000 0.521456
341612.000000 0.849828 130.000000 282.000000 205.000000 -0.250473 238.000000 0.253918 256.000000 -0.096380 263.000000 -0.024625 24.000000 -1.335517 94.000000 1.030157 143.000000 -0.110378
341894.000000 1.760031 282.000000 203.000000 127.000000 -0.001911 165.000000 0.353654 172.000000 0.085252 178.000000 -0.068855 21.000000 -0.223996 115.000000 -0.041879 127.000000 -0.001911
342097.000000 1.772115 203.000000 201.000000 140.000000 0.036116 159.000000 0.257464 168.000000 0.137307 185.000000 -0.010876 20.000000 -0.138387 116.000000 -0.051880 140.000000 0.036116
342499.000000 1.738322 201.000000 203.000000 131.000000 -0.061192 155.000000 0.282195 179.000000 -0.014389 185.000000 0.002978 23.000000 -0.199907 118.000000 -0.089263 131.000000 -0.061192
342702.000000 1.825235 203.000000 207.000000 148.000000 -0.075674 166.000000 0.276708 183.000000 -0.063463 187.000000 0.068213 14.000000 0.103636 100.000000 0.192240 115.000000 -0.029185
342909.000000 1.771631 207.000000 201.000000 129.000000 -0.005014 151.000000 0.411976 175.000000 0.045517 181.000000 0.043951 22.000000 -0.172224 106.000000 0.062258 111.000000 -0.209623
343517.000000 1.622882 202.000000 198.000000 118.000000 -0.162663 147.000000 0.252102 177.000000 0.004832 183.000000 0.101212 15.000000 -0.077056 112.000000 -0.031847 119.000000 -0.141095
343715.000000 1.689125 198.000000 203.000000 114.000000 -0.069752 154.000000 0.298744 181.000000 -0.007369 186.000000 0.035687 17.000000 -0.128040 102.000000 -0.038984 114.000000 -0.069752
343918.000000 1.679310 203.000000 206.000000 129.000000 -0.001190 163.000000 0.317023 183.000000 0.046993 184.000000 0.051161 18.000000 -0.132664 114.000000 -0.004670 129.000000 -0.001190
344325.000000 1.666772 201.000000 203.000000 129.000000 -0.005157 164.000000 0.307224 180.000000 0.003464 186.000000 0.026174 21.000000 -0.129435 119.000000 -0.025299 129.000000 -0.005157
344528.000000 1.660595 203.000000 199.000000 118.000000 -0.031225 149.000000 0.248527 178.000000 0.017664 182.000000 0.008997 18.000000 -0.168418 117.000000 -0.028451 120.000000 -0.046617
344727.000000 1.681098 199.000000 200.000000 121.000000 -0.009516 159.000000 0.421551 168.000000 0.101739 172.000000 0.052492 15.000000 0.022382 111.000000 0.022397 121.000000 -0.009516
344927.000000 1.536770 200.000000 201.000000 73.000000 -0.573856 154.000000 0.367430 170.000000 0.127932 176.000000 0.058935 22.000000 -0.260140 116.000000 0.011144 179.000000 0.015644
345128.000000 1.705142 201.000000 130.000000 77.000000 -0.443085 105.000000 -0.039937 94.000000 -0.152992 101.000000 -0.086645 22.000000 0.042194 22.000000 0.042194 30.000000 -0.056942
345538.000000 1.592083 280.000000 208.000000 134.000000 -0.033997 161.000000 0.324845 188.000000 0.062559 189.000000 0.056650 13.000000 0.053854 115.000000 -0.045848 139.000000 0.033119
345949.000000 1.656237 203.000000 200.000000 115.000000 -0.044876 151.000000 0.297820 177.000000 0.026016 181.000000 0.015484 18.000000 -0.118073 119.000000 -0.034060 175.000000 0.025609
346149.000000 1.636849 200.000000 202.000000 75.000000 -0.546427 162.000000 0.285125 180.000000 0.022809 186.000000 0.020410 19.000000 -0.165362 117.000000 -0.033089 162.000000 0.285125
346351.000000 1.648261 202.000000 209.000000 136.000000 -0.016770 158.000000 0.318181 183.000000 0.027161 189.000000 0.048133 19.000000 -0.158258 121.000000 -0.009326 136.000000 -0.016770
346965.000000 1.730077 203.000000 202.000000 73.000000 -0.552243 151.000000 0.279718 177.000000 0.030784 182.000000 0.023057 18.000000 -0.123810 119.000000 -0.013434 177.000000 0.030784
347771.000000 1.772697 403.000000 130.000000 80.000000 -0.611270 109.000000 -0.089921 98.000000 -0.236787 105.000000 -0.096756 16.000000 0.008355 22.000000 -0.087538 24.000000 -0.104325
348184.000000 1.854392 283.000000 227.000000 148.000000 -1.912429 206.000000 0.795423 167.000000 -0.302742 174.000000 0.339077 19.000000 -0.103761 132.000000 0.733229 156.000000 -1.362319
348779.000000 1.804951 368.000000 217.000000 87.000000 -0.675846 165.000000 0.407113 192.000000 0.024876 203.000000 0.062072 25.000000 -0.238417 128.000000 -0.009518 192.000000 0.024876
348996.000000 1.811226 217.000000 206.000000 131.000000 -0.062350 155.000000 0.303607 174.000000 0.085093 188.000000 0.045453 8.000000 0.454157 115.000000 -0.060596 132.000000 -0.066645
349408.000000 1.772425 206.000000 206.000000 131.000000 -0.043037 151.000000 0.299221 178.000000 -0.009776 183.000000 0.028185 18.000000 -0.139989 114.000000 -0.059982 119.000000 -0.073351
349819.000000 1.760599 205.000000 207.000000 125.000000 -0.046282 159.000000 0.321475 177.000000 0.061335 184.000000 0.018765 20.000000 -0.183962 122.000000 -0.012002 127.000000 -0.052834
350026.000000 1.758169 207.000000 211.000000 131.000000 -0.028610 167.000000 0.328789 185.000000 -0.003323 191.000000 0.007964 18.000000 -0.166378 117.000000 -0.033061 131.000000 -0.028610
350446.000000 1.775753 209.000000 207.000000 127.000000 -0.032805 166.000000 0.318948 187.000000 0.007505 189.000000 0.026942 20.000000 -0.167728 119.000000 -0.019527 127.000000 -0.032805
350653.000000 1.766738 207.000000 206.000000 74.000000 -0.559765 156.000000 0.290658 181.000000 -0.007368 186.000000 0.029074 20.000000 -0.186600 116.000000 -0.050141 181.000000 -0.007368
350859.000000 1.753478 206.000000 203.000000 72.000000 -0.558822 160.000000 0.304935 180.000000 0.018618 186.000000 0.012553 24.000000 -0.204781 112.000000 -0.053652 180.000000 0.018618
351062.000000 1.736363 203.000000 209.000000 104.000000 -0.119044 166.000000 0.313744 185.000000 0.037928 190.000000 0.042175 18.000000 -0.135879 124.000000 -0.054388 185.000000 0.037928
351271.000000 1.783164 209.000000 216.000000 138.000000 -0.052333 165.000000 0.340252 193.000000 0.013699 198.000000 0.022649 19.000000 -0.182086 124.000000 -0.038213 139.000000 -0.046706
351487.000000 1.763558 216.000000 205.000000 124.000000 -0.064047 154.000000 0.314043 179.000000 -0.002445 185.000000 0.054279 17.000000 -0.141019 119.000000 -0.035488 124.000000 -0.064047
352097.000000 1.672135 405.000000 169.000000 124.000000 0.033513 148.000000 0.505896 152.000000 0.875865 159.000000 1.970252 21.000000 -0.356377 100.000000 -0.138809 124.000000 0.033513
352727.000000 1.716205 212.000000 216.000000 137.000000 -0.030081 163.000000 0.358572 192.000000 0.026850 196.000000 0.013904 15.000000 -0.046163 128.000000 -0.035944 137.000000 -0.030081
352943.000000 1.747322 216.000000 205.000000 111.000000 -0.087211 163.000000 0.307553 179.000000 0.006644 188.000000 0.050657 21.000000 -0.165514 119.000000 -0.040895 179.000000 0.006644
353148.000000 1.826660 205.000000 132.000000 74.000000 -0.514704 107.000000 -0.076993 104.000000 -0.088576 111.000000 -0.099234 14.000000 0.166534 21.000000 -0.053889 29.000000 -0.125488
353555.000000 1.691835 275.000000 188.000000 134.000000 -0.020580 163.000000 0.463448 167.000000 0.438934 174.000000 0.733261 18.000000 -0.184809 111.000000 -0.039811 121.000000 -0.026582
353985.000000 1.644704 242.000000 211.000000 134.000000 -0.033636 158.000000 0.328213 162.000000 0.253871 195.000000 0.067053 15.000000 -0.072128 120.000000 -0.015594 135.000000 -0.022679
354602.000000 1.663858 406.000000 622.000000 302.000000 -1.493323 374.000000 0.727691 409.000000 0.056544 604.000000 0.026299 18.000000 -0.266378 175.000000 2.529469 207.000000 -0.264701
355224.000000 1.774042 622.000000 216.000000 86.000000 -0.669201 168.000000 0.406758 196.000000 0.037979 200.000000 0.059404 19.000000 -0.172934 128.000000 0.005110 172.000000 0.339250
355440.000000 1.786114 216.000000 209.000000 74.000000 -0.514512 156.000000 0.317054 185.000000 0.013322 192.000000 0.038637 15.000000 -0.015046 117.000000 -0.045891 185.000000 0.013322
356701.000000 1.862711 212.000000 412.000000 317.000000 -0.229107 362.000000 0.227478 386.000000 -0.071536 390.000000 -0.027649 17.000000 -0.027304 213.000000 1.002342 263.000000 -0.115971
357113.000000 1.765908 412.000000 427.000000 352.000000 0.006836 375.000000 0.340489 403.000000 -0.009890 408.000000 -0.026693 20.000000 -0.283308 173.000000 1.697637 191.000000 -0.840105
357755.000000 1.869503 215.000000 416.000000 325.000000 -0.227114 368.000000 0.247494 380.000000 0.110896 386.000000 -0.028383 20.000000 -0.072019 215.000000 0.973682 273.000000 -0.081753
358594.000000 1.782995 423.000000 219.000000 137.000000 -0.033838 169.000000 0.387259 187.000000 0.110614 190.000000 0.084000 20.000000 -0.165329 130.000000 -0.007929 141.000000 0.000692
358813.000000 1.757934 219.000000 212.000000 130.000000 -0.064387 165.000000 0.308795 183.000000 -0.022679 195.000000 0.029906 23.000000 -0.155686 126.000000 -0.060468 133.000000 -0.085437
359232.000000 1.796850 207.000000 208.000000 135.000000 -0.047569 166.000000 0.358512 187.000000 -0.020673 190.000000 0.002822 22.000000 -0.146129 120.000000 -0.042444 123.000000 -0.060783
359440.000000 1.843495 208.000000 418.000000 334.000000 -0.167603 366.000000 0.263338 394.000000 -0.081848 399.000000 -0.024716 17.000000 -0.070799 135.000000 1.084843 155.000000 -1.460536
359858.000000 1.875096 418.000000 432.000000 347.000000 -0.226721 392.000000 0.254940 409.000000 -0.064027 414.000000 -0.012726 19.000000 -0.063275 222.000000 1.010387 279.000000 -0.104345
360290.000000 1.739357 432.000000 152.000000 110.000000 -0.073371 128.000000 0.120170 124.000000 0.054167 131.000000 0.105796 18.000000 -0.250126 21.000000 -0.234169 26.000000 -0.261427
361561.000000 1.806004 260.000000 211.000000 134.000000 -0.028951 160.000000 0.364860 191.000000 0.011430 191.000000 0.011430 23.000000 -0.219655 125.000000 -0.008858 134.000000 -0.028951
361772.000000 1.816884 211.000000 208.000000 128.000000 -0.060719 156.000000 0.319093 185.000000 0.026258 191.000000 0.034799 18.000000 -0.170937 122.000000 -0.060327 128.000000 -0.060719
361980.000000 1.803199 208.000000 160.000000 113.000000 -0.040313 139.000000 0.095474 125.000000 -0.026361 132.000000 0.044878 16.000000 -0.083696 95.000000 -0.181551 113.000000 -0.040313
362398.000000 1.823107 258.000000 219.000000 81.000000 -0.592614 167.000000 0.398603 192.000000 0.026768 197.000000 0.024497 15.000000 -0.077003 130.000000 -0.022555 192.000000 0.026768
363456.000000 1.904327 424.000000 219.000000 138.000000 -0.040658 168.000000 0.382257 196.000000 0.028572 200.000000 0.069716 21.000000 -0.198024 129.000000 0.003088 143.000000 -0.015532
364294.000000 1.878870 412.000000 217.000000 140.000000 -0.046771 166.000000 0.380657 195.000000 0.038056 202.000000 0.070721 20.000000 -0.218842 129.000000 -0.038636 141.000000 -0.031113
364511.000000 1.895627 217.000000 206.000000 134.000000 -0.061928 154.000000 0.296128 180.000000 -0.046567 187.000000 -0.001520 14.000000 0.009624 120.000000 -0.055329 125.000000 -0.091473
365977.000000 1.926111 422.000000 211.000000 126.000000 -0.037131 161.000000 0.357117 182.000000 0.063792 188.000000 0.048008 16.000000 -0.106269 125.000000 -0.038198 131.000000 -0.047601
366188.000000 1.975063 211.000000 209.000000 132.000000 -0.031612 159.000000 0.347949 182.000000 -0.006080 188.000000 -0.015829 20.000000 -0.161113 124.000000 -0.015468 139.000000 -0.054103
366397.000000 2.014340 209.000000 128.000000 74.000000 -0.541222 106.000000 -0.072820 92.000000 -0.151723 99.000000 -0.118793 20.000000 -0.066677 20.000000 -0.066677 31.000000 -0.128856
367022.000000 1.944480 212.000000 212.000000 76.000000 -0.539284 161.000000 0.352977 187.000000 -0.003201 193.000000 0.008914 18.000000 -0.117811 124.000000 -0.063889 187.000000 -0.003201
367234.000000 1.914948 212.000000 213.000000 123.000000 -0.055828 161.000000 0.355050 185.000000 -0.001630 192.000000 0.023478 16.000000 -0.072308 122.000000 -0.042474 131.000000 -0.034401
367656.000000 2.033027 209.000000 133.000000 63.000000 -0.374795 110.000000 -0.097147 112.000000 -0.106050 118.000000 0.010957 18.000000 -0.019687 22.000000 -0.025644 30.000000 -0.109202
368068.000000 1.897181 279.000000 214.000000 134.000000 -0.022305 162.000000 0.382114 187.000000 0.035939 196.000000 0.040328 18.000000 -0.168963 126.000000 -0.023745 134.000000 -0.022305
368497.000000 1.895926 215.000000 211.000000 132.000000 -0.076190 160.000000 0.324658 186.000000 0.020329 192.000000 0.008556 20.000000 -0.199495 125.000000 -0.054090 132.000000 -0.076190
368913.000000 2.043793 205.000000 131.000000 78.000000 -0.485378 109.000000 -0.060704 101.000000 -0.075815 108.000000 -0.066473 15.000000 0.098605 22.000000 -0.040705 45.000000 -0.199469
370570.000000 1.903530 207.000000 423.000000 344.000000 -0.227004 373.000000 0.222572 400.000000 -0.096991 400.000000 -0.096991 14.000000 0.047196 221.000000 1.012192 283.000000 -0.140391
370993.000000 1.797664 423.000000 213.000000 137.000000 -0.058604 162.000000 0.385361 190.000000 0.019797 192.000000 0.033748 9.000000 0.035424 121.000000 -0.017273 138.000000 -0.052899
371406.000000 1.739624 200.000000 153.000000 77.000000 -0.457351 100.000000 0.253339 122.000000 -0.083885 129.000000 -0.027522 16.000000 -0.158528 90.000000 -0.073715 122.000000 -0.083885
371797.000000 1.820535 238.000000 211.000000 133.000000 -0.074858 158.000000 0.359906 194.000000 0.030349 198.000000 0.127244 14.000000 -0.072774 125.000000 0.002226 136.000000 -0.067900
372841.000000 1.755705 415.000000 213.000000 130.000000 0.109043 162.000000 0.401410 187.000000 0.018934 188.000000 0.013730 18.000000 -0.230375 117.000000 0.102289 130.000000 0.109043
373054.000000 1.725253 213.000000 210.000000 129.000000 -0.106017 158.000000 0.293060 186.000000 0.000300 190.000000 0.017290 22.000000 -0.260579 124.000000 -0.041267 131.000000 -0.087020
373264.000000 1.676835 210.000000 156.000000 80.000000 -0.499343 133.000000 0.081079 120.000000 -0.065566 127.000000 -0.000755 24.000000 -0.267272 20.000000 -0.155892 31.000000 -0.236598
373883.000000 1.829346 204.000000 205.000000 137.000000 -0.084671 164.000000 0.322147 182.000000 -0.048291 187.000000 0.004437 20.000000 -0.178572 117.000000 -0.037052 123.000000 -0.093840
374088.000000 1.751207 205.000000 160.000000 110.000000 -0.052635 135.000000 0.030798 130.000000 -0.056506 137.000000 0.022570 20.000000 -0.213340 95.000000 -0.118137 110.000000 -0.052635
374248.000000 1.604780 160.000000 253.000000 129.000000 -0.067836 200.000000 0.474044 227.000000 0.107035 233.000000 0.112896 19.000000 -0.949591 90.000000 0.053278 112.000000 -0.176925
374711.000000 1.711551 210.000000 208.000000 76.000000 -0.498106 158.000000 0.359059 183.000000 0.032775 192.000000 0.035894 20.000000 -0.181853 122.000000 -0.015426 178.000000 0.086615
374919.000000 1.606992 208.000000 404.000000 332.000000 0.031567 356.000000 0.305737 383.000000 -0.052037 386.000000 -0.036927 15.000000 -0.066268 157.000000 1.400268 178.000000 -0.700452
375323.000000 1.577994 404.000000 210.000000 136.000000 -0.018891 160.000000 0.313319 185.000000 -0.009893 191.000000 0.032380 18.000000 -0.195844 122.000000 -0.010661 136.000000 -0.018891
376161.000000 1.583922 211.000000 203.000000 127.000000 -0.036005 152.000000 0.281312 177.000000 -0.003795 184.000000 0.023793 19.000000 -0.124416 120.000000 -0.030111 128.000000 -0.039422
376364.000000 1.611507 203.000000 206.000000 114.000000 -0.048416 164.000000 0.302885 166.000000 0.269342 175.000000 0.062194 18.000000 -0.101049 122.000000 -0.011269 166.000000 0.269342
377192.000000 1.651349 293.000000 417.000000 341.000000 0.006315 365.000000 0.289373 371.000000 0.213511 401.000000 -0.015566 20.000000 -0.227822 166.000000 1.762678 185.000000 -0.526932
377609.000000 1.733666 417.000000 202.000000 132.000000 -0.023008 152.000000 0.313278 177.000000 0.009077 183.000000 0.044766 16.000000 -0.147697 116.000000 -0.019044 133.000000 -0.022648
377811.000000 1.888480 202.000000 414.000000 327.000000 -0.171614 371.000000 0.261550 374.000000 0.187569 392.000000 0.024479 19.000000 -0.046160 212.000000 0.990310 266.000000 -0.054185
378225.000000 1.678741 414.000000 171.000000 122.000000 -0.013152 150.000000 0.217755 139.000000 0.069903 146.000000 0.188101 25.000000 -0.229424 20.000000 -0.201179 38.000000 -0.269407
378636.000000 1.768185 240.000000 204.000000 76.000000 -0.640080 163.000000 0.355233 180.000000 0.062099 187.000000 0.028557 17.000000 -0.181268 121.000000 0.039668 180.000000 0.062099
378840.000000 2.022820 204.000000 128.000000 81.000000 -0.532757 107.000000 -0.068807 96.000000 -0.294293 103.000000 -0.117506 15.000000 0.126363 22.000000 -0.007697 39.000000 -0.148760
379248.000000 1.956300 280.000000 412.000000 284.000000 -0.168822 360.000000 0.301835 366.000000 0.221161 396.000000 0.014844 18.000000 -0.246067 173.000000 1.830534 190.000000 -0.854184
379660.000000 2.015722 412.000000 208.000000 137.000000 -0.061269 165.000000 0.286427 187.000000 -0.013540 192.000000 0.089720 14.000000 -0.040344 115.000000 -0.072836 137.000000 -0.061269
380273.000000 2.028997 276.000000 427.000000 325.000000 -0.278554 377.000000 0.238170 388.000000 0.149155 409.000000 -0.043260 16.000000 0.080785 224.000000 1.086631 292.000000 -0.159385
381321.000000 1.920342 208.000000 208.000000 128.000000 -0.056049 164.000000 0.311931 183.000000 0.023530 188.000000 0.007417 17.000000 -0.123702 123.000000 -0.039357 128.000000 -0.056049
381529.000000 2.057494 208.000000 412.000000 321.000000 -0.210471 364.000000 0.219045 388.000000 -0.085957 391.000000 -0.077792 16.000000 0.067730 217.000000 1.053951 268.000000 -0.130096
381941.000000 1.883699 412.000000 214.000000 136.000000 -0.021410 163.000000 0.424687 194.000000 0.043259 199.000000 0.072946 16.000000 -0.139089 126.000000 -0.018870 140.000000 -0.007679
382361.000000 1.847662 206.000000 153.000000 109.000000 -0.047931 132.000000 0.096929 125.000000 0.029671 132.000000 0.096929 20.000000 -0.198371 24.000000 -0.195441 30.000000 -0.225253
382769.000000 1.886021 255.000000 213.000000 75.000000 -0.654541 161.000000 0.359561 191.000000 0.050310 193.000000 0.044259 20.000000 -0.235733 126.000000 -0.040656 188.000000 0.051768
382982.000000 1.911047 213.000000 213.000000 78.000000 -0.546398 164.000000 0.341006 190.000000 0.041693 194.000000 0.009780 18.000000 -0.138027 122.000000 -0.062256 190.000000 0.041693
383195.000000 1.880560 213.000000 208.000000 128.000000 -0.059484 158.000000 0.355798 184.000000 0.001092 191.000000 0.030717 21.000000 -0.218077 120.000000 -0.043292 129.000000 -0.068136
383403.000000 1.870637 208.000000 203.000000 131.000000 -0.040893 154.000000 0.310034 179.000000 -0.013665 185.000000 0.002525 16.000000 -0.102621 116.000000 -0.047554 132.000000 -0.036065
383606.000000 1.893542 203.000000 132.000000 67.000000 -0.459717 87.000000 -0.024137 106.000000 -0.097818 112.000000 -0.098147 20.000000 -0.178792 22.000000 -0.166566 26.000000 -0.197491
383988.000000 1.872284 250.000000 213.000000 138.000000 -0.034187 162.000000 0.360720 189.000000 0.013603 195.000000 0.034245 11.000000 0.107536 126.000000 -0.048275 140.000000 -0.027164
384201.000000 1.863052 213.000000 212.000000 135.000000 -0.035406 161.000000 0.352322 186.000000 0.028762 192.000000 0.045940 18.000000 -0.115961 122.000000 -0.039295 137.000000 -0.032946
384413.000000 1.848039 212.000000 216.000000 131.000000 -0.065299 164.000000 0.392476 193.000000 0.033103 199.000000 0.023745 22.000000 -0.174546 128.000000 -0.049562 131.000000 -0.065299
384629.000000 1.816519 216.000000 207.000000 132.000000 -0.055332 163.000000 0.332333 180.000000 -0.021837 186.000000 0.002206 15.000000 -0.037383 119.000000 -0.051852 133.000000 -0.054141
384836.000000 1.949401 207.000000 134.000000 72.000000 -0.456553 113.000000 -0.037273 103.000000 -0.087039 110.000000 -0.080095 19.000000 -0.050817 20.000000 -0.068246 31.000000 -0.122542
385249.000000 1.798998 279.000000 159.000000 82.000000 -0.609077 138.000000 0.107038 115.000000 -0.058981 122.000000 -0.039435 14.000000 -0.015422 25.000000 -0.214701 31.000000 -0.257601
385678.000000 1.832902 270.000000 216.000000 79.000000 -0.639249 164.000000 0.382694 192.000000 0.031189 197.000000 0.033901 17.000000 -0.181628 126.000000 -0.032919 192.000000 0.031189
386099.000000 1.832587 205.000000 205.000000 74.000000 -0.550972 156.000000 0.345159 181.000000 0.027099 186.000000 0.029716 19.000000 -0.176410 122.000000 -0.023967 181.000000 0.027099
