93.000000 1.491765 93.000000 233.000000 146.000000 -0.179654 180.000000 0.143732 192.000000 0.068338 216.000000 -0.223451 18.000000 -0.083699 72.000000 -0.042462 81.000000 -0.123858
326.000000 1.553995 233.000000 236.000000 147.000000 -0.201460 177.000000 0.160015 190.000000 0.103902 217.000000 -0.213998 14.000000 -0.037508 91.000000 -0.058261 101.000000 -0.104907
798.000000 1.571567 236.000000 220.000000 144.000000 -0.193699 171.000000 0.142056 194.000000 -0.119701 201.000000 -0.174795 16.000000 0.065237 113.000000 -0.055518 144.000000 -0.193699
1253.000000 1.531959 235.000000 235.000000 146.000000 -0.214200 176.000000 0.153558 200.000000 -0.059921 218.000000 -0.218355 15.000000 0.021833 92.000000 -0.074449 106.000000 -0.144671
1488.000000 1.592933 235.000000 242.000000 150.000000 -0.187003 186.000000 0.146492 219.000000 -0.119998 224.000000 -0.160954 17.000000 -0.026552 82.000000 -0.051644 89.000000 -0.120359
1730.000000 1.599813 242.000000 237.000000 149.000000 -0.216537 181.000000 0.150592 204.000000 -0.062056 220.000000 -0.241083 16.000000 0.013935 94.000000 -0.043669 100.000000 -0.086005
1967.000000 1.604652 237.000000 242.000000 144.000000 -0.209201 183.000000 0.139136 204.000000 -0.064595 223.000000 -0.216977 14.000000 0.055091 74.000000 -0.048717 90.000000 -0.087368
2448.000000 1.607895 239.000000 243.000000 149.000000 -0.225880 192.000000 0.150500 202.000000 0.038384 225.000000 -0.166536 16.000000 0.016032 72.000000 -0.036661 105.000000 -0.111536
2935.000000 1.598999 244.000000 249.000000 148.000000 -0.205360 194.000000 0.167337 208.000000 0.019047 231.000000 -0.150563 17.000000 0.093998 90.000000 -0.040329 108.000000 -0.117259
3184.000000 1.591196 249.000000 252.000000 170.000000 -0.104465 192.000000 0.133529 226.000000 -0.076772 233.000000 -0.220204 17.000000 0.017870 85.000000 -0.034606 113.000000 -0.136957
3686.000000 1.576036 250.000000 249.000000 151.000000 -0.208386 191.000000 0.163743 214.000000 -0.057652 231.000000 -0.187527 14.000000 0.045536 84.000000 -0.037414 103.000000 -0.099560
3935.000000 1.607864 249.000000 248.000000 173.000000 -0.064987 194.000000 0.178539 216.000000 -0.089188 236.000000 -0.113874 17.000000 -0.022494 74.000000 -0.046849 87.000000 -0.069060
4682.000000 1.609833 254.000000 251.000000 149.000000 -0.210143 195.000000 0.147867 223.000000 -0.126443 234.000000 -0.264625 15.000000 0.081556 82.000000 -0.021551 149.000000 -0.210143
4933.000000 1.627020 251.000000 251.000000 147.000000 -0.206662 195.000000 0.160373 214.000000 -0.071306 230.000000 -0.113060 14.000000 0.042710 83.000000 -0.032521 147.000000 -0.206662
6680.000000 1.564801 262.000000 246.000000 146.000000 -0.238497 188.000000 0.156864 198.000000 0.095719 229.000000 -0.215316 17.000000 0.001179 78.000000 -0.045689 116.000000 -0.101709
6926.000000 1.584105 246.000000 238.000000 148.000000 -0.157712 183.000000 0.138889 216.000000 -0.089357 218.000000 -0.100093 18.000000 -0.079765 123.000000 -0.074564 148.000000 -0.157712
7164.000000 1.547163 238.000000 242.000000 151.000000 -0.156096 185.000000 0.180658 213.000000 -0.110772 223.000000 -0.156838 17.000000 0.048871 125.000000 -0.066174 143.000000 -0.161535
7406.000000 1.495171 242.000000 253.000000 149.000000 -0.195046 197.000000 0.145174 227.000000 -0.122994 231.000000 -0.103403 15.000000 0.083244 86.000000 -0.041646 107.000000 -0.112319
7659.000000 1.535314 253.000000 245.000000 147.000000 -0.151099 193.000000 0.175077 223.000000 -0.100626 227.000000 -0.165014 17.000000 0.046833 87.000000 -0.038744 92.000000 -0.083588
7904.000000 1.552821 245.000000 245.000000 153.000000 -0.133367 190.000000 0.141869 211.000000 -0.138808 228.000000 -0.267353 15.000000 0.010673 79.000000 -0.046709 88.000000 -0.125595
8149.000000 1.617209 245.000000 228.000000 144.000000 -0.205892 175.000000 0.143605 203.000000 -0.175879 206.000000 -0.072885 14.000000 -0.034923 113.000000 -0.075720 123.000000 -0.120516
8377.000000 1.476599 228.000000 240.000000 151.000000 -0.113167 183.000000 0.168839 195.000000 0.072243 224.000000 -0.200984 19.000000 -0.146129 77.000000 0.013481 89.000000 -0.029199
8860.000000 1.500596 243.000000 237.000000 146.000000 -0.232337 179.000000 0.157319 202.000000 -0.059326 218.000000 -0.154779 15.000000 0.005971 76.000000 -0.064921 87.000000 -0.104169
9097.000000 1.562793 237.000000 236.000000 143.000000 -0.173287 183.000000 0.174607 199.000000 -0.015066 218.000000 -0.152323 16.000000 0.062103 92.000000 -0.061707 99.000000 -0.095202
9571.000000 1.490153 238.000000 245.000000 147.000000 -0.224766 191.000000 0.134574 212.000000 -0.134937 229.000000 -0.221460 17.000000 0.068054 83.000000 -0.026660 108.000000 -0.075988
10534.000000 1.458243 237.000000 251.000000 148.000000 -0.174624 201.000000 0.182791 220.000000 -0.074731 235.000000 -0.211989 15.000000 0.026331 81.000000 -0.014531 114.000000 -0.139954
11278.000000 1.585046 246.000000 250.000000 145.000000 -0.170296 189.000000 0.161757 213.000000 -0.069777 231.000000 -0.203275 15.000000 -0.000752 83.000000 -0.008462 145.000000 -0.170296
11528.000000 1.640411 250.000000 251.000000 174.000000 -0.094733 194.000000 0.143353 207.000000 0.090594 231.000000 -0.170517 14.000000 0.041930 74.000000 -0.036426 95.000000 -0.069998
12030.000000 1.543219 251.000000 250.000000 148.000000 -0.184577 197.000000 0.139683 214.000000 -0.091821 232.000000 -0.139941 15.000000 0.049863 84.000000 0.000958 107.000000 -0.092412
12280.000000 1.499589 250.000000 258.000000 173.000000 -0.091646 202.000000 0.157067 232.000000 -0.086442 238.000000 -0.150422 15.000000 0.001800 89.000000 -0.005296 126.000000 -0.114185
12538.000000 1.577553 258.000000 254.000000 151.000000 -0.198841 198.000000 0.140064 222.000000 -0.127913 239.000000 -0.264871 17.000000 0.038556 83.000000 -0.020409 114.000000 -0.154202
13045.000000 1.584766 253.000000 250.000000 148.000000 -0.208639 199.000000 0.134417 221.000000 -0.135958 231.000000 -0.168591 7.000000 0.861898 81.000000 -0.027507 100.000000 -0.100658
13295.000000 1.660659 250.000000 258.000000 150.000000 -0.180176 202.000000 0.166661 232.000000 -0.131144 238.000000 -0.176206 17.000000 0.040910 95.000000 -0.008731 150.000000 -0.180176
13553.000000 1.604810 258.000000 252.000000 151.000000 -0.177981 198.000000 0.166926 221.000000 -0.101581 235.000000 -0.194388 18.000000 0.004653 79.000000 -0.045065 118.000000 -0.115189
13805.000000 1.642258 252.000000 250.000000 148.000000 -0.202459 197.000000 0.147587 225.000000 -0.133430 231.000000 -0.178117 14.000000 0.067320 90.000000 -0.016442 118.000000 -0.145062
14055.000000 1.606959 250.000000 246.000000 148.000000 -0.232039 191.000000 0.163665 222.000000 -0.088309 228.000000 -0.158842 20.000000 -0.089530 81.000000 -0.023340 99.000000 -0.097760
14301.000000 1.619385 246.000000 254.000000 151.000000 -0.211256 197.000000 0.140749 227.000000 -0.125442 234.000000 -0.161224 17.000000 -0.012856 87.000000 -0.024450 108.000000 -0.101238
15052.000000 1.629768 247.000000 253.000000 149.000000 -0.199673 198.000000 0.191423 220.000000 -0.107948 245.000000 0.713494 14.000000 0.031115 82.000000 -0.024875 108.000000 -0.135329
15305.000000 1.637897 253.000000 255.000000 151.000000 -0.183619 194.000000 0.163639 232.000000 -0.112697 236.000000 -0.186020 15.000000 0.039449 91.000000 -0.011632 151.000000 -0.183619
15560.000000 1.621019 255.000000 250.000000 176.000000 -0.051410 199.000000 0.154764 225.000000 -0.146787 232.000000 -0.225690 17.000000 0.010737 91.000000 -0.027270 111.000000 -0.108682
15810.000000 1.651378 250.000000 250.000000 147.000000 -0.193040 189.000000 0.183558 194.000000 0.152493 232.000000 -0.182099 17.000000 0.047084 93.000000 -0.057697 109.000000 -0.152444
16060.000000 1.660285 250.000000 251.000000 170.000000 -0.100204 192.000000 0.165250 225.000000 -0.092104 230.000000 -0.125678 15.000000 0.051835 79.000000 -0.049607 115.000000 -0.117727
16564.000000 1.653933 253.000000 255.000000 149.000000 -0.229513 199.000000 0.170095 220.000000 -0.086048 240.000000 -0.272412 19.000000 -0.034826 94.000000 -0.039546 116.000000 -0.093230
16819.000000 1.644468 255.000000 255.000000 183.000000 -0.066568 199.000000 0.174748 231.000000 -0.118260 231.000000 -0.118260 16.000000 0.065391 78.000000 -0.076474 104.000000 -0.124468
17319.000000 1.706333 245.000000 252.000000 149.000000 -0.187709 192.000000 0.184358 208.000000 0.059154 234.000000 -0.202933 17.000000 0.015704 85.000000 -0.039905 110.000000 -0.135406
18857.000000 1.701039 260.000000 256.000000 184.000000 0.001880 202.000000 0.165155 223.000000 -0.115016 239.000000 -0.244280 17.000000 0.038780 96.000000 -0.051379 106.000000 -0.082883
19358.000000 1.522541 245.000000 271.000000 151.000000 -0.192602 217.000000 0.193291 239.000000 -0.122164 253.000000 -0.167134 15.000000 0.060976 98.000000 0.026332 134.000000 -0.105909
20662.000000 1.577384 261.000000 243.000000 144.000000 -0.140751 186.000000 0.172762 218.000000 -0.114482 225.000000 -0.165721 15.000000 0.079173 79.000000 -0.013085 89.000000 -0.096143
20905.000000 1.502103 243.000000 259.000000 150.000000 -0.173937 209.000000 0.151251 226.000000 -0.111599 242.000000 -0.215753 15.000000 0.119814 88.000000 0.026146 95.000000 -0.012977
21164.000000 1.550611 259.000000 256.000000 150.000000 -0.190548 203.000000 0.127903 232.000000 -0.152632 236.000000 -0.156253 16.000000 0.024654 83.000000 -0.018510 150.000000 -0.190548
21420.000000 1.580895 256.000000 256.000000 151.000000 -0.176507 196.000000 0.149450 234.000000 -0.146318 236.000000 -0.145769 18.000000 -0.033699 90.000000 -0.011080 120.000000 -0.151126
21676.000000 1.723839 256.000000 238.000000 153.000000 -0.189294 182.000000 0.182522 201.000000 -0.045800 221.000000 -0.283184 18.000000 -0.002932 123.000000 -0.079986 139.000000 -0.200455
22658.000000 1.572274 253.000000 245.000000 149.000000 -0.198575 187.000000 0.147805 206.000000 -0.080503 225.000000 -0.151146 16.000000 0.011114 77.000000 -0.026880 113.000000 -0.121959
23144.000000 1.627213 241.000000 236.000000 142.000000 -0.192820 178.000000 0.137351 191.000000 0.095848 223.000000 -0.251441 15.000000 0.076147 69.000000 -0.079105 90.000000 -0.164717
23380.000000 1.543121 236.000000 255.000000 153.000000 -0.179140 199.000000 0.131051 228.000000 -0.166644 242.000000 -0.185500 11.000000 -0.102475 89.000000 0.019513 113.000000 -0.091209
24129.000000 1.699606 249.000000 247.000000 146.000000 -0.212306 191.000000 0.170923 211.000000 -0.094045 228.000000 -0.154138 16.000000 0.027335 73.000000 -0.050441 107.000000 -0.143371
24376.000000 1.645816 247.000000 249.000000 152.000000 -0.197461 193.000000 0.133543 216.000000 -0.107242 242.000000 0.833402 19.000000 0.015377 20.000000 -0.035110 25.000000 -0.158072
24625.000000 1.613810 249.000000 250.000000 148.000000 -0.184185 190.000000 0.162806 231.000000 -0.155786 232.000000 -0.165504 15.000000 0.019121 81.000000 -0.027867 109.000000 -0.146095
24875.000000 1.605988 250.000000 251.000000 149.000000 -0.220220 192.000000 0.161567 214.000000 -0.079781 232.000000 -0.194156 17.000000 0.016459 84.000000 -0.035093 91.000000 -0.054513
25632.000000 1.646869 257.000000 248.000000 148.000000 -0.217240 191.000000 0.188007 222.000000 -0.108281 227.000000 -0.132356 19.000000 -0.034509 80.000000 -0.045703 108.000000 -0.107521
26128.000000 1.640546 248.000000 246.000000 143.000000 -0.345407 187.000000 0.052760 207.000000 -0.121332 227.000000 -0.233150 16.000000 -0.058935 20.000000 -0.226002 30.000000 -0.261879
26374.000000 1.660595 246.000000 251.000000 153.000000 -0.198026 194.000000 0.126771 202.000000 0.041004 233.000000 -0.149608 15.000000 -0.026583 86.000000 -0.041113 110.000000 -0.096614
26625.000000 1.689421 251.000000 246.000000 146.000000 -0.184873 193.000000 0.157337 214.000000 -0.111723 228.000000 -0.164418 17.000000 0.018293 74.000000 -0.052256 97.000000 -0.088448
26871.000000 1.736163 246.000000 244.000000 142.000000 -0.193980 188.000000 0.153905 219.000000 -0.107241 223.000000 -0.146817 17.000000 0.001773 79.000000 -0.046613 88.000000 -0.116111
27612.000000 1.631819 253.000000 247.000000 146.000000 -0.203136 192.000000 0.166708 215.000000 -0.092572 228.000000 -0.188700 15.000000 0.066959 73.000000 -0.036521 97.000000 -0.101222
28106.000000 1.591977 247.000000 253.000000 148.000000 -0.225328 190.000000 0.150803 230.000000 -0.143980 235.000000 -0.232835 16.000000 0.058026 80.000000 -0.021632 111.000000 -0.137555
28614.000000 1.625034 255.000000 254.000000 180.000000 -0.055498 198.000000 0.184706 218.000000 -0.103321 237.000000 -0.291128 16.000000 0.095035 88.000000 -0.018996 104.000000 -0.113591
28868.000000 1.602020 254.000000 255.000000 151.000000 -0.171911 199.000000 0.161912 220.000000 -0.062633 237.000000 -0.188887 16.000000 0.109025 89.000000 -0.033449 100.000000 -0.066361
29378.000000 1.639700 255.000000 254.000000 146.000000 -0.197885 203.000000 0.141173 222.000000 -0.106884 239.000000 -0.245708 17.000000 0.033778 85.000000 -0.053400 111.000000 -0.147208
29632.000000 1.599402 254.000000 258.000000 150.000000 -0.191051 203.000000 0.162273 221.000000 -0.092476 240.000000 -0.247086 18.000000 -0.025830 93.000000 -0.035690 111.000000 -0.139826
30145.000000 1.617024 255.000000 259.000000 148.000000 -0.198495 205.000000 0.160108 227.000000 -0.111192 240.000000 -0.189796 16.000000 0.088684 86.000000 -0.041868 109.000000 -0.112995
30902.000000 1.558340 242.000000 247.000000 147.000000 -0.146879 193.000000 0.180158 216.000000 -0.085017 230.000000 -0.195488 16.000000 0.058072 83.000000 -0.034014 92.000000 -0.108481
31149.000000 1.570248 247.000000 253.000000 147.000000 -0.186628 195.000000 0.147040 208.000000 0.061962 234.000000 -0.222789 16.000000 0.034388 89.000000 -0.015800 117.000000 -0.135063
31402.000000 1.543498 253.000000 251.000000 156.000000 -0.192427 197.000000 0.150470 219.000000 -0.097511 233.000000 -0.185677 15.000000 0.041601 89.000000 -0.033353 110.000000 -0.133870
31653.000000 1.576880 251.000000 252.000000 151.000000 -0.204919 192.000000 0.152400 227.000000 -0.142411 234.000000 -0.203226 16.000000 0.041818 78.000000 -0.029576 151.000000 -0.204919
32140.000000 1.551958 235.000000 246.000000 149.000000 -0.205925 192.000000 0.116615 211.000000 -0.098839 228.000000 -0.229560 15.000000 0.044827 72.000000 -0.025736 95.000000 -0.101315
32386.000000 1.455986 246.000000 254.000000 147.000000 -0.160720 201.000000 0.155671 219.000000 -0.071364 237.000000 -0.207995 17.000000 0.046410 88.000000 0.026238 109.000000 -0.099606
32640.000000 1.526346 254.000000 249.000000 148.000000 -0.211991 195.000000 0.149015 225.000000 -0.126458 230.000000 -0.204420 16.000000 0.041223 79.000000 -0.022051 83.000000 -0.068430
33139.000000 1.606835 250.000000 256.000000 152.000000 -0.180672 199.000000 0.155095 225.000000 -0.106208 237.000000 -0.230316 17.000000 0.028697 83.000000 -0.049249 108.000000 -0.125486
33636.000000 1.481836 241.000000 251.000000 171.000000 -0.031315 196.000000 0.171819 217.000000 -0.093153 235.000000 -0.232589 15.000000 0.039690 78.000000 -0.010250 110.000000 -0.133588
33887.000000 1.487943 251.000000 248.000000 151.000000 -0.174762 192.000000 0.137698 219.000000 -0.147604 232.000000 -0.276726 16.000000 0.041829 77.000000 -0.022492 97.000000 -0.113682
34392.000000 1.539985 257.000000 239.000000 152.000000 -0.187242 185.000000 0.167868 194.000000 0.066268 221.000000 -0.170269 15.000000 0.023228 75.000000 -0.061194 88.000000 -0.121413
34631.000000 1.595044 239.000000 242.000000 152.000000 -0.163620 185.000000 0.160015 207.000000 -0.076959 224.000000 -0.208385 16.000000 0.069324 68.000000 -0.067616 88.000000 -0.107506
35112.000000 1.526897 239.000000 249.000000 141.000000 -0.141627 196.000000 0.146429 221.000000 -0.123967 232.000000 -0.227084 15.000000 0.073888 80.000000 0.017085 109.000000 -0.125689
35361.000000 1.532210 249.000000 240.000000 149.000000 -0.218777 186.000000 0.131723 214.000000 -0.106319 219.000000 -0.150488 16.000000 -0.007586 72.000000 -0.050529 90.000000 -0.089528
35601.000000 1.571990 240.000000 241.000000 149.000000 -0.235373 182.000000 0.145332 204.000000 -0.090906 223.000000 -0.231345 19.000000 -0.074327 70.000000 -0.027836 110.000000 -0.126676
35842.000000 1.632949 241.000000 235.000000 154.000000 -0.166379 177.000000 0.163715 199.000000 -0.076003 217.000000 -0.220708 15.000000 0.063732 92.000000 -0.072962 99.000000 -0.095861
36808.000000 1.512145 242.000000 247.000000 143.000000 -0.187554 190.000000 0.141894 192.000000 0.125169 229.000000 -0.196285 17.000000 0.023809 75.000000 0.000082 111.000000 -0.113510
37055.000000 1.547006 247.000000 253.000000 149.000000 -0.192099 189.000000 0.166430 214.000000 -0.058883 233.000000 -0.165139 16.000000 0.034781 93.000000 -0.012131 115.000000 -0.117178
37800.000000 1.553403 243.000000 249.000000 146.000000 -0.197351 191.000000 0.148448 199.000000 0.100533 233.000000 -0.238509 16.000000 0.044500 80.000000 -0.016268 111.000000 -0.121958
38049.000000 1.575503 249.000000 253.000000 150.000000 -0.202588 194.000000 0.153493 216.000000 -0.111460 234.000000 -0.210206 14.000000 -0.007254 83.000000 0.002681 114.000000 -0.100704
38302.000000 1.561847 253.000000 251.000000 147.000000 -0.206505 191.000000 0.152257 214.000000 -0.076628 233.000000 -0.183322 16.000000 0.060735 82.000000 0.002038 147.000000 -0.206505
39840.000000 1.663856 257.000000 256.000000 162.000000 -0.168340 194.000000 0.177412 200.000000 0.123887 240.000000 -0.246478 19.000000 -0.069811 84.000000 -0.028839 110.000000 -0.157960
40096.000000 1.644951 256.000000 264.000000 154.000000 -0.173636 210.000000 0.175297 237.000000 -0.101368 250.000000 -0.263420 7.000000 0.935186 93.000000 -0.013289 121.000000 -0.161914
40613.000000 1.662177 253.000000 260.000000 150.000000 -0.203496 202.000000 0.149621 207.000000 0.128038 242.000000 -0.193562 7.000000 0.740123 91.000000 -0.005534 150.000000 -0.203496
40873.000000 1.662191 260.000000 254.000000 148.000000 -0.249344 200.000000 0.163762 222.000000 -0.119467 237.000000 -0.186428 15.000000 0.040516 82.000000 -0.024560 107.000000 -0.111661
41391.000000 1.652762 264.000000 255.000000 150.000000 -0.220280 199.000000 0.169985 222.000000 -0.124215 237.000000 -0.231706 14.000000 0.034892 86.000000 -0.030910 150.000000 -0.220280
41904.000000 1.699572 258.000000 257.000000 150.000000 -0.230438 196.000000 0.179827 209.000000 0.108887 244.000000 -0.181915 17.000000 -0.000457 87.000000 -0.045077 91.000000 -0.093979
42161.000000 1.621769 257.000000 258.000000 180.000000 -0.075768 201.000000 0.169293 222.000000 -0.044390 241.000000 -0.231803 10.000000 0.084295 92.000000 -0.039623 111.000000 -0.116550
42419.000000 1.661455 258.000000 256.000000 151.000000 -0.230296 197.000000 0.164500 222.000000 -0.103384 237.000000 -0.227365 7.000000 0.860232 89.000000 -0.029845 111.000000 -0.098763
42675.000000 1.614373 256.000000 256.000000 150.000000 -0.230235 201.000000 0.161299 220.000000 -0.105974 237.000000 -0.143009 15.000000 0.078573 93.000000 -0.024608 125.000000 -0.145971
42931.000000 1.632145 256.000000 264.000000 150.000000 -0.206959 201.000000 0.148010 239.000000 -0.119420 245.000000 -0.208478 16.000000 0.051269 94.000000 0.005438 121.000000 -0.117211
43195.000000 1.663071 264.000000 259.000000 148.000000 -0.215329 198.000000 0.173464 221.000000 -0.038760 241.000000 -0.189122 16.000000 0.071441 91.000000 -0.029263 116.000000 -0.087398
43454.000000 1.700378 259.000000 261.000000 152.000000 -0.195737 202.000000 0.183653 230.000000 -0.123226 242.000000 -0.203962 13.000000 0.060440 95.000000 -0.009733 119.000000 -0.079860
44234.000000 1.680285 266.000000 267.000000 179.000000 -0.080109 205.000000 0.156271 237.000000 -0.161865 249.000000 -0.234295 15.000000 0.032165 99.000000 -0.001770 150.000000 -0.235719
44501.000000 1.656756 267.000000 275.000000 149.000000 -0.246612 214.000000 0.155077 243.000000 -0.124705 257.000000 -0.215473 15.000000 0.039261 94.000000 0.009593 149.000000 -0.246612
45309.000000 1.590677 266.000000 267.000000 190.000000 -0.045502 208.000000 0.146850 242.000000 -0.129077 247.000000 -0.162369 7.000000 1.013090 93.000000 -0.009015 115.000000 -0.112367
45836.000000 1.635579 260.000000 267.000000 169.000000 -0.140704 209.000000 0.135595 241.000000 -0.080942 247.000000 -0.126224 10.000000 0.033370 92.000000 -0.012868 146.000000 -0.230736
46621.000000 1.605700 256.000000 253.000000 171.000000 -0.094481 199.000000 0.128557 229.000000 -0.164706 234.000000 -0.227433 17.000000 0.049949 80.000000 0.000565 116.000000 -0.080421
47895.000000 1.592664 250.000000 262.000000 175.000000 -0.092054 208.000000 0.150294 240.000000 -0.113904 242.000000 -0.132791 21.000000 -0.161193 91.000000 0.009795 103.000000 -0.048590
48157.000000 1.548885 262.000000 251.000000 152.000000 -0.230095 197.000000 0.162257 205.000000 0.041316 235.000000 -0.276251 16.000000 0.013979 87.000000 -0.017130 108.000000 -0.145783
48408.000000 1.581381 251.000000 251.000000 151.000000 -0.204564 195.000000 0.139856 209.000000 0.024449 233.000000 -0.184389 15.000000 0.022415 81.000000 -0.010314 114.000000 -0.112056
48659.000000 1.594967 251.000000 248.000000 148.000000 -0.250595 189.000000 0.164922 210.000000 -0.052083 230.000000 -0.274185 15.000000 0.046662 80.000000 -0.009403 150.000000 -0.200359
48907.000000 1.649280 248.000000 254.000000 150.000000 -0.214328 196.000000 0.146362 208.000000 0.063853 236.000000 -0.219863 14.000000 0.018651 85.000000 -0.054015 90.000000 -0.101899
49161.000000 1.566423 254.000000 245.000000 147.000000 -0.168131 187.000000 0.169516 211.000000 -0.054406 237.000000 0.639888 15.000000 0.043101 70.000000 -0.049859 88.000000 -0.126770
49406.000000 1.507850 245.000000 253.000000 151.000000 -0.190219 197.000000 0.131993 218.000000 -0.141314 241.000000 -0.176471 16.000000 0.058259 89.000000 -0.008182 133.000000 -0.137773
49905.000000 1.634580 246.000000 253.000000 150.000000 -0.232615 202.000000 0.152197 232.000000 -0.158663 233.000000 -0.178428 16.000000 0.010081 86.000000 -0.016956 89.000000 -0.062740
50899.000000 1.594247 252.000000 252.000000 151.000000 -0.200735 194.000000 0.163139 229.000000 -0.151628 234.000000 -0.184700 19.000000 -0.112978 84.000000 -0.015988 93.000000 -0.069797
51151.000000 1.635051 252.000000 249.000000 150.000000 -0.221001 195.000000 0.146507 218.000000 -0.145515 230.000000 -0.211050 16.000000 0.067118 76.000000 -0.025156 117.000000 -0.127225
51400.000000 1.598608 249.000000 244.000000 147.000000 -0.187208 187.000000 0.174281 211.000000 -0.086205 225.000000 -0.180092 17.000000 0.005675 74.000000 -0.050297 86.000000 -0.085516
52138.000000 1.591476 254.000000 246.000000 149.000000 -0.228039 193.000000 0.154155 224.000000 -0.135691 227.000000 -0.184736 19.000000 -0.052349 73.000000 -0.026440 97.000000 -0.077677
52628.000000 1.607535 244.000000 240.000000 148.000000 -0.190755 185.000000 0.156658 206.000000 -0.090473 221.000000 -0.191601 7.000000 0.870090 75.000000 -0.033244 91.000000 -0.081552
53350.000000 1.660139 235.000000 246.000000 147.000000 -0.212149 193.000000 0.163335 225.000000 -0.146568 227.000000 -0.136520 16.000000 0.079684 75.000000 -0.037572 91.000000 -0.078903
53596.000000 1.645658 246.000000 248.000000 148.000000 -0.234433 187.000000 0.158655 210.000000 -0.079918 230.000000 -0.201174 18.000000 -0.037538 79.000000 0.000863 114.000000 -0.083824
53844.000000 1.674219 248.000000 251.000000 156.000000 -0.234624 190.000000 0.152886 225.000000 -0.132989 233.000000 -0.226940 14.000000 0.007463 85.000000 -0.013839 104.000000 -0.120908
54095.000000 1.682654 251.000000 248.000000 149.000000 -0.226771 193.000000 0.181973 223.000000 -0.131379 230.000000 -0.207413 17.000000 0.045582 73.000000 -0.030205 91.000000 -0.086741
54586.000000 1.703853 243.000000 251.000000 150.000000 -0.172993 192.000000 0.172398 216.000000 -0.076694 231.000000 -0.173920 16.000000 0.090549 77.000000 -0.044213 104.000000 -0.130907
54837.000000 1.592927 251.000000 257.000000 166.000000 -0.141695 195.000000 0.181957 230.000000 -0.122319 236.000000 -0.155689 15.000000 0.067567 88.000000 -0.004748 150.000000 -0.219548
55094.000000 1.639859 257.000000 248.000000 150.000000 -0.222065 189.000000 0.153110 212.000000 -0.081735 229.000000 -0.150844 17.000000 -0.043041 82.000000 -0.027965 103.000000 -0.106490
55342.000000 1.637982 248.000000 253.000000 147.000000 -0.210827 195.000000 0.145489 217.000000 -0.113290 232.000000 -0.154810 17.000000 0.035614 85.000000 -0.004092 147.000000 -0.210827
56083.000000 1.657837 246.000000 246.000000 148.000000 -0.203402 188.000000 0.142336 209.000000 -0.064638 227.000000 -0.171741 19.000000 -0.014389 78.000000 -0.012712 94.000000 -0.099184
56329.000000 1.668230 246.000000 249.000000 149.000000 -0.213323 190.000000 0.153355 214.000000 -0.103746 231.000000 -0.198072 16.000000 0.016254 83.000000 -0.008402 105.000000 -0.089671
58372.000000 1.652873 264.000000 264.000000 151.000000 -0.249984 203.000000 0.149828 243.000000 -0.113963 246.000000 -0.203414 16.000000 0.021147 93.000000 -0.012665 118.000000 -0.124733
59161.000000 1.619526 269.000000 266.000000 180.000000 -0.081882 207.000000 0.142646 215.000000 0.055419 249.000000 -0.242383 17.000000 0.004513 96.000000 -0.004606 145.000000 -0.201396
59427.000000 1.638649 266.000000 271.000000 186.000000 -0.083731 215.000000 0.147600 242.000000 -0.115786 252.000000 -0.144329 15.000000 0.061583 97.000000 0.002353 147.000000 -0.208057
60236.000000 1.599577 538.000000 256.000000 148.000000 -0.185175 201.000000 0.171077 221.000000 -0.111946 239.000000 -0.250845 17.000000 0.038212 92.000000 -0.011460 119.000000 -0.103417
60492.000000 1.541067 256.000000 258.000000 150.000000 -0.186865 199.000000 0.153294 224.000000 -0.091552 241.000000 -0.221176 16.000000 0.071442 88.000000 0.003291 110.000000 -0.094060
60750.000000 1.623591 258.000000 267.000000 174.000000 -0.112207 203.000000 0.165549 235.000000 -0.128497 250.000000 -0.320144 18.000000 -0.047630 93.000000 -0.003650 148.000000 -0.199153
61534.000000 1.621429 258.000000 249.000000 147.000000 -0.185690 193.000000 0.172587 223.000000 -0.099089 231.000000 -0.159684 14.000000 0.033073 81.000000 -0.039876 105.000000 -0.108716
61783.000000 1.628027 249.000000 273.000000 191.000000 -0.055267 214.000000 0.149702 239.000000 -0.095001 255.000000 -0.228825 15.000000 0.087008 105.000000 -0.000673 153.000000 -0.162758
62056.000000 1.595817 273.000000 266.000000 148.000000 -0.206129 208.000000 0.169984 242.000000 -0.104641 247.000000 -0.182806 17.000000 -0.003086 96.000000 0.015784 148.000000 -0.206129
62322.000000 1.614812 266.000000 270.000000 187.000000 -0.107259 209.000000 0.143901 243.000000 -0.120267 250.000000 -0.138763 15.000000 0.089453 99.000000 0.001569 151.000000 -0.244436
63385.000000 1.618526 259.000000 262.000000 150.000000 -0.178263 210.000000 0.134071 228.000000 -0.112401 244.000000 -0.203934 18.000000 0.025770 90.000000 0.004060 150.000000 -0.178263
63647.000000 1.614511 262.000000 265.000000 177.000000 -0.086741 201.000000 0.156959 210.000000 0.129184 248.000000 -0.287365 16.000000 0.010610 92.000000 0.007963 150.000000 -0.203699
64454.000000 1.664846 271.000000 270.000000 187.000000 -0.060847 213.000000 0.180171 235.000000 -0.079533 251.000000 -0.158716 10.000000 0.050613 102.000000 0.010204 121.000000 -0.152836
64724.000000 1.661813 270.000000 283.000000 198.000000 -0.075783 224.000000 0.125802 248.000000 -0.096297 274.000000 0.615757 14.000000 0.057723 108.000000 -0.005220 151.000000 -0.197665
65298.000000 1.638686 291.000000 300.000000 214.000000 -0.076736 244.000000 0.171211 264.000000 -0.090655 283.000000 -0.251158 15.000000 0.126880 113.000000 -0.001234 152.000000 -0.231315
65598.000000 1.583578 300.000000 312.000000 219.000000 -0.055454 247.000000 0.132682 251.000000 0.132385 293.000000 -0.157711 15.000000 0.094892 99.000000 -0.009848 155.000000 -0.188323
65910.000000 1.578137 312.000000 318.000000 217.000000 -0.083591 255.000000 0.170124 256.000000 0.149936 300.000000 -0.174846 15.000000 0.062541 99.000000 -0.000185 112.000000 -0.031736
66861.000000 1.657990 324.000000 330.000000 229.000000 -0.056173 267.000000 0.162165 276.000000 0.085080 312.000000 -0.159777 16.000000 0.072726 109.000000 0.001596 131.000000 -0.063827
67502.000000 1.644643 311.000000 304.000000 210.000000 -0.109170 238.000000 0.153793 274.000000 -0.075878 285.000000 -0.198481 16.000000 0.077088 108.000000 -0.009514 193.000000 -0.110599
68106.000000 1.644247 300.000000 288.000000 186.000000 -0.069906 233.000000 0.153666 260.000000 -0.135346 270.000000 -0.165316 18.000000 0.025048 101.000000 -0.017350 105.000000 -0.054543
68394.000000 1.629715 288.000000 281.000000 117.000000 -0.086210 222.000000 0.178890 249.000000 -0.106064 261.000000 -0.195156 16.000000 0.133649 101.000000 -0.006147 117.000000 -0.086210
68951.000000 1.600453 276.000000 276.000000 180.000000 -0.058855 215.000000 0.167477 216.000000 0.142179 258.000000 -0.206425 10.000000 0.100078 96.000000 0.006112 97.000000 -0.007947
69502.000000 1.686127 275.000000 269.000000 131.000000 -0.134437 210.000000 0.165928 236.000000 -0.120215 247.000000 -0.161438 14.000000 0.096441 97.000000 -0.004498 131.000000 -0.134437
70305.000000 1.624735 265.000000 269.000000 101.000000 -0.030970 208.000000 0.152228 211.000000 0.141022 251.000000 -0.213338 16.000000 0.053216 99.000000 0.000050 101.000000 -0.030970
70837.000000 1.694689 263.000000 268.000000 168.000000 -0.105253 206.000000 0.164918 207.000000 0.159322 249.000000 -0.219110 16.000000 0.061772 99.000000 -0.021251 110.000000 -0.043760
72138.000000 1.663546 261.000000 256.000000 128.000000 -0.134875 203.000000 0.156533 226.000000 -0.144972 248.000000 0.787131 15.000000 0.006945 91.000000 -0.030784 128.000000 -0.134875
73148.000000 1.597584 251.000000 255.000000 123.000000 -0.112883 197.000000 0.147556 210.000000 0.033385 242.000000 -0.171033 16.000000 0.001047 90.000000 -0.033088 123.000000 -0.112883
73647.000000 1.656661 244.000000 258.000000 131.000000 -0.132335 202.000000 0.159751 221.000000 -0.065278 240.000000 -0.225279 17.000000 0.048825 85.000000 -0.003917 87.000000 -0.059198
74148.000000 1.629391 243.000000 246.000000 120.000000 -0.114857 185.000000 0.169591 188.000000 0.133087 227.000000 -0.174623 16.000000 0.059639 77.000000 -0.057477 120.000000 -0.114857
74394.000000 1.602790 246.000000 252.000000 86.000000 -0.070267 191.000000 0.189106 193.000000 0.143730 232.000000 -0.195018 17.000000 0.056394 82.000000 -0.012273 86.000000 -0.070267
74899.000000 1.628837 253.000000 248.000000 111.000000 -0.101068 189.000000 0.174218 190.000000 0.163685 230.000000 -0.274371 16.000000 0.025045 83.000000 -0.037557 95.000000 -0.079861
75394.000000 1.683087 247.000000 245.000000 122.000000 -0.142242 190.000000 0.185013 212.000000 -0.085317 226.000000 -0.229171 16.000000 0.063934 77.000000 -0.073807 102.000000 -0.078964
75893.000000 1.652728 254.000000 246.000000 111.000000 -0.075109 190.000000 0.169374 210.000000 -0.099812 228.000000 -0.203950 10.000000 -0.002648 84.000000 -0.056004 98.000000 -0.082680
76630.000000 1.564655 238.000000 247.000000 105.000000 -0.079185 189.000000 0.161572 201.000000 0.119894 227.000000 -0.123810 15.000000 0.053324 20.000000 -0.048291 31.000000 -0.140140
76877.000000 1.451740 247.000000 247.000000 121.000000 -0.075799 192.000000 0.137369 193.000000 0.137290 240.000000 0.846397 16.000000 0.063403 75.000000 -0.044686 80.000000 -0.062100
77370.000000 1.391632 246.000000 249.000000 106.000000 -0.094308 193.000000 0.150691 214.000000 -0.126065 230.000000 -0.167556 16.000000 0.011993 85.000000 -0.045249 106.000000 -0.094308
78611.000000 1.655751 246.000000 262.000000 94.000000 -0.015329 201.000000 0.179969 202.000000 0.169436 243.000000 -0.227068 17.000000 -0.008263 95.000000 -0.007414 202.000000 0.169436
79123.000000 1.681598 250.000000 257.000000 118.000000 -0.105579 205.000000 0.163385 230.000000 -0.089310 237.000000 -0.188808 17.000000 0.041628 97.000000 -0.007868 118.000000 -0.105579
79630.000000 1.664043 250.000000 261.000000 179.000000 -0.071475 203.000000 0.148429 214.000000 0.104072 242.000000 -0.130535 17.000000 0.063370 97.000000 -0.031975 179.000000 -0.071475
79891.000000 1.639401 261.000000 258.000000 122.000000 -0.089685 206.000000 0.151031 227.000000 -0.120081 247.000000 -0.141350 19.000000 -0.106207 88.000000 -0.010090 96.000000 -0.033728
80409.000000 1.674983 260.000000 263.000000 93.000000 -0.029124 205.000000 0.169312 236.000000 -0.101361 244.000000 -0.227819 15.000000 0.058479 94.000000 -0.015488 201.000000 0.142416
80672.000000 1.663904 263.000000 259.000000 182.000000 0.004170 205.000000 0.181538 233.000000 -0.123603 241.000000 -0.168432 15.000000 0.069295 98.000000 -0.019986 116.000000 -0.091693
81184.000000 1.594464 253.000000 255.000000 111.000000 -0.114218 198.000000 0.166149 224.000000 -0.127646 236.000000 -0.186236 15.000000 0.058726 90.000000 -0.020424 111.000000 -0.114218
81701.000000 1.670739 262.000000 254.000000 166.000000 -0.133243 197.000000 0.169093 201.000000 0.102542 234.000000 -0.168572 16.000000 0.060566 91.000000 -0.015972 119.000000 -0.115031
82213.000000 1.690375 258.000000 250.000000 111.000000 -0.103918 195.000000 0.169636 218.000000 -0.106713 233.000000 -0.312592 15.000000 0.087694 83.000000 -0.032351 92.000000 -0.069998
82719.000000 1.608068 256.000000 250.000000 117.000000 -0.066379 188.000000 0.144139 193.000000 0.132697 232.000000 -0.254702 15.000000 0.023819 81.000000 -0.033763 83.000000 -0.047164
82969.000000 1.649220 250.000000 251.000000 167.000000 -0.057367 191.000000 0.162571 193.000000 0.141913 240.000000 -0.130908 15.000000 0.037212 82.000000 -0.016299 105.000000 -0.058824
83220.000000 1.660157 251.000000 254.000000 120.000000 -0.083103 202.000000 0.156894 223.000000 -0.133703 236.000000 -0.194126 10.000000 0.070298 84.000000 0.013387 93.000000 -0.051692
83474.000000 1.671973 254.000000 258.000000 155.000000 -0.184434 201.000000 0.211569 207.000000 0.127697 239.000000 -0.121831 18.000000 -0.026457 94.000000 -0.032445 105.000000 -0.083731
83978.000000 1.681786 246.000000 250.000000 125.000000 -0.130517 193.000000 0.182425 226.000000 -0.090974 232.000000 -0.224736 14.000000 0.018464 80.000000 -0.028023 104.000000 -0.046472
84732.000000 1.672745 256.000000 251.000000 84.000000 -0.018323 191.000000 0.166286 192.000000 0.165675 232.000000 -0.201313 14.000000 0.016474 83.000000 -0.010643 85.000000 -0.026520
86243.000000 1.667509 252.000000 261.000000 120.000000 -0.139467 200.000000 0.157918 233.000000 -0.097754 241.000000 -0.183930 24.000000 -0.180514 95.000000 -0.018433 120.000000 -0.139467
87520.000000 1.648860 259.000000 260.000000 122.000000 -0.109781 201.000000 0.164483 203.000000 0.147868 237.000000 -0.113215 16.000000 0.048090 97.000000 -0.009078 122.000000 -0.109781
88287.000000 1.666677 250.000000 258.000000 95.000000 -0.034672 204.000000 0.149909 228.000000 -0.116221 242.000000 -0.246254 17.000000 0.036675 98.000000 -0.002211 203.000000 0.145113
89059.000000 1.672507 256.000000 260.000000 90.000000 -0.054904 202.000000 0.192024 225.000000 -0.083885 241.000000 -0.201113 17.000000 -0.014215 92.000000 -0.013447 201.000000 0.177650
89582.000000 1.653806 263.000000 259.000000 178.000000 -0.069105 204.000000 0.158717 205.000000 0.153325 241.000000 -0.191395 17.000000 0.039591 89.000000 -0.003135 124.000000 -0.106067
90105.000000 1.692778 264.000000 265.000000 176.000000 -0.096473 210.000000 0.166394 212.000000 0.144983 253.000000 -0.116492 16.000000 0.047699 102.000000 -0.006475 125.000000 -0.117477
90370.000000 1.715657 265.000000 270.000000 134.000000 -0.158384 214.000000 0.172930 220.000000 0.114826 246.000000 -0.108355 11.000000 0.021503 103.000000 0.013497 134.000000 -0.158384
91167.000000 1.635985 266.000000 261.000000 168.000000 -0.095237 205.000000 0.156645 237.000000 -0.141037 248.000000 -0.209420 10.000000 0.043980 88.000000 -0.005581 99.000000 -0.032933
91428.000000 1.624370 261.000000 265.000000 128.000000 -0.126520 210.000000 0.182448 234.000000 -0.077958 247.000000 -0.183885 11.000000 -0.052464 102.000000 -0.012837 128.000000 -0.126520
91693.000000 1.674267 265.000000 261.000000 173.000000 -0.072474 200.000000 0.151743 203.000000 0.135160 242.000000 -0.221973 15.000000 0.089628 99.000000 -0.032194 125.000000 -0.101864
92212.000000 1.612917 258.000000 261.000000 131.000000 -0.144323 206.000000 0.141619 227.000000 -0.118208 249.000000 -0.170154 18.000000 -0.090908 88.000000 -0.012256 98.000000 -0.035327
92473.000000 1.624989 261.000000 264.000000 95.000000 -0.017114 210.000000 0.187585 239.000000 -0.114279 247.000000 -0.172052 11.000000 -0.020998 102.000000 -0.002460 211.000000 0.177256
92737.000000 1.641426 264.000000 260.000000 170.000000 -0.108057 200.000000 0.153447 228.000000 -0.150362 238.000000 -0.114013 14.000000 0.031476 92.000000 0.005064 170.000000 -0.108057
94584.000000 1.631710 272.000000 264.000000 96.000000 -0.039135 206.000000 0.170534 228.000000 -0.086880 246.000000 -0.182302 16.000000 0.103591 93.000000 0.001710 96.000000 -0.039135
95389.000000 1.631021 271.000000 276.000000 183.000000 -0.084233 223.000000 0.150014 251.000000 -0.073591 259.000000 -0.202775 18.000000 0.018808 106.000000 0.007019 108.000000 -0.034643
96195.000000 1.638558 265.000000 271.000000 101.000000 -0.015391 211.000000 0.183449 239.000000 -0.154184 251.000000 -0.216676 15.000000 0.035705 94.000000 -0.008307 103.000000 -0.017508
96992.000000 1.662756 264.000000 255.000000 93.000000 -0.100410 196.000000 0.164862 199.000000 0.143170 236.000000 -0.136454 7.000000 0.812897 87.000000 -0.036523 100.000000 -0.089437
97247.000000 1.655849 255.000000 260.000000 170.000000 -0.060407 203.000000 0.205124 221.000000 -0.093935 239.000000 -0.147117 17.000000 0.021253 94.000000 -0.029373 120.000000 -0.084733
98026.000000 1.660172 263.000000 260.000000 144.000000 -0.175989 196.000000 0.156549 201.000000 0.153508 250.000000 0.486551 16.000000 0.086475 97.000000 -0.026516 113.000000 -0.099951
98547.000000 1.669014 261.000000 253.000000 124.000000 -0.141725 191.000000 0.168384 193.000000 0.147679 236.000000 -0.247225 15.000000 0.063905 93.000000 -0.054688 110.000000 -0.096458
98800.000000 1.622933 253.000000 256.000000 123.000000 -0.126238 199.000000 0.157881 229.000000 -0.122621 238.000000 -0.205317 14.000000 0.023088 91.000000 -0.023827 92.000000 -0.031883
99056.000000 1.618996 256.000000 255.000000 111.000000 -0.080689 197.000000 0.174184 223.000000 -0.104469 237.000000 -0.264328 16.000000 0.041161 80.000000 -0.040140 90.000000 -0.076880
99578.000000 1.713449 267.000000 256.000000 110.000000 -0.092694 202.000000 0.182352 208.000000 0.077978 236.000000 -0.153246 10.000000 0.128465 94.000000 -0.056520 110.000000 -0.092694
100339.000000 1.599423 251.000000 259.000000 121.000000 -0.153903 201.000000 0.165364 227.000000 -0.131458 238.000000 -0.154091 16.000000 0.006945 92.000000 -0.027775 121.000000 -0.153903
101604.000000 1.570173 250.000000 254.000000 106.000000 -0.076378 196.000000 0.181943 203.000000 0.104967 233.000000 -0.158404 15.000000 0.034061 87.000000 -0.024293 89.000000 -0.050735
103257.000000 1.693120 291.000000 295.000000 188.000000 -0.036490 233.000000 0.102020 253.000000 -0.151803 277.000000 -0.253888 11.000000 -0.018826 115.000000 0.015706 189.000000 -0.040174
103552.000000 1.756033 295.000000 282.000000 183.000000 -0.083448 219.000000 0.158839 228.000000 0.102993 264.000000 -0.162698 15.000000 0.009042 97.000000 -0.030205 107.000000 -0.050409
103834.000000 1.696299 282.000000 287.000000 193.000000 -0.079623 224.000000 0.152071 227.000000 0.128747 270.000000 -0.207824 19.000000 -0.034735 118.000000 -0.016239 165.000000 -0.079467
104406.000000 1.749219 285.000000 280.000000 131.000000 -0.142052 217.000000 0.165688 249.000000 -0.104513 263.000000 -0.203337 7.000000 0.861506 109.000000 -0.021377 131.000000 -0.142052
104686.000000 1.684202 280.000000 271.000000 186.000000 -0.043432 210.000000 0.176443 212.000000 0.154922 254.000000 -0.214231 14.000000 0.090785 104.000000 0.025798 178.000000 -0.074874
105223.000000 1.681588 266.000000 279.000000 108.000000 -0.003482 218.000000 0.147320 242.000000 -0.106535 260.000000 -0.185940 17.000000 0.018045 107.000000 0.021157 116.000000 -0.056225
105502.000000 1.628433 279.000000 274.000000 186.000000 -0.045033 213.000000 0.170925 239.000000 -0.111067 256.000000 -0.232743 15.000000 0.050642 105.000000 0.009699 186.000000 -0.045033
106590.000000 1.641063 279.000000 277.000000 181.000000 -0.055404 219.000000 0.165678 247.000000 -0.140043 258.000000 -0.162206 17.000000 0.004667 109.000000 0.009014 182.000000 -0.055169
106867.000000 1.700236 277.000000 278.000000 177.000000 -0.062710 215.000000 0.192165 217.000000 0.161193 261.000000 -0.258760 19.000000 -0.054576 109.000000 0.001662 133.000000 -0.108229
107702.000000 1.623211 276.000000 271.000000 179.000000 -0.077055 209.000000 0.167961 211.000000 0.162099 254.000000 -0.215426 17.000000 0.016254 103.000000 0.002556 179.000000 -0.077055
107973.000000 1.633870 271.000000 274.000000 106.000000 -0.001444 215.000000 0.187980 242.000000 -0.102819 252.000000 -0.118776 16.000000 0.066362 106.000000 -0.001444 214.000000 0.178623
108779.000000 1.622494 258.000000 267.000000 175.000000 -0.084778 213.000000 0.170552 220.000000 0.079579 254.000000 -0.205972 19.000000 -0.059672 105.000000 -0.023574 175.000000 -0.084778
109046.000000 1.609547 267.000000 260.000000 164.000000 -0.095677 198.000000 0.180985 199.000000 0.175672 241.000000 -0.190597 10.000000 0.012823 92.000000 -0.003009 170.000000 -0.091523
109306.000000 1.645407 260.000000 268.000000 102.000000 -0.054545 203.000000 0.182274 208.000000 0.139767 249.000000 -0.178809 15.000000 0.059985 96.000000 -0.019153 102.000000 -0.054545
109839.000000 1.664921 265.000000 272.000000 182.000000 -0.088403 211.000000 0.177866 212.000000 0.172757 250.000000 -0.141615 16.000000 0.088700 102.000000 0.009625 103.000000 -0.000375
110111.000000 1.619041 272.000000 276.000000 104.000000 -0.009233 216.000000 0.165207 239.000000 -0.098241 257.000000 -0.198101 26.000000 -0.186381 107.000000 0.026613 215.000000 0.160489
110387.000000 1.641837 276.000000 277.000000 180.000000 0.007473 215.000000 0.231705 250.000000 -0.067273 258.000000 -0.217634 16.000000 0.053968 106.000000 0.035909 109.000000 0.000673
110664.000000 1.672224 277.000000 274.000000 127.000000 -0.164201 214.000000 0.183278 242.000000 -0.118668 253.000000 -0.164312 14.000000 -0.010298 109.000000 -0.062209 127.000000 -0.164201
111205.000000 1.655568 267.000000 283.000000 111.000000 -0.012662 223.000000 0.166880 253.000000 -0.107301 265.000000 -0.173493 14.000000 0.030801 105.000000 -0.001863 117.000000 -0.016094
111488.000000 1.677213 283.000000 276.000000 178.000000 -0.109844 219.000000 0.129984 249.000000 -0.089970 262.000000 -0.222085 14.000000 0.081758 98.000000 0.007962 102.000000 -0.002900
112031.000000 1.716976 267.000000 263.000000 127.000000 -0.136189 201.000000 0.179670 231.000000 -0.109926 243.000000 -0.191289 16.000000 0.069282 94.000000 -0.027881 127.000000 -0.136189
112826.000000 1.654374 265.000000 265.000000 178.000000 -0.069590 201.000000 0.162682 205.000000 0.150456 247.000000 -0.223711 24.000000 -0.168180 100.000000 -0.015673 171.000000 -0.091878
113358.000000 1.668075 267.000000 255.000000 137.000000 -0.108698 197.000000 0.204643 199.000000 0.193843 238.000000 -0.132443 15.000000 0.043545 113.000000 -0.062522 126.000000 -0.102350
113613.000000 1.649047 255.000000 257.000000 93.000000 -0.060360 197.000000 0.185784 200.000000 0.140172 238.000000 -0.197164 18.000000 -0.057958 88.000000 -0.034622 93.000000 -0.060360
113870.000000 1.685595 257.000000 254.000000 129.000000 -0.113023 194.000000 0.170328 217.000000 -0.070250 238.000000 -0.264433 16.000000 0.037428 83.000000 -0.058979 98.000000 -0.072960
115145.000000 1.609532 247.000000 258.000000 94.000000 -0.024905 199.000000 0.168150 201.000000 0.147586 240.000000 -0.203995 17.000000 0.008687 94.000000 -0.024905 200.000000 0.162821
115403.000000 1.600864 258.000000 248.000000 122.000000 -0.118183 196.000000 0.162981 216.000000 -0.106517 230.000000 -0.187491 17.000000 0.004546 100.000000 -0.045659 122.000000 -0.118183
115904.000000 1.633088 253.000000 246.000000 127.000000 -0.084765 187.000000 0.171381 197.000000 0.091100 227.000000 -0.250014 14.000000 0.015502 79.000000 -0.049280 81.000000 -0.090142
116150.000000 1.578764 246.000000 252.000000 126.000000 -0.106551 195.000000 0.175442 209.000000 0.080052 235.000000 -0.168196 15.000000 0.050660 109.000000 -0.048463 126.000000 -0.106551
116402.000000 1.586759 252.000000 245.000000 133.000000 -0.144562 186.000000 0.174749 200.000000 0.035641 227.000000 -0.206331 16.000000 0.031003 101.000000 -0.055501 110.000000 -0.086646
116647.000000 1.624447 245.000000 248.000000 114.000000 -0.071316 188.000000 0.203231 217.000000 -0.113320 228.000000 -0.157506 7.000000 0.772409 80.000000 -0.055157 105.000000 -0.061333
117623.000000 1.581847 239.000000 246.000000 119.000000 -0.080863 190.000000 0.181759 191.000000 0.176493 229.000000 -0.190687 16.000000 0.051095 77.000000 -0.046554 83.000000 -0.076632
117869.000000 1.629454 246.000000 236.000000 134.000000 -0.141660 181.000000 0.184705 200.000000 -0.105139 218.000000 -0.210579 15.000000 0.026850 94.000000 -0.075127 101.000000 -0.119846
118105.000000 1.600065 236.000000 247.000000 132.000000 -0.129514 185.000000 0.163025 188.000000 0.156239 225.000000 -0.111897 15.000000 0.001490 112.000000 -0.049075 132.000000 -0.129514
119067.000000 1.629203 245.000000 248.000000 104.000000 -0.125957 186.000000 0.174956 220.000000 -0.108965 230.000000 -0.194279 16.000000 0.022244 112.000000 -0.058683 188.000000 0.143983
119315.000000 1.634341 248.000000 239.000000 121.000000 -0.086271 186.000000 0.163904 212.000000 -0.108965 221.000000 -0.191394 15.000000 0.015689 101.000000 -0.045801 104.000000 -0.057698
120287.000000 1.573320 256.000000 249.000000 116.000000 -0.064562 190.000000 0.153324 216.000000 -0.155515 228.000000 -0.171676 17.000000 0.044307 83.000000 -0.052933 92.000000 -0.089014
120785.000000 1.703542 249.000000 245.000000 117.000000 -0.108291 185.000000 0.183970 215.000000 -0.097585 231.000000 -0.223620 13.000000 0.054216 98.000000 -0.041506 109.000000 -0.050033
121537.000000 1.657414 251.000000 256.000000 119.000000 -0.094797 197.000000 0.189841 200.000000 0.157287 233.000000 -0.087662 17.000000 0.006834 103.000000 -0.031459 119.000000 -0.094797
122051.000000 1.667103 258.000000 261.000000 176.000000 -0.045268 202.000000 0.188854 211.000000 0.135343 240.000000 -0.098388 11.000000 0.040348 96.000000 -0.016363 140.000000 -0.139438
122312.000000 1.675045 261.000000 258.000000 170.000000 -0.065312 204.000000 0.184626 230.000000 -0.116677 240.000000 -0.219609 20.000000 -0.161487 84.000000 -0.009810 89.000000 -0.023949
122570.000000 1.643275 258.000000 258.000000 177.000000 -0.047633 198.000000 0.214311 199.000000 0.198793 238.000000 -0.164249 15.000000 0.023149 90.000000 -0.016189 91.000000 -0.023447
124401.000000 1.636019 265.000000 268.000000 120.000000 -0.070656 208.000000 0.175940 210.000000 0.164686 250.000000 -0.183274 15.000000 0.034280 102.000000 0.001616 121.000000 -0.085798
124669.000000 1.663984 268.000000 269.000000 171.000000 -0.089573 213.000000 0.179672 240.000000 -0.106114 248.000000 -0.128340 20.000000 -0.100800 98.000000 -0.006961 101.000000 -0.041036
125465.000000 1.643837 260.000000 266.000000 99.000000 -0.042271 208.000000 0.170342 234.000000 -0.117764 247.000000 -0.187119 15.000000 0.060122 101.000000 -0.023180 207.000000 0.160937
126530.000000 1.637511 264.000000 261.000000 170.000000 -0.085943 202.000000 0.170469 203.000000 0.160124 244.000000 -0.202740 14.000000 0.014751 96.000000 -0.022871 119.000000 -0.075329
127061.000000 1.686582 270.000000 263.000000 124.000000 -0.120093 203.000000 0.186507 212.000000 0.130504 242.000000 -0.153258 15.000000 0.058211 94.000000 -0.021537 96.000000 -0.035706
127581.000000 1.625928 257.000000 268.000000 174.000000 -0.055689 205.000000 0.151002 209.000000 0.144451 248.000000 -0.163213 17.000000 0.056210 101.000000 0.008056 174.000000 -0.055689
128381.000000 1.683901 261.000000 259.000000 171.000000 -0.040128 201.000000 0.211141 211.000000 0.096127 241.000000 -0.215518 15.000000 0.033007 94.000000 -0.032790 120.000000 -0.103088
128640.000000 1.613401 259.000000 266.000000 99.000000 -0.004045 208.000000 0.181377 234.000000 -0.098762 248.000000 -0.224827 14.000000 0.006773 100.000000 0.004168 206.000000 0.157349
128906.000000 1.620174 266.000000 270.000000 98.000000 -0.002633 215.000000 0.168874 237.000000 -0.100108 251.000000 -0.181645 17.000000 0.048843 97.000000 0.006333 107.000000 -0.041379
129176.000000 1.682586 270.000000 261.000000 93.000000 -0.044453 200.000000 0.180985 228.000000 -0.124671 239.000000 -0.120814 16.000000 0.089309 90.000000 -0.039437 95.000000 -0.070017
129693.000000 1.620469 256.000000 258.000000 125.000000 -0.141172 200.000000 0.171679 223.000000 -0.085218 239.000000 -0.225266 11.000000 -0.049422 91.000000 -0.022569 97.000000 -0.047521
129951.000000 1.636161 258.000000 261.000000 133.000000 -0.112649 202.000000 0.164251 229.000000 -0.127742 242.000000 -0.188745 16.000000 0.053134 96.000000 -0.013086 133.000000 -0.112649
130722.000000 1.599654 257.000000 260.000000 96.000000 -0.014060 201.000000 0.169767 204.000000 0.154235 239.000000 -0.134089 15.000000 0.029967 94.000000 0.006458 96.000000 -0.014060
130982.000000 1.635128 260.000000 258.000000 131.000000 -0.133952 197.000000 0.173295 223.000000 -0.098757 238.000000 -0.202614 10.000000 0.015300 100.000000 -0.038415 112.000000 -0.069091
131494.000000 1.636786 254.000000 250.000000 141.000000 -0.163543 197.000000 0.176882 223.000000 -0.095532 234.000000 -0.215470 16.000000 0.066347 101.000000 -0.078715 105.000000 -0.105628
131744.000000 1.587995 250.000000 260.000000 96.000000 -0.039639 201.000000 0.184688 230.000000 -0.121333 250.000000 0.341285 17.000000 0.018199 93.000000 -0.021472 96.000000 -0.039639
132004.000000 1.595861 260.000000 255.000000 132.000000 -0.116708 196.000000 0.170392 219.000000 -0.085331 236.000000 -0.219296 13.000000 -0.068778 85.000000 -0.061395 89.000000 -0.064499
132758.000000 1.637714 244.000000 251.000000 108.000000 -0.095219 196.000000 0.177617 227.000000 -0.098827 244.000000 0.699370 15.000000 0.051538 88.000000 -0.062193 108.000000 -0.095219
133009.000000 1.580248 251.000000 252.000000 107.000000 -0.070926 197.000000 0.173591 222.000000 -0.104747 239.000000 -0.123321 10.000000 0.026033 83.000000 -0.038151 89.000000 -0.038591
133508.000000 1.626819 247.000000 246.000000 119.000000 -0.061271 190.000000 0.184707 216.000000 -0.105339 230.000000 -0.291940 15.000000 0.031394 106.000000 -0.041914 119.000000 -0.061271
133754.000000 1.565942 246.000000 253.000000 148.000000 -0.187175 196.000000 0.170567 227.000000 -0.087367 247.000000 1.038088 14.000000 -0.030093 89.000000 -0.052854 105.000000 -0.091426
134007.000000 1.637681 253.000000 239.000000 123.000000 -0.097509 183.000000 0.182318 206.000000 -0.072931 219.000000 -0.074405 10.000000 0.046866 113.000000 -0.053965 125.000000 -0.072681
134489.000000 1.584905 243.000000 239.000000 123.000000 -0.093668 184.000000 0.176049 210.000000 -0.133932 221.000000 -0.198196 17.000000 -0.004437 101.000000 -0.053166 110.000000 -0.073151
134728.000000 1.588763 239.000000 250.000000 123.000000 -0.048730 197.000000 0.185520 219.000000 -0.109277 232.000000 -0.186332 16.000000 0.052415 110.000000 -0.034779 123.000000 -0.048730
134978.000000 1.575645 250.000000 231.000000 137.000000 -0.143262 174.000000 0.150828 186.000000 0.078947 214.000000 -0.201977 15.000000 0.063591 104.000000 -0.046535 114.000000 -0.097054
135209.000000 1.658041 231.000000 235.000000 123.000000 -0.049950 180.000000 0.163919 201.000000 -0.083730 216.000000 -0.147115 16.000000 0.069983 101.000000 -0.041956 109.000000 -0.084009
135444.000000 1.555426 235.000000 229.000000 123.000000 -0.113874 177.000000 0.156158 200.000000 -0.084375 213.000000 -0.254029 17.000000 0.033794 102.000000 -0.058543 105.000000 -0.080942
135673.000000 1.551708 229.000000 245.000000 103.000000 -0.081864 186.000000 0.163120 204.000000 -0.046018 227.000000 -0.167805 17.000000 0.046897 106.000000 -0.060453 184.000000 0.129797
135918.000000 1.533951 245.000000 228.000000 117.000000 -0.079060 172.000000 0.163935 200.000000 -0.116597 210.000000 -0.161002 17.000000 0.035847 100.000000 -0.026898 117.000000 -0.079060
136146.000000 1.618388 228.000000 238.000000 122.000000 -0.084610 179.000000 0.165153 181.000000 0.159338 220.000000 -0.193983 17.000000 -0.035986 100.000000 -0.048480 122.000000 -0.084610
136610.000000 1.580046 226.000000 233.000000 139.000000 -0.121708 176.000000 0.165675 194.000000 -0.009437 216.000000 -0.251647 15.000000 0.000626 102.000000 -0.076927 115.000000 -0.083134
136843.000000 1.562774 233.000000 241.000000 148.000000 -0.103089 184.000000 0.223683 188.000000 0.213700 222.000000 0.058262 17.000000 0.043026 110.000000 -0.039436 119.000000 -0.080189
138013.000000 1.781003 234.000000 228.000000 124.000000 -0.066286 178.000000 0.187209 191.000000 -0.022524 209.000000 -0.129043 15.000000 0.127822 95.000000 -0.027146 101.000000 -0.035515
139152.000000 1.626867 228.000000 223.000000 127.000000 -0.095409 169.000000 0.158947 183.000000 -0.013530 201.000000 -0.135457 16.000000 -0.000391 98.000000 -0.037209 102.000000 -0.088243
139595.000000 1.635423 220.000000 228.000000 120.000000 -0.046177 170.000000 0.161362 172.000000 0.120720 209.000000 -0.166315 17.000000 -0.007726 96.000000 -0.038731 98.000000 -0.072618
139823.000000 1.597995 228.000000 235.000000 126.000000 -0.075344 181.000000 0.196883 193.000000 0.129486 223.000000 -0.217287 17.000000 -0.006847 108.000000 -0.033669 126.000000 -0.075344
140058.000000 1.632197 235.000000 229.000000 117.000000 -0.074825 174.000000 0.182539 176.000000 0.153056 212.000000 -0.279295 11.000000 -0.082206 101.000000 -0.049495 104.000000 -0.080827
140287.000000 1.656474 229.000000 218.000000 102.000000 -0.074621 165.000000 0.143986 175.000000 0.090600 201.000000 -0.224639 14.000000 -0.046411 100.000000 -0.051282 105.000000 -0.081502
140505.000000 1.710646 218.000000 223.000000 111.000000 -0.071973 172.000000 0.179184 198.000000 -0.073263 206.000000 -0.242023 15.000000 0.014735 112.000000 -0.046346 167.000000 0.164248
140728.000000 1.607851 223.000000 235.000000 129.000000 -0.077742 177.000000 0.158212 189.000000 0.127365 215.000000 -0.129908 15.000000 0.020578 117.000000 -0.062554 129.000000 -0.077742
141425.000000 1.647948 231.000000 218.000000 124.000000 -0.083775 165.000000 0.141979 176.000000 0.132998 197.000000 -0.115030 17.000000 -0.040390 106.000000 -0.035031 124.000000 -0.083775
142802.000000 1.617465 236.000000 235.000000 128.000000 -0.080848 181.000000 0.175958 192.000000 0.102745 216.000000 -0.114530 16.000000 -0.001406 108.000000 -0.026977 124.000000 -0.081882
143037.000000 1.674356 235.000000 225.000000 100.000000 -0.029436 172.000000 0.164028 187.000000 -0.011741 207.000000 -0.210722 17.000000 0.008102 102.000000 -0.003119 169.000000 0.104828
143262.000000 1.653450 225.000000 229.000000 141.000000 -0.174482 175.000000 0.150849 178.000000 0.119705 211.000000 -0.146049 15.000000 0.029359 103.000000 -0.066551 122.000000 -0.122130
143491.000000 1.623013 229.000000 239.000000 98.000000 -0.073370 186.000000 0.174011 200.000000 -0.032226 221.000000 -0.236159 16.000000 0.042305 101.000000 -0.041645 183.000000 0.135939
143730.000000 1.602651 239.000000 240.000000 106.000000 -0.031173 183.000000 0.143727 184.000000 0.143194 222.000000 -0.200177 15.000000 -0.023211 106.000000 -0.031173 184.000000 0.143194
144908.000000 1.634189 241.000000 236.000000 92.000000 -0.043635 179.000000 0.166472 206.000000 -0.132227 217.000000 -0.175737 15.000000 0.025991 92.000000 -0.043635 179.000000 0.166472
145144.000000 1.650688 236.000000 236.000000 113.000000 -0.082131 179.000000 0.175956 187.000000 0.081817 216.000000 -0.141789 15.000000 0.014654 97.000000 -0.045847 113.000000 -0.082131
145617.000000 1.616220 237.000000 245.000000 113.000000 -0.096538 184.000000 0.157176 187.000000 0.119293 226.000000 -0.201893 7.000000 1.011472 104.000000 -0.058590 115.000000 -0.060268
146333.000000 1.620204 230.000000 242.000000 107.000000 -0.065172 193.000000 0.153917 213.000000 -0.115455 224.000000 -0.229876 17.000000 -0.016284 105.000000 -0.036959 108.000000 -0.059153
146575.000000 1.640812 242.000000 244.000000 114.000000 -0.116130 188.000000 0.166897 190.000000 0.155925 225.000000 -0.160221 16.000000 0.000406 93.000000 -0.046868 100.000000 -0.080300
146819.000000 1.613526 244.000000 245.000000 115.000000 -0.086831 186.000000 0.193858 188.000000 0.177196 227.000000 -0.178089 18.000000 -0.011584 117.000000 -0.050593 188.000000 0.177196
147064.000000 1.675876 245.000000 242.000000 112.000000 -0.086223 186.000000 0.177834 195.000000 0.095798 220.000000 -0.094405 18.000000 -0.075032 109.000000 -0.033589 112.000000 -0.086223
147306.000000 1.690032 242.000000 230.000000 131.000000 -0.104168 181.000000 0.211698 205.000000 -0.074903 213.000000 -0.212144 19.000000 -0.091268 97.000000 -0.033230 99.000000 -0.066537
147536.000000 1.586866 230.000000 235.000000 107.000000 -0.088965 179.000000 0.168051 206.000000 -0.120537 217.000000 -0.185395 17.000000 -0.006645 94.000000 -0.069734 107.000000 -0.088965
147771.000000 1.577112 235.000000 245.000000 112.000000 -0.032634 188.000000 0.191380 191.000000 0.131223 229.000000 -0.200079 16.000000 0.091548 99.000000 -0.023934 112.000000 -0.032634
148016.000000 1.603649 245.000000 236.000000 113.000000 -0.109308 180.000000 0.203624 181.000000 0.183562 218.000000 -0.207320 14.000000 -0.004642 108.000000 -0.046251 119.000000 -0.062865
148252.000000 1.609705 236.000000 243.000000 115.000000 -0.083479 183.000000 0.190093 186.000000 0.139529 224.000000 -0.190281 15.000000 0.051445 86.000000 -0.061393 94.000000 -0.105625
148739.000000 1.719796 244.000000 245.000000 166.000000 -0.068292 188.000000 0.186080 216.000000 -0.097306 233.000000 -0.236833 15.000000 0.033746 104.000000 -0.051395 123.000000 -0.060125
150685.000000 1.554735 245.000000 249.000000 109.000000 -0.106692 190.000000 0.177665 216.000000 -0.094777 229.000000 -0.149936 15.000000 -0.012570 93.000000 -0.053196 109.000000 -0.106692
150934.000000 1.635630 249.000000 246.000000 119.000000 -0.069969 191.000000 0.178905 215.000000 -0.081155 228.000000 -0.197584 17.000000 -0.083525 96.000000 -0.047445 106.000000 -0.096693
151434.000000 1.606853 254.000000 250.000000 117.000000 -0.092444 196.000000 0.192481 222.000000 -0.112098 237.000000 -0.270546 10.000000 -0.056079 87.000000 -0.053261 123.000000 -0.090814
151684.000000 1.675095 250.000000 255.000000 121.000000 -0.118999 197.000000 0.171648 206.000000 0.112243 237.000000 -0.268743 10.000000 0.046567 88.000000 -0.058607 104.000000 -0.088091
152185.000000 1.600769 246.000000 248.000000 102.000000 -0.064813 192.000000 0.195769 193.000000 0.165565 229.000000 -0.186755 17.000000 0.016270 90.000000 -0.044217 102.000000 -0.064813
152682.000000 1.625800 249.000000 254.000000 131.000000 -0.113743 196.000000 0.188328 208.000000 0.140804 235.000000 -0.146190 11.000000 -0.051613 111.000000 -0.063964 131.000000 -0.113743
153920.000000 1.664359 250.000000 246.000000 107.000000 -0.107477 191.000000 0.168434 196.000000 0.145267 229.000000 -0.193230 14.000000 0.023841 100.000000 -0.055894 107.000000 -0.107477
154166.000000 1.692414 246.000000 246.000000 117.000000 -0.064874 190.000000 0.174029 222.000000 -0.109106 228.000000 -0.225375 14.000000 0.019138 107.000000 -0.053716 117.000000 -0.064874
154412.000000 1.650218 246.000000 257.000000 171.000000 -0.022442 195.000000 0.185834 198.000000 0.160020 236.000000 -0.173538 15.000000 0.073212 90.000000 -0.027852 100.000000 -0.070486
155955.000000 1.643749 258.000000 266.000000 172.000000 -0.115764 204.000000 0.193704 232.000000 -0.090561 248.000000 -0.182662 17.000000 0.015017 97.000000 -0.015817 122.000000 -0.116066
156221.000000 1.681192 266.000000 259.000000 170.000000 -0.066109 200.000000 0.161822 204.000000 0.134988 240.000000 -0.199043 14.000000 0.036959 90.000000 -0.003307 94.000000 -0.012383
156748.000000 1.701190 268.000000 257.000000 113.000000 -0.124654 199.000000 0.181564 227.000000 -0.065504 247.000000 0.505062 15.000000 0.047319 92.000000 -0.007916 113.000000 -0.124654
157269.000000 1.634828 264.000000 271.000000 101.000000 -0.026191 210.000000 0.169563 212.000000 0.153701 253.000000 -0.207037 16.000000 0.061080 102.000000 0.008636 212.000000 0.153701
157540.000000 1.681317 271.000000 272.000000 177.000000 -0.039860 215.000000 0.173039 243.000000 -0.097572 255.000000 -0.272462 17.000000 0.007337 107.000000 0.010864 123.000000 -0.119669
158078.000000 1.622009 266.000000 267.000000 181.000000 -0.030047 215.000000 0.158072 243.000000 -0.101207 250.000000 -0.205000 18.000000 -0.026770 98.000000 -0.001299 100.000000 -0.027538
158345.000000 1.592901 267.000000 277.000000 178.000000 -0.074610 215.000000 0.165639 250.000000 -0.106148 257.000000 -0.184565 16.000000 0.024139 105.000000 0.022602 167.000000 -0.067792
158622.000000 1.621849 277.000000 273.000000 167.000000 -0.085316 211.000000 0.173681 213.000000 0.152724 254.000000 -0.246708 16.000000 0.040251 102.000000 0.008353 129.000000 -0.130110
159703.000000 1.645266 272.000000 272.000000 180.000000 -0.089936 214.000000 0.184515 247.000000 -0.100311 253.000000 -0.203197 16.000000 0.038023 105.000000 0.010281 180.000000 -0.089936
160246.000000 1.659907 271.000000 271.000000 174.000000 -0.083414 208.000000 0.182606 210.000000 0.166415 252.000000 -0.212537 15.000000 0.077242 104.000000 0.007178 126.000000 -0.103933
160517.000000 1.629312 271.000000 267.000000 169.000000 -0.049466 205.000000 0.175879 216.000000 0.169812 248.000000 -0.155392 16.000000 0.075361 108.000000 -0.013181 175.000000 -0.076252
160784.000000 1.577650 267.000000 263.000000 171.000000 -0.042239 200.000000 0.173498 206.000000 0.161962 245.000000 -0.172177 16.000000 0.079782 99.000000 -0.009077 148.000000 -0.164577
161047.000000 1.605771 263.000000 262.000000 170.000000 -0.088467 203.000000 0.163979 206.000000 0.122992 244.000000 -0.234358 19.000000 -0.111597 92.000000 -0.014952 97.000000 -0.022444
161582.000000 1.637431 273.000000 269.000000 101.000000 -0.016114 206.000000 0.200111 215.000000 0.130487 248.000000 -0.111346 17.000000 0.059531 98.000000 0.000940 101.000000 -0.016114
162366.000000 1.655531 253.000000 267.000000 173.000000 -0.097114 208.000000 0.161366 212.000000 0.140191 253.000000 -0.293400 15.000000 0.059309 97.000000 -0.011381 106.000000 -0.052087
162633.000000 1.674422 267.000000 260.000000 98.000000 -0.072366 200.000000 0.189371 218.000000 0.013010 241.000000 -0.155297 11.000000 -0.055799 95.000000 -0.031613 116.000000 -0.105172
162893.000000 1.714845 260.000000 261.000000 130.000000 -0.117618 204.000000 0.172930 227.000000 -0.092162 241.000000 -0.160421 14.000000 -0.000249 94.000000 -0.030250 96.000000 -0.041801
163928.000000 1.672086 252.000000 256.000000 167.000000 -0.066164 203.000000 0.192221 226.000000 -0.113861 238.000000 -0.189299 16.000000 0.051583 96.000000 -0.041959 124.000000 -0.103950
164184.000000 1.691002 256.000000 257.000000 128.000000 -0.083245 197.000000 0.183791 201.000000 0.151816 238.000000 -0.165143 14.000000 0.021049 91.000000 -0.032352 95.000000 -0.082337
164441.000000 1.708698 257.000000 258.000000 132.000000 -0.104907 202.000000 0.178303 203.000000 0.167739 241.000000 -0.201006 16.000000 0.043573 101.000000 -0.042912 116.000000 -0.119340
164699.000000 1.655985 258.000000 252.000000 144.000000 -0.197508 196.000000 0.171254 205.000000 0.086082 233.000000 -0.178478 15.000000 0.058620 92.000000 -0.047709 110.000000 -0.079310
164951.000000 1.674247 252.000000 246.000000 108.000000 -0.089921 188.000000 0.184219 199.000000 0.108215 226.000000 -0.194372 15.000000 0.068902 102.000000 -0.044796 108.000000 -0.089921
165441.000000 1.593668 244.000000 247.000000 104.000000 -0.066536 190.000000 0.180656 191.000000 0.180656 230.000000 -0.269171 15.000000 0.021832 109.000000 -0.046034 191.000000 0.180656
165688.000000 1.588164 247.000000 251.000000 125.000000 -0.101597 195.000000 0.182526 225.000000 -0.100703 232.000000 -0.156267 14.000000 0.005436 88.000000 -0.056864 102.000000 -0.079701
165939.000000 1.648182 251.000000 252.000000 111.000000 -0.087446 198.000000 0.189078 220.000000 -0.105830 232.000000 -0.148871 16.000000 0.047634 88.000000 -0.041553 111.000000 -0.087446
166191.000000 1.663855 252.000000 254.000000 110.000000 -0.082944 194.000000 0.189653 195.000000 0.183776 234.000000 -0.127192 17.000000 -0.008573 91.000000 -0.030703 110.000000 -0.082944
166445.000000 1.704814 254.000000 255.000000 134.000000 -0.142162 195.000000 0.202666 224.000000 -0.101442 236.000000 -0.167492 16.000000 0.049264 111.000000 -0.053747 122.000000 -0.102117
167210.000000 1.604798 261.000000 277.000000 103.000000 0.007102 214.000000 0.172944 249.000000 -0.104014 258.000000 -0.182353 11.000000 -0.074605 102.000000 0.025487 104.000000 -0.011346
167767.000000 1.698071 280.000000 280.000000 113.000000 -0.027054 220.000000 0.196881 221.000000 0.186677 262.000000 -0.181286 15.000000 0.057177 110.000000 0.025611 133.000000 -0.121897
168047.000000 1.662633 280.000000 272.000000 142.000000 -0.208903 215.000000 0.159624 247.000000 -0.127175 263.000000 0.569359 18.000000 -0.021631 104.000000 -0.013590 181.000000 -0.055958
168319.000000 1.656600 272.000000 286.000000 196.000000 -0.059539 230.000000 0.195836 246.000000 -0.070859 267.000000 -0.142129 14.000000 0.003138 104.000000 0.001331 200.000000 -0.050167
169439.000000 1.725659 279.000000 280.000000 185.000000 -0.075280 222.000000 0.172008 231.000000 0.077100 259.000000 -0.154720 15.000000 0.063934 109.000000 -0.007759 171.000000 -0.093776
170263.000000 1.694497 272.000000 284.000000 194.000000 -0.047492 223.000000 0.184689 254.000000 -0.113664 267.000000 -0.274025 16.000000 0.090719 111.000000 0.037524 112.000000 0.033338
170821.000000 1.716083 274.000000 276.000000 191.000000 -0.046538 216.000000 0.197897 229.000000 0.122429 258.000000 -0.204559 20.000000 -0.090453 104.000000 -0.001018 106.000000 -0.025877
171097.000000 1.694922 276.000000 275.000000 174.000000 -0.062571 215.000000 0.211911 225.000000 0.106990 257.000000 -0.266724 15.000000 0.068606 105.000000 0.013935 106.000000 -0.007099
171919.000000 1.656804 275.000000 277.000000 188.000000 -0.059321 221.000000 0.174517 246.000000 -0.091974 256.000000 -0.158008 10.000000 0.079202 101.000000 0.006487 107.000000 -0.008075
173268.000000 1.711957 266.000000 275.000000 181.000000 -0.063436 216.000000 0.202945 243.000000 -0.105908 255.000000 -0.188212 17.000000 0.010578 106.000000 0.007211 107.000000 -0.004544
175122.000000 1.742146 263.000000 270.000000 173.000000 -0.027509 211.000000 0.199889 239.000000 -0.087306 249.000000 -0.121020 16.000000 0.059937 103.000000 0.007757 139.000000 -0.125048
175911.000000 1.701269 262.000000 265.000000 96.000000 -0.034264 202.000000 0.186689 205.000000 0.175685 247.000000 -0.265817 16.000000 0.058794 94.000000 -0.018418 96.000000 -0.034264
176176.000000 1.697725 265.000000 272.000000 106.000000 0.001913 213.000000 0.192647 216.000000 0.175640 252.000000 -0.139890 15.000000 0.042397 105.000000 0.009515 106.000000 0.001913
177491.000000 1.705238 262.000000 261.000000 171.000000 -0.071108 208.000000 0.166900 230.000000 -0.138181 240.000000 -0.135563 17.000000 -0.000203 101.000000 -0.009061 124.000000 -0.069625
178014.000000 1.729842 262.000000 263.000000 101.000000 -0.062587 204.000000 0.202650 229.000000 -0.068933 243.000000 -0.229919 10.000000 0.095485 94.000000 -0.020047 101.000000 -0.062587
178531.000000 1.682994 254.000000 260.000000 142.000000 -0.122365 202.000000 0.194877 224.000000 -0.066800 247.000000 -0.235530 14.000000 0.067102 93.000000 -0.007600 96.000000 -0.055767
178791.000000 1.693405 260.000000 259.000000 121.000000 -0.071927 204.000000 0.183868 231.000000 -0.085850 241.000000 -0.219877 10.000000 0.020051 97.000000 -0.038178 121.000000 -0.071927
179573.000000 1.789733 257.000000 258.000000 176.000000 -0.072288 197.000000 0.211788 201.000000 0.163151 238.000000 -0.172037 17.000000 0.025234 98.000000 -0.055268 111.000000 -0.069013
180075.000000 1.732523 244.000000 260.000000 118.000000 -0.100360 197.000000 0.175500 198.000000 0.155468 242.000000 -0.263607 15.000000 0.059888 99.000000 -0.028183 118.000000 -0.100360
180335.000000 1.684654 260.000000 254.000000 125.000000 -0.096079 196.000000 0.186209 198.000000 0.150362 241.000000 -0.186926 15.000000 0.007414 94.000000 -0.073024 103.000000 -0.096001
180842.000000 1.705722 253.000000 251.000000 146.000000 -0.157712 195.000000 0.208651 223.000000 -0.109470 234.000000 -0.250395 14.000000 0.037962 99.000000 -0.061144 103.000000 -0.096865
181093.000000 1.721409 251.000000 250.000000 111.000000 -0.107572 187.000000 0.195375 197.000000 0.113920 230.000000 -0.198853 16.000000 0.101080 114.000000 -0.065722 197.000000 0.113920
181592.000000 1.671098 249.000000 247.000000 121.000000 -0.098293 188.000000 0.175503 193.000000 0.175363 228.000000 -0.127429 15.000000 0.051554 117.000000 -0.067274 121.000000 -0.098293
181839.000000 1.686460 247.000000 250.000000 161.000000 -0.101930 197.000000 0.162053 219.000000 -0.121551 232.000000 -0.214561 17.000000 0.036114 113.000000 -0.051550 161.000000 -0.101930
182089.000000 1.662085 250.000000 259.000000 173.000000 -0.079134 200.000000 0.204298 215.000000 -0.011738 235.000000 -0.093855 15.000000 0.036036 102.000000 -0.019626 177.000000 -0.067880
182597.000000 1.731972 249.000000 243.000000 134.000000 -0.117543 184.000000 0.183101 185.000000 0.182350 223.000000 -0.141379 16.000000 0.099354 112.000000 -0.068544 123.000000 -0.068639
182840.000000 1.659859 243.000000 253.000000 159.000000 -0.099277 194.000000 0.182462 195.000000 0.172368 234.000000 -0.174216 16.000000 0.046161 95.000000 -0.040060 108.000000 -0.076330
183093.000000 1.666833 253.000000 260.000000 114.000000 -0.108541 203.000000 0.179874 227.000000 -0.092996 241.000000 -0.186364 19.000000 -0.064106 94.000000 -0.048464 99.000000 -0.058433
184622.000000 1.697773 252.000000 259.000000 126.000000 -0.088776 198.000000 0.157601 200.000000 0.136034 240.000000 -0.226567 16.000000 0.052114 95.000000 -0.030516 102.000000 -0.050123
185135.000000 1.712163 254.000000 259.000000 150.000000 -0.205235 203.000000 0.191977 226.000000 -0.056957 241.000000 -0.231393 16.000000 0.060846 93.000000 -0.031144 96.000000 -0.082617
185653.000000 1.657465 259.000000 263.000000 125.000000 -0.071488 203.000000 0.169074 229.000000 -0.094357 243.000000 -0.186786 15.000000 0.037621 94.000000 -0.007898 103.000000 -0.048322
186954.000000 1.663684 261.000000 268.000000 101.000000 -0.003526 208.000000 0.212636 219.000000 0.100582 248.000000 -0.165985 15.000000 0.066287 99.000000 0.009860 101.000000 -0.003526
187222.000000 1.711207 268.000000 269.000000 171.000000 -0.075269 216.000000 0.177189 244.000000 -0.083642 250.000000 -0.164926 15.000000 0.118419 108.000000 -0.037287 124.000000 -0.131707
188309.000000 1.712821 284.000000 273.000000 179.000000 -0.038821 213.000000 0.205662 214.000000 0.190192 255.000000 -0.166048 16.000000 0.108635 106.000000 -0.001897 182.000000 -0.073460
189134.000000 1.752699 274.000000 287.000000 190.000000 -0.022723 227.000000 0.216132 263.000000 -0.061626 269.000000 -0.205374 18.000000 0.011913 107.000000 -0.003024 114.000000 -0.027225
189421.000000 1.773026 287.000000 279.000000 179.000000 -0.043777 218.000000 0.177068 254.000000 -0.086426 260.000000 -0.189169 17.000000 0.040563 110.000000 0.013322 179.000000 -0.043777
189700.000000 1.729798 279.000000 290.000000 189.000000 -0.061916 236.000000 0.180844 248.000000 0.011724 264.000000 -0.088762 18.000000 0.005363 103.000000 0.000406 114.000000 -0.025660
190566.000000 1.729733 280.000000 276.000000 182.000000 -0.059557 216.000000 0.197371 235.000000 0.038986 258.000000 -0.111565 14.000000 0.075784 103.000000 -0.002912 112.000000 -0.050906
190842.000000 1.704862 276.000000 284.000000 184.000000 -0.081443 222.000000 0.190608 224.000000 0.175089 263.000000 -0.186350 16.000000 0.047965 102.000000 -0.007682 110.000000 -0.059860
191695.000000 1.734420 286.000000 276.000000 133.000000 -0.136240 214.000000 0.192981 222.000000 0.161146 257.000000 -0.231708 16.000000 0.044920 104.000000 0.005735 111.000000 -0.047775
193096.000000 1.751884 288.000000 291.000000 123.000000 -0.047256 230.000000 0.199408 236.000000 0.156618 274.000000 -0.274936 16.000000 0.074155 109.000000 0.011851 123.000000 -0.047256
193387.000000 1.663291 291.000000 283.000000 112.000000 -0.021646 223.000000 0.194951 250.000000 -0.107825 264.000000 -0.252338 14.000000 0.044451 114.000000 0.005580 221.000000 0.165530
193945.000000 1.679626 275.000000 291.000000 194.000000 -0.070176 229.000000 0.167035 233.000000 0.114543 272.000000 -0.202852 14.000000 0.028997 122.000000 0.001537 194.000000 -0.070176
195066.000000 1.711680 273.000000 279.000000 184.000000 -0.072604 217.000000 0.207037 253.000000 -0.112190 260.000000 -0.194448 18.000000 0.055349 108.000000 -0.013274 184.000000 -0.072604
195611.000000 1.673199 266.000000 272.000000 187.000000 -0.028467 212.000000 0.216783 239.000000 -0.132808 251.000000 -0.143935 17.000000 0.039815 102.000000 0.019594 187.000000 -0.028467
196162.000000 1.714152 279.000000 270.000000 139.000000 -0.141612 214.000000 0.186599 229.000000 -0.066349 251.000000 -0.208967 14.000000 0.028886 102.000000 -0.009245 103.000000 -0.036221
197234.000000 1.661819 272.000000 270.000000 104.000000 -0.017241 207.000000 0.175735 209.000000 0.170139 251.000000 -0.212934 16.000000 0.072086 104.000000 -0.017241 209.000000 0.170139
197504.000000 1.738338 270.000000 274.000000 183.000000 -0.060669 216.000000 0.180820 241.000000 -0.090639 255.000000 -0.240185 17.000000 0.018167 107.000000 -0.006896 183.000000 -0.060669
198608.000000 1.682085 278.000000 284.000000 180.000000 -0.067240 219.000000 0.178073 230.000000 0.090362 264.000000 -0.097978 17.000000 -0.065140 110.000000 -0.051143 120.000000 -0.091425
198892.000000 1.796319 284.000000 283.000000 178.000000 -0.107851 219.000000 0.194453 221.000000 0.167557 265.000000 -0.192350 15.000000 0.157166 109.000000 0.009825 178.000000 -0.107851
199175.000000 1.770282 283.000000 280.000000 187.000000 -0.083478 217.000000 0.137148 219.000000 0.120376 262.000000 -0.239215 17.000000 0.011051 104.000000 0.007805 113.000000 -0.036129
199455.000000 1.733981 280.000000 281.000000 178.000000 -0.084439 219.000000 0.199119 251.000000 -0.114542 261.000000 -0.139368 17.000000 0.048916 113.000000 0.008621 178.000000 -0.084439
200291.000000 1.719450 276.000000 285.000000 174.000000 -0.095140 224.000000 0.183353 225.000000 0.182774 265.000000 -0.116037 15.000000 0.058886 108.000000 -0.000751 116.000000 -0.022005
201123.000000 1.719204 274.000000 270.000000 177.000000 -0.057481 210.000000 0.217128 211.000000 0.191752 254.000000 -0.250817 16.000000 0.091882 102.000000 0.029465 180.000000 -0.035553
201393.000000 1.703445 270.000000 269.000000 101.000000 -0.022664 214.000000 0.171312 244.000000 -0.088764 257.000000 -0.078450 14.000000 0.020609 100.000000 -0.002052 101.000000 -0.022664
201662.000000 1.659796 269.000000 281.000000 183.000000 -0.072965 224.000000 0.164042 249.000000 -0.079827 262.000000 -0.249466 10.000000 0.005486 102.000000 -0.001049 111.000000 -0.052709
203307.000000 1.665580 271.000000 274.000000 189.000000 -0.051147 215.000000 0.198603 240.000000 -0.070265 252.000000 -0.091157 17.000000 0.023904 103.000000 0.004843 128.000000 -0.081991
203581.000000 1.730941 274.000000 271.000000 180.000000 -0.004829 214.000000 0.205296 242.000000 -0.080613 252.000000 -0.169296 17.000000 -0.047585 95.000000 0.001976 102.000000 -0.014246
203852.000000 1.685361 271.000000 271.000000 182.000000 -0.026361 210.000000 0.195003 222.000000 0.125206 253.000000 -0.198102 18.000000 0.024217 103.000000 0.015800 147.000000 -0.118556
204123.000000 1.661270 271.000000 270.000000 169.000000 -0.096019 212.000000 0.183640 239.000000 -0.112678 252.000000 -0.201613 18.000000 0.013809 102.000000 -0.014624 140.000000 -0.147353
204954.000000 1.707101 283.000000 273.000000 174.000000 -0.069971 211.000000 0.195187 212.000000 0.189655 252.000000 -0.094375 19.000000 -0.050280 105.000000 -0.005328 176.000000 -0.038638
205227.000000 1.663277 273.000000 273.000000 104.000000 -0.019342 213.000000 0.201242 240.000000 -0.122771 253.000000 -0.165170 15.000000 0.109405 106.000000 0.006989 214.000000 0.200991
205780.000000 1.654656 280.000000 282.000000 180.000000 -0.055659 223.000000 0.171849 240.000000 -0.035360 263.000000 -0.197318 17.000000 0.067304 108.000000 0.007335 115.000000 0.004531
206062.000000 1.713669 282.000000 277.000000 170.000000 -0.068180 219.000000 0.208904 242.000000 -0.066675 257.000000 -0.193773 17.000000 -0.047631 102.000000 0.001331 110.000000 -0.025548
206613.000000 1.612586 274.000000 278.000000 107.000000 -0.036050 220.000000 0.179030 244.000000 -0.105815 259.000000 -0.148732 17.000000 0.067493 111.000000 0.003903 216.000000 0.151789
207166.000000 1.729484 275.000000 273.000000 106.000000 -0.027212 210.000000 0.197085 214.000000 0.140423 256.000000 -0.284435 15.000000 0.104122 103.000000 0.021362 106.000000 -0.027212
207710.000000 1.689421 271.000000 282.000000 184.000000 -0.088811 217.000000 0.163886 235.000000 0.045139 266.000000 -0.335017 19.000000 -0.067632 110.000000 0.019765 172.000000 -0.110817
208265.000000 1.729062 273.000000 271.000000 155.000000 -0.167476 212.000000 0.213765 214.000000 0.197119 251.000000 -0.100358 15.000000 0.090079 109.000000 -0.001475 129.000000 -0.073591
208536.000000 1.693417 271.000000 278.000000 109.000000 0.018525 220.000000 0.175182 248.000000 -0.123487 260.000000 -0.239457 15.000000 0.110751 110.000000 0.037476 216.000000 0.156155
208814.000000 1.675262 278.000000 278.000000 192.000000 -0.041163 218.000000 0.202222 220.000000 0.171313 260.000000 -0.156335 17.000000 0.047568 109.000000 0.018027 167.000000 -0.121584
209092.000000 1.687069 278.000000 286.000000 193.000000 -0.034605 227.000000 0.194688 257.000000 -0.116738 268.000000 -0.194059 16.000000 0.068528 107.000000 0.007840 117.000000 -0.031595
209378.000000 1.737793 286.000000 288.000000 195.000000 -0.034106 227.000000 0.204155 228.000000 0.203198 270.000000 -0.140345 16.000000 0.036443 107.000000 0.017370 109.000000 -0.007332
209666.000000 1.759671 288.000000 298.000000 199.000000 -0.045375 239.000000 0.182855 250.000000 0.055536 280.000000 -0.123226 16.000000 0.117523 111.000000 0.030393 120.000000 -0.022037
209964.000000 1.704611 298.000000 287.000000 188.000000 -0.112025 221.000000 0.199950 225.000000 0.164621 269.000000 -0.141428 15.000000 0.077902 113.000000 0.028934 188.000000 -0.112025
210251.000000 1.728101 287.000000 291.000000 195.000000 -0.048932 229.000000 0.158137 249.000000 -0.090891 272.000000 -0.138399 18.000000 0.012772 113.000000 0.012772 126.000000 -0.031381
210542.000000 1.766738 291.000000 295.000000 190.000000 -0.072996 233.000000 0.199731 266.000000 -0.076004 277.000000 -0.181316 16.000000 0.083917 109.000000 0.010643 112.000000 -0.017428
210837.000000 1.737227 295.000000 284.000000 183.000000 -0.061128 223.000000 0.206052 252.000000 -0.102037 266.000000 -0.184795 21.000000 -0.112239 104.000000 0.005330 112.000000 -0.029984
212247.000000 1.705786 271.000000 273.000000 105.000000 -0.031741 219.000000 0.182742 248.000000 -0.117413 256.000000 -0.168071 16.000000 0.082791 110.000000 -0.010723 215.000000 0.170093
212520.000000 1.706773 273.000000 278.000000 106.000000 -0.004389 212.000000 0.169470 214.000000 0.148420 258.000000 -0.136928 16.000000 0.060378 101.000000 0.003714 106.000000 -0.004389
213334.000000 1.668118 267.000000 274.000000 173.000000 -0.059119 212.000000 0.206431 222.000000 0.102309 254.000000 -0.167770 16.000000 0.072725 106.000000 0.023072 173.000000 -0.059119
213608.000000 1.742808 274.000000 280.000000 186.000000 -0.070640 215.000000 0.189143 217.000000 0.158249 261.000000 -0.172207 19.000000 -0.092037 109.000000 0.022646 117.000000 -0.006586
213888.000000 1.747256 280.000000 270.000000 168.000000 -0.099201 209.000000 0.187992 211.000000 0.176237 250.000000 -0.177917 15.000000 0.058682 100.000000 0.005831 103.000000 -0.025156
214980.000000 1.747852 276.000000 278.000000 110.000000 -0.014919 214.000000 0.197507 221.000000 0.188495 259.000000 -0.169046 15.000000 0.053964 104.000000 0.020049 110.000000 -0.014919
215258.000000 1.713527 278.000000 265.000000 174.000000 -0.022614 209.000000 0.231052 236.000000 -0.121959 248.000000 -0.254514 18.000000 0.062821 100.000000 -0.045187 179.000000 -0.043319
215806.000000 1.767383 283.000000 275.000000 193.000000 0.000694 212.000000 0.195850 215.000000 0.159235 255.000000 -0.164939 15.000000 0.085611 104.000000 0.013886 107.000000 -0.003793
216349.000000 1.716269 268.000000 273.000000 176.000000 -0.052082 211.000000 0.202025 221.000000 0.119941 255.000000 -0.201282 17.000000 0.067021 106.000000 0.012602 146.000000 -0.186237
216622.000000 1.678060 273.000000 276.000000 192.000000 -0.046287 214.000000 0.186347 232.000000 -0.014262 257.000000 -0.176614 17.000000 0.042181 105.000000 -0.003073 108.000000 -0.023011
216898.000000 1.708965 276.000000 268.000000 102.000000 -0.026724 205.000000 0.177087 212.000000 0.161866 249.000000 -0.199768 15.000000 0.032537 96.000000 0.009311 102.000000 -0.026724
217704.000000 1.676882 279.000000 274.000000 178.000000 -0.033201 213.000000 0.209996 214.000000 0.199730 255.000000 -0.207006 15.000000 0.042163 106.000000 0.022821 178.000000 -0.033201
218249.000000 1.728589 271.000000 258.000000 99.000000 -0.028671 197.000000 0.202259 225.000000 -0.121722 244.000000 -0.282286 14.000000 0.065405 101.000000 -0.028169 197.000000 0.202259
218507.000000 1.724751 258.000000 269.000000 175.000000 -0.095544 210.000000 0.168262 235.000000 -0.121805 251.000000 -0.177118 10.000000 0.062776 107.000000 -0.006555 175.000000 -0.095544
218776.000000 1.683840 269.000000 264.000000 174.000000 -0.069046 200.000000 0.172380 224.000000 -0.065533 244.000000 -0.145844 16.000000 0.044484 99.000000 -0.008773 117.000000 -0.063022
219835.000000 1.710173 264.000000 263.000000 164.000000 -0.089057 200.000000 0.201650 203.000000 0.170130 245.000000 -0.244119 17.000000 0.005816 98.000000 -0.019122 102.000000 -0.025330
220098.000000 1.742744 263.000000 256.000000 124.000000 -0.072819 196.000000 0.218155 197.000000 0.212512 238.000000 -0.204967 14.000000 0.069515 113.000000 -0.044873 125.000000 -0.057709
220612.000000 1.646928 258.000000 260.000000 99.000000 -0.099886 200.000000 0.213872 227.000000 -0.114014 241.000000 -0.147916 15.000000 0.043622 102.000000 -0.039495 202.000000 0.183277
221128.000000 1.675519 256.000000 249.000000 127.000000 -0.092805 188.000000 0.185436 195.000000 0.152897 232.000000 -0.203167 18.000000 -0.013525 105.000000 -0.053918 115.000000 -0.089937
221870.000000 1.622367 245.000000 250.000000 140.000000 -0.136581 191.000000 0.201555 193.000000 0.165709 232.000000 -0.159120 14.000000 0.045127 118.000000 -0.045956 128.000000 -0.084074
222120.000000 1.666145 250.000000 249.000000 114.000000 -0.076533 190.000000 0.184936 192.000000 0.159246 229.000000 -0.197055 16.000000 0.025206 118.000000 -0.057645 192.000000 0.159246
222620.000000 1.669199 251.000000 250.000000 123.000000 -0.064671 196.000000 0.196267 220.000000 -0.051112 232.000000 -0.217301 18.000000 0.008291 111.000000 -0.063104 123.000000 -0.064671
223108.000000 1.609205 238.000000 247.000000 109.000000 -0.050078 190.000000 0.222144 218.000000 -0.120348 229.000000 -0.176694 14.000000 0.024394 108.000000 -0.030972 110.000000 -0.064233
223355.000000 1.636912 247.000000 252.000000 115.000000 -0.107146 195.000000 0.204629 222.000000 -0.120919 244.000000 0.815630 17.000000 0.033293 113.000000 -0.054686 122.000000 -0.106378
224102.000000 1.710077 244.000000 236.000000 144.000000 -0.120046 179.000000 0.205098 190.000000 0.137024 215.000000 -0.093821 15.000000 0.121756 107.000000 -0.053733 111.000000 -0.071287
225793.000000 1.668498 245.000000 239.000000 100.000000 -0.052447 184.000000 0.186364 192.000000 0.092086 221.000000 -0.173320 14.000000 0.047510 100.000000 -0.052447 185.000000 0.170863
226032.000000 1.621398 239.000000 245.000000 105.000000 -0.075658 185.000000 0.184639 192.000000 0.135252 228.000000 -0.218008 15.000000 0.062448 111.000000 -0.040204 186.000000 0.158982
226277.000000 1.649717 245.000000 249.000000 169.000000 -0.083230 191.000000 0.187838 202.000000 0.109138 229.000000 -0.169217 15.000000 0.054576 106.000000 -0.047054 119.000000 -0.050752
227027.000000 1.602385 248.000000 256.000000 112.000000 -0.051912 199.000000 0.179361 225.000000 -0.102114 237.000000 -0.184482 17.000000 0.118404 115.000000 -0.029467 199.000000 0.179361
228304.000000 1.712648 260.000000 265.000000 124.000000 -0.110109 206.000000 0.178241 231.000000 -0.111256 244.000000 -0.220581 16.000000 0.023635 97.000000 -0.009325 98.000000 -0.012005
229331.000000 1.674622 251.000000 261.000000 99.000000 -0.038308 200.000000 0.197572 206.000000 0.160519 241.000000 -0.195516 17.000000 -0.022416 101.000000 -0.007038 200.000000 0.197572
229592.000000 1.695000 261.000000 257.000000 121.000000 -0.073478 201.000000 0.214235 224.000000 -0.080627 239.000000 -0.161991 16.000000 0.085563 96.000000 -0.063305 107.000000 -0.093024
229849.000000 1.692178 257.000000 257.000000 149.000000 -0.146882 197.000000 0.221096 199.000000 0.194826 237.000000 -0.164344 16.000000 0.033231 95.000000 -0.027710 116.000000 -0.089953
231382.000000 1.725579 258.000000 265.000000 131.000000 -0.096268 203.000000 0.196320 207.000000 0.150018 247.000000 -0.222336 15.000000 0.053904 105.000000 -0.007883 131.000000 -0.096268
231647.000000 1.697960 265.000000 260.000000 166.000000 -0.056348 200.000000 0.210268 201.000000 0.209719 242.000000 -0.234403 16.000000 0.063510 102.000000 -0.047177 117.000000 -0.060078
233230.000000 1.718528 267.000000 268.000000 101.000000 -0.052038 213.000000 0.169041 239.000000 -0.109092 251.000000 -0.275329 13.000000 0.096662 104.000000 0.004452 212.000000 0.159730
233498.000000 1.703497 268.000000 266.000000 177.000000 -0.081777 210.000000 0.229371 236.000000 -0.089450 247.000000 -0.206769 15.000000 0.095174 102.000000 -0.001349 177.000000 -0.081777
236738.000000 1.667238 269.000000 269.000000 104.000000 -0.015613 212.000000 0.185630 241.000000 -0.072803 261.000000 0.790707 19.000000 -0.107355 105.000000 0.000939 212.000000 0.185630
237552.000000 1.743573 274.000000 262.000000 98.000000 -0.056410 205.000000 0.220921 230.000000 -0.098811 241.000000 -0.120472 16.000000 0.050093 96.000000 -0.034372 107.000000 -0.080892
238878.000000 1.666458 257.000000 260.000000 125.000000 -0.068387 207.000000 0.178670 221.000000 -0.062864 241.000000 -0.192819 14.000000 0.035171 101.000000 -0.030661 114.000000 -0.066287
239138.000000 1.745299 260.000000 263.000000 96.000000 -0.066002 202.000000 0.195346 204.000000 0.174406 242.000000 -0.141815 15.000000 0.030345 98.000000 -0.031912 204.000000 0.174406
240180.000000 1.706254 263.000000 264.000000 100.000000 -0.037802 205.000000 0.210787 206.000000 0.200317 245.000000 -0.238666 14.000000 0.056129 96.000000 -0.006580 100.000000 -0.037802
240705.000000 1.747806 261.000000 265.000000 118.000000 -0.116502 206.000000 0.206634 208.000000 0.189925 246.000000 -0.274938 17.000000 0.070706 102.000000 -0.030061 118.000000 -0.116502
241225.000000 1.662446 255.000000 270.000000 170.000000 -0.042568 208.000000 0.184486 227.000000 -0.008681 250.000000 -0.182615 17.000000 0.061741 98.000000 -0.013417 104.000000 -0.028888
241752.000000 1.718400 257.000000 261.000000 121.000000 -0.111067 201.000000 0.185692 205.000000 0.172699 253.000000 0.845234 21.000000 -0.177603 111.000000 -0.046820 124.000000 -0.085126
242522.000000 1.710738 258.000000 259.000000 97.000000 -0.012399 205.000000 0.202902 231.000000 -0.132774 242.000000 -0.241614 14.000000 0.069123 97.000000 -0.012399 205.000000 0.202902
242781.000000 1.681723 259.000000 256.000000 124.000000 -0.070454 200.000000 0.194266 220.000000 -0.079340 237.000000 -0.144043 16.000000 0.044466 93.000000 -0.043308 103.000000 -0.065378
243037.000000 1.724231 256.000000 264.000000 99.000000 -0.026066 206.000000 0.207372 232.000000 -0.136472 242.000000 -0.098760 17.000000 0.004857 101.000000 -0.004280 206.000000 0.207372
244612.000000 1.707840 263.000000 261.000000 171.000000 -0.037209 206.000000 0.200972 228.000000 -0.082634 243.000000 -0.210943 15.000000 0.045879 96.000000 -0.033918 121.000000 -0.099074
245388.000000 1.711313 262.000000 257.000000 113.000000 -0.095375 200.000000 0.185217 225.000000 -0.130741 237.000000 -0.188529 17.000000 0.008148 91.000000 -0.062209 96.000000 -0.087711
245901.000000 1.706648 256.000000 255.000000 169.000000 -0.033716 199.000000 0.192632 223.000000 -0.060298 237.000000 -0.195361 16.000000 0.102618 107.000000 -0.054186 123.000000 -0.135112
247146.000000 1.778529 243.000000 239.000000 136.000000 -0.103387 180.000000 0.227458 191.000000 0.147334 218.000000 -0.063608 26.000000 -0.257271 125.000000 -0.095801 137.000000 -0.113011
247385.000000 1.811018 239.000000 242.000000 123.000000 -0.085643 180.000000 0.218059 182.000000 0.212353 224.000000 -0.277429 16.000000 0.070609 97.000000 -0.060141 103.000000 -0.081770
247627.000000 1.703811 242.000000 240.000000 130.000000 -0.058701 188.000000 0.223118 208.000000 -0.028589 221.000000 -0.056316 16.000000 0.012980 120.000000 -0.026978 132.000000 -0.028387
247867.000000 1.763372 240.000000 228.000000 117.000000 -0.089751 169.000000 0.208778 180.000000 0.178558 209.000000 -0.169951 16.000000 0.014375 104.000000 -0.079515 117.000000 -0.089751
248328.000000 1.680831 233.000000 231.000000 131.000000 -0.141881 176.000000 0.173933 187.000000 0.125469 214.000000 -0.228480 15.000000 0.076426 116.000000 -0.059311 131.000000 -0.141881
248559.000000 1.692400 231.000000 234.000000 125.000000 -0.083684 173.000000 0.174922 176.000000 0.135392 216.000000 -0.220816 14.000000 0.032541 98.000000 -0.071333 103.000000 -0.102540
248793.000000 1.669750 234.000000 234.000000 131.000000 -0.093804 175.000000 0.183141 179.000000 0.173548 215.000000 -0.154699 15.000000 0.018668 121.000000 -0.062613 132.000000 -0.103428
249498.000000 1.714780 228.000000 232.000000 121.000000 -0.112384 180.000000 0.162447 187.000000 0.073514 213.000000 -0.157238 16.000000 0.075078 107.000000 -0.059970 121.000000 -0.112384
249730.000000 1.622291 232.000000 234.000000 126.000000 -0.112916 179.000000 0.187992 210.000000 -0.086601 217.000000 -0.247761 16.000000 0.015880 103.000000 -0.041348 126.000000 -0.112916
250211.000000 1.634199 247.000000 237.000000 114.000000 -0.076158 181.000000 0.180333 188.000000 0.166148 225.000000 -0.186567 16.000000 -0.017682 116.000000 -0.044763 187.000000 0.171806
250448.000000 1.652445 237.000000 240.000000 110.000000 -0.077289 192.000000 0.141630 202.000000 -0.045205 221.000000 -0.160612 11.000000 -0.053464 112.000000 -0.065251 184.000000 0.122617
250916.000000 1.622115 228.000000 248.000000 132.000000 -0.082163 194.000000 0.203336 216.000000 -0.071743 231.000000 -0.215252 15.000000 0.050031 96.000000 -0.022539 101.000000 -0.032570
251164.000000 1.603463 248.000000 241.000000 118.000000 -0.078155 187.000000 0.167994 213.000000 -0.113664 222.000000 -0.157095 16.000000 0.033194 101.000000 -0.052324 103.000000 -0.059456
251405.000000 1.623720 241.000000 241.000000 119.000000 -0.086847 184.000000 0.195625 186.000000 0.179638 222.000000 -0.163888 16.000000 0.013578 103.000000 -0.055281 119.000000 -0.086847
252135.000000 1.634562 247.000000 237.000000 108.000000 -0.105124 187.000000 0.166506 211.000000 -0.074170 225.000000 -0.162228 16.000000 0.059418 104.000000 -0.047837 115.000000 -0.072616
252372.000000 1.586456 237.000000 246.000000 167.000000 -0.035035 190.000000 0.199229 200.000000 0.106095 226.000000 -0.127130 10.000000 -0.032087 97.000000 -0.007162 104.000000 -0.009357
252618.000000 1.626523 246.000000 242.000000 112.000000 -0.068461 185.000000 0.181884 197.000000 0.117508 223.000000 -0.162008 17.000000 -0.008648 100.000000 -0.049434 112.000000 -0.068461
252860.000000 1.641831 242.000000 252.000000 145.000000 -0.179169 194.000000 0.184205 221.000000 -0.113618 233.000000 -0.225704 17.000000 -0.000692 100.000000 -0.046616 111.000000 -0.055691
253355.000000 1.686032 243.000000 245.000000 114.000000 -0.078148 192.000000 0.184027 215.000000 -0.092962 227.000000 -0.229216 15.000000 0.021988 96.000000 -0.043226 98.000000 -0.057552
253842.000000 1.651852 242.000000 250.000000 146.000000 -0.168477 195.000000 0.178844 198.000000 0.167793 232.000000 -0.172635 16.000000 0.038528 90.000000 -0.025923 101.000000 -0.028995
254092.000000 1.635924 250.000000 247.000000 120.000000 -0.080329 189.000000 0.178600 197.000000 0.160404 229.000000 -0.232069 15.000000 0.029170 103.000000 -0.038149 114.000000 -0.071144
254339.000000 1.665487 247.000000 252.000000 104.000000 -0.077364 192.000000 0.185122 196.000000 0.157536 233.000000 -0.190268 15.000000 0.046178 107.000000 -0.040891 196.000000 0.157536
255096.000000 1.702744 255.000000 250.000000 107.000000 -0.059135 192.000000 0.189670 195.000000 0.188118 237.000000 -0.210692 16.000000 0.064717 107.000000 -0.059135 195.000000 0.188118
255601.000000 1.656508 255.000000 250.000000 103.000000 -0.088542 191.000000 0.205655 194.000000 0.184559 231.000000 -0.152164 16.000000 0.035237 107.000000 -0.051364 194.000000 0.184559
256612.000000 1.655316 253.000000 244.000000 101.000000 -0.090860 189.000000 0.223825 198.000000 0.148323 225.000000 -0.115549 16.000000 0.063388 104.000000 -0.064496 188.000000 0.214405
257369.000000 1.644923 253.000000 253.000000 102.000000 -0.062257 201.000000 0.201008 216.000000 -0.039433 234.000000 -0.103854 16.000000 0.007444 105.000000 -0.041490 204.000000 0.149016
257622.000000 1.718450 253.000000 257.000000 137.000000 -0.126693 198.000000 0.193979 200.000000 0.187302 235.000000 -0.068839 17.000000 0.044125 91.000000 -0.050925 102.000000 -0.056740
257879.000000 1.621209 257.000000 264.000000 138.000000 -0.122007 207.000000 0.209574 234.000000 -0.097760 245.000000 -0.169185 19.000000 -0.077270 98.000000 -0.012728 100.000000 -0.019139
258400.000000 1.645688 257.000000 258.000000 115.000000 -0.100659 200.000000 0.202373 201.000000 0.186855 240.000000 -0.230970 17.000000 -0.020582 94.000000 -0.014403 115.000000 -0.100659
259705.000000 1.613632 259.000000 263.000000 121.000000 -0.075361 205.000000 0.190347 206.000000 0.185002 243.000000 -0.160596 14.000000 0.053586 97.000000 0.007477 121.000000 -0.075361
260487.000000 1.749466 260.000000 262.000000 98.000000 -0.041739 204.000000 0.205240 205.000000 0.179629 238.000000 -0.054638 16.000000 0.052209 100.000000 -0.020735 205.000000 0.179629
261270.000000 1.641928 260.000000 262.000000 123.000000 -0.097242 203.000000 0.191696 228.000000 -0.097693 242.000000 -0.169058 18.000000 -0.029325 102.000000 -0.021756 123.000000 -0.097242
261532.000000 1.673434 262.000000 258.000000 169.000000 -0.076422 203.000000 0.171538 219.000000 -0.051504 239.000000 -0.093997 16.000000 0.020281 95.000000 -0.027164 120.000000 -0.071443
261790.000000 1.687775 258.000000 263.000000 123.000000 -0.083166 209.000000 0.199058 236.000000 -0.084248 243.000000 -0.177305 19.000000 -0.044401 101.000000 -0.022100 124.000000 -0.088151
262306.000000 1.582636 253.000000 262.000000 176.000000 -0.050725 204.000000 0.179213 208.000000 0.162849 244.000000 -0.195786 16.000000 0.054202 100.000000 -0.020282 126.000000 -0.090940
262568.000000 1.631834 262.000000 251.000000 117.000000 -0.116726 198.000000 0.180249 207.000000 0.076299 233.000000 -0.218827 18.000000 -0.045688 92.000000 -0.077633 99.000000 -0.105063
262819.000000 1.666613 251.000000 262.000000 177.000000 -0.027522 202.000000 0.207509 207.000000 0.150158 244.000000 -0.191819 16.000000 0.055704 95.000000 -0.023571 105.000000 -0.037867
263081.000000 1.731707 262.000000 259.000000 177.000000 -0.092010 203.000000 0.181267 230.000000 -0.104641 239.000000 -0.162745 18.000000 -0.063385 95.000000 -0.042099 104.000000 -0.083008
263852.000000 1.618072 256.000000 267.000000 140.000000 -0.148420 210.000000 0.176390 234.000000 -0.084687 248.000000 -0.174985 16.000000 0.057458 104.000000 -0.020864 127.000000 -0.085143
264119.000000 1.652305 267.000000 259.000000 118.000000 -0.109027 200.000000 0.179542 210.000000 0.144340 240.000000 -0.161065 17.000000 -0.001423 101.000000 -0.037520 125.000000 -0.096928
264378.000000 1.685659 259.000000 257.000000 93.000000 -0.038449 203.000000 0.179784 213.000000 0.066600 237.000000 -0.094311 19.000000 -0.066412 96.000000 -0.037790 201.000000 0.151508
264897.000000 1.636583 262.000000 265.000000 175.000000 -0.008716 211.000000 0.206017 241.000000 -0.110786 253.000000 -0.208467 21.000000 -0.112822 103.000000 -0.023196 122.000000 -0.104906
265162.000000 1.632598 265.000000 264.000000 175.000000 -0.040279 208.000000 0.164347 211.000000 0.147998 246.000000 -0.188947 11.000000 -0.082291 102.000000 -0.026490 182.000000 -0.061469
265426.000000 1.677994 264.000000 265.000000 176.000000 -0.056227 210.000000 0.166862 235.000000 -0.103464 253.000000 -0.213902 16.000000 0.044482 102.000000 -0.007492 122.000000 -0.108134
265691.000000 1.680644 265.000000 273.000000 174.000000 -0.053414 210.000000 0.195317 212.000000 0.168969 259.000000 -0.210927 11.000000 -0.061770 102.000000 0.013448 103.000000 -0.007116
266493.000000 1.667324 263.000000 273.000000 172.000000 -0.102070 213.000000 0.187552 214.000000 0.182081 253.000000 -0.157275 16.000000 0.038201 104.000000 -0.011489 116.000000 -0.050863
267040.000000 1.700737 274.000000 267.000000 168.000000 -0.075110 207.000000 0.197960 217.000000 0.107273 246.000000 -0.128762 19.000000 -0.129827 100.000000 0.000065 168.000000 -0.075110
267574.000000 1.687667 267.000000 276.000000 188.000000 -0.039218 214.000000 0.207506 248.000000 -0.114925 256.000000 -0.194000 18.000000 0.001334 104.000000 -0.002697 127.000000 -0.107461
268126.000000 1.703776 276.000000 274.000000 174.000000 -0.057756 212.000000 0.206790 215.000000 0.190489 254.000000 -0.133071 17.000000 0.012557 108.000000 0.006193 174.000000 -0.057756
268400.000000 1.747178 274.000000 272.000000 178.000000 -0.053556 214.000000 0.208622 216.000000 0.197367 256.000000 -0.210816 20.000000 -0.078433 106.000000 -0.006520 188.000000 -0.047522
268672.000000 1.732585 272.000000 273.000000 108.000000 -0.031016 210.000000 0.184390 217.000000 0.170659 256.000000 -0.275001 15.000000 0.099295 105.000000 0.000676 111.000000 -0.007537
268945.000000 1.636738 273.000000 273.000000 176.000000 -0.034452 212.000000 0.183841 215.000000 0.168245 254.000000 -0.167049 14.000000 0.055517 104.000000 0.000610 113.000000 -0.050770
269218.000000 1.696477 273.000000 279.000000 203.000000 0.004838 219.000000 0.170559 227.000000 0.141469 258.000000 -0.150406 15.000000 0.073108 105.000000 0.007428 110.000000 -0.004923
270062.000000 1.727430 288.000000 278.000000 172.000000 -0.044076 220.000000 0.193981 250.000000 -0.096034 260.000000 -0.216050 15.000000 0.082055 106.000000 0.004216 172.000000 -0.044076
270615.000000 1.699060 275.000000 283.000000 185.000000 -0.053044 223.000000 0.187064 258.000000 -0.094734 265.000000 -0.242915 16.000000 0.046536 113.000000 -0.003528 185.000000 -0.053044
270898.000000 1.707195 283.000000 283.000000 108.000000 -0.022274 226.000000 0.184555 253.000000 -0.107759 266.000000 -0.273258 15.000000 0.025815 118.000000 0.001363 225.000000 0.180119
271181.000000 1.734358 283.000000 280.000000 109.000000 -0.031771 221.000000 0.216601 246.000000 -0.083573 260.000000 -0.145783 14.000000 0.061193 112.000000 -0.005784 221.000000 0.216601
272013.000000 1.714734 281.000000 272.000000 174.000000 -0.095578 213.000000 0.198811 241.000000 -0.121710 254.000000 -0.262353 14.000000 0.025299 107.000000 -0.013415 174.000000 -0.095578
272560.000000 1.730392 275.000000 283.000000 186.000000 -0.041475 223.000000 0.198586 234.000000 0.121190 270.000000 -0.244716 14.000000 0.052445 114.000000 0.005862 187.000000 -0.041506
272843.000000 1.772480 283.000000 278.000000 197.000000 -0.027162 217.000000 0.212353 224.000000 0.192228 259.000000 -0.177819 10.000000 0.102588 108.000000 -0.004281 116.000000 -0.027697
273681.000000 1.744028 284.000000 307.000000 217.000000 -0.048857 249.000000 0.172117 271.000000 -0.082679 281.000000 -0.087882 18.000000 -0.039437 110.000000 0.016268 111.000000 0.001864
274568.000000 1.710125 286.000000 290.000000 146.000000 -0.173275 228.000000 0.189204 255.000000 -0.084984 270.000000 -0.175377 18.000000 -0.047460 112.000000 -0.002711 121.000000 -0.027303
275146.000000 1.772134 288.000000 292.000000 197.000000 -0.055203 229.000000 0.207713 239.000000 0.141255 272.000000 -0.199125 15.000000 0.073669 109.000000 -0.002397 178.000000 -0.072790
276283.000000 1.697602 282.000000 278.000000 109.000000 -0.035815 221.000000 0.211821 245.000000 -0.089797 259.000000 -0.136633 19.000000 -0.096521 112.000000 -0.000877 221.000000 0.211821
277386.000000 1.705779 270.000000 264.000000 124.000000 -0.083822 208.000000 0.182586 236.000000 -0.114015 246.000000 -0.195692 18.000000 -0.011302 99.000000 -0.020577 124.000000 -0.083822
277650.000000 1.663651 264.000000 271.000000 141.000000 -0.154764 212.000000 0.197807 219.000000 0.174077 251.000000 -0.129467 16.000000 0.046992 101.000000 -0.010124 104.000000 -0.028306
277921.000000 1.733465 271.000000 267.000000 143.000000 -0.148917 214.000000 0.177321 237.000000 -0.099686 249.000000 -0.179747 17.000000 0.006269 106.000000 -0.034874 127.000000 -0.129389
278188.000000 1.743041 267.000000 263.000000 140.000000 -0.152758 201.000000 0.195577 202.000000 0.194981 244.000000 -0.179624 15.000000 0.045816 94.000000 -0.025672 101.000000 -0.037867
278451.000000 1.664155 263.000000 270.000000 191.000000 -0.011077 213.000000 0.203843 236.000000 -0.071079 253.000000 -0.289528 16.000000 0.064139 105.000000 0.004045 179.000000 -0.048114
278721.000000 1.679137 270.000000 278.000000 192.000000 -0.069048 219.000000 0.194715 232.000000 0.115295 274.000000 1.449625 16.000000 0.052397 111.000000 0.011709 178.000000 -0.082919
278999.000000 1.711051 278.000000 275.000000 106.000000 -0.030080 218.000000 0.205060 249.000000 -0.075202 256.000000 -0.171517 6.000000 1.053559 108.000000 -0.002996 217.000000 0.200624
279548.000000 1.684591 274.000000 284.000000 176.000000 -0.072005 220.000000 0.198121 222.000000 0.177855 264.000000 -0.164983 19.000000 -0.069499 113.000000 0.026411 176.000000 -0.072005
279832.000000 1.634374 284.000000 275.000000 180.000000 -0.068625 214.000000 0.179791 216.000000 0.169211 257.000000 -0.179559 18.000000 -0.009214 105.000000 0.008352 114.000000 -0.066020
280390.000000 1.727022 283.000000 272.000000 179.000000 -0.063951 208.000000 0.203994 218.000000 0.140592 255.000000 -0.210000 15.000000 0.104106 100.000000 -0.012931 111.000000 -0.049905
280938.000000 1.715909 276.000000 281.000000 183.000000 -0.070905 223.000000 0.187448 224.000000 0.181837 260.000000 -0.103544 14.000000 -0.007352 105.000000 0.010472 183.000000 -0.070905
282334.000000 1.680068 273.000000 275.000000 199.000000 0.022487 218.000000 0.185481 228.000000 0.087409 258.000000 -0.241271 14.000000 0.051052 103.000000 -0.008400 112.000000 -0.040972
282609.000000 1.660502 275.000000 279.000000 197.000000 -0.020437 219.000000 0.176898 220.000000 0.161318 261.000000 -0.187474 15.000000 0.056036 113.000000 0.010719 197.000000 -0.020437
282888.000000 1.740345 279.000000 271.000000 124.000000 -0.086724 206.000000 0.188245 210.000000 0.165627 254.000000 -0.246068 16.000000 0.111300 108.000000 0.001598 112.000000 -0.032383
283159.000000 1.660674 271.000000 266.000000 177.000000 -0.041722 210.000000 0.207415 213.000000 0.190941 249.000000 -0.198026 14.000000 0.081427 103.000000 0.018010 178.000000 -0.041392
283425.000000 1.679183 266.000000 272.000000 174.000000 -0.051611 210.000000 0.168955 246.000000 -0.117173 258.000000 -0.235186 15.000000 0.045359 103.000000 0.018826 176.000000 -0.085029
284242.000000 1.746333 272.000000 270.000000 165.000000 -0.089401 212.000000 0.204986 235.000000 -0.079515 250.000000 -0.174607 18.000000 -0.022807 99.000000 -0.000999 103.000000 -0.007064
284780.000000 1.622006 268.000000 266.000000 102.000000 -0.028761 210.000000 0.180828 238.000000 -0.081822 246.000000 -0.131868 18.000000 0.062804 103.000000 -0.007507 207.000000 0.146910
285310.000000 1.665191 264.000000 270.000000 104.000000 -0.007302 209.000000 0.197063 211.000000 0.176108 252.000000 -0.205063 10.000000 0.041241 102.000000 0.006145 126.000000 -0.068777
285580.000000 1.738842 270.000000 274.000000 181.000000 -0.036334 216.000000 0.193853 233.000000 -0.022230 255.000000 -0.179188 17.000000 0.069157 110.000000 0.012242 135.000000 -0.092726
286376.000000 1.636257 260.000000 275.000000 105.000000 0.035062 213.000000 0.174416 223.000000 0.099793 249.000000 -0.088526 15.000000 0.059173 105.000000 0.035062 215.000000 0.173507
286651.000000 1.651851 275.000000 266.000000 174.000000 -0.072550 210.000000 0.175663 242.000000 -0.107271 254.000000 -0.174011 22.000000 -0.186662 95.000000 -0.025096 99.000000 -0.051789
286917.000000 1.637429 266.000000 269.000000 190.000000 -0.022805 211.000000 0.198340 228.000000 -0.052649 248.000000 -0.087698 10.000000 0.042915 103.000000 -0.004200 172.000000 -0.099309
287731.000000 1.651439 273.000000 267.000000 182.000000 -0.033193 212.000000 0.171399 243.000000 -0.097473 261.000000 1.091914 21.000000 -0.164642 104.000000 -0.010316 182.000000 -0.033193
288548.000000 1.634844 275.000000 267.000000 102.000000 -0.029906 211.000000 0.184777 212.000000 0.164135 248.000000 -0.143716 16.000000 0.051019 105.000000 -0.021222 209.000000 0.176063
288815.000000 1.598843 267.000000 274.000000 175.000000 -0.058591 211.000000 0.169480 213.000000 0.163649 256.000000 -0.223859 19.000000 -0.043242 106.000000 0.016128 127.000000 -0.092555
289089.000000 1.647461 274.000000 262.000000 176.000000 -0.073085 204.000000 0.189107 231.000000 -0.106459 242.000000 -0.133402 16.000000 0.061080 105.000000 -0.023008 124.000000 -0.106659
289351.000000 1.671441 262.000000 274.000000 181.000000 -0.032784 212.000000 0.179473 217.000000 0.171996 254.000000 -0.173101 15.000000 0.047727 109.000000 0.028152 181.000000 -0.032784
290422.000000 1.649093 267.000000 285.000000 193.000000 -0.053853 224.000000 0.201851 225.000000 0.196224 268.000000 -0.212287 15.000000 0.032588 117.000000 0.022195 193.000000 -0.053853
291803.000000 1.606741 266.000000 276.000000 186.000000 -0.053194 215.000000 0.176006 218.000000 0.155348 257.000000 -0.168573 19.000000 -0.046566 105.000000 0.018853 107.000000 0.009747
292619.000000 1.707056 275.000000 266.000000 99.000000 -0.036036 205.000000 0.194818 210.000000 0.166761 248.000000 -0.182583 15.000000 0.071428 105.000000 -0.031912 208.000000 0.158125
292885.000000 1.719342 266.000000 264.000000 129.000000 -0.087524 204.000000 0.189299 238.000000 -0.087036 245.000000 -0.183525 15.000000 0.090845 102.000000 -0.019862 112.000000 -0.087730
293414.000000 1.586865 265.000000 269.000000 139.000000 -0.119406 211.000000 0.187984 238.000000 -0.094149 249.000000 -0.136093 23.000000 -0.182526 103.000000 -0.014656 105.000000 -0.025706
293945.000000 1.639390 262.000000 268.000000 102.000000 -0.040439 211.000000 0.194251 234.000000 -0.093040 248.000000 -0.122100 15.000000 0.093119 99.000000 -0.015000 103.000000 -0.023307
294492.000000 1.664721 279.000000 266.000000 171.000000 -0.093071 211.000000 0.190126 212.000000 0.174467 248.000000 -0.186225 15.000000 0.076680 103.000000 -0.010108 171.000000 -0.093071
294758.000000 1.597396 266.000000 279.000000 187.000000 -0.042648 223.000000 0.177398 251.000000 -0.081412 260.000000 -0.120079 15.000000 0.050768 104.000000 0.012872 113.000000 -0.016313
295318.000000 1.705003 281.000000 288.000000 193.000000 -0.038163 229.000000 0.194674 244.000000 0.057401 269.000000 -0.119011 17.000000 0.050426 117.000000 0.003009 119.000000 -0.007884
295606.000000 1.720532 288.000000 282.000000 176.000000 -0.085673 219.000000 0.196006 222.000000 0.159909 264.000000 -0.137082 15.000000 0.126174 107.000000 0.002960 118.000000 -0.016523
295888.000000 1.662054 282.000000 282.000000 190.000000 -0.061007 223.000000 0.206015 233.000000 0.117536 264.000000 -0.175109 16.000000 0.067555 115.000000 0.029908 190.000000 -0.061007
296170.000000 1.701586 282.000000 291.000000 191.000000 -0.045362 228.000000 0.172019 230.000000 0.156282 273.000000 -0.220175 16.000000 0.046462 117.000000 0.017805 191.000000 -0.045362
296461.000000 1.707352 291.000000 285.000000 191.000000 -0.052866 224.000000 0.185596 226.000000 0.159640 266.000000 -0.174203 14.000000 0.010486 104.000000 0.003828 111.000000 -0.018461
296746.000000 1.731895 285.000000 292.000000 186.000000 -0.080423 229.000000 0.197618 234.000000 0.160690 273.000000 -0.217540 17.000000 0.030281 108.000000 0.011520 121.000000 0.004606
297324.000000 1.665377 286.000000 280.000000 109.000000 0.004971 217.000000 0.187665 221.000000 0.160001 262.000000 -0.207756 15.000000 0.072949 107.000000 0.023920 109.000000 0.004971
298155.000000 1.677336 270.000000 283.000000 189.000000 -0.068326 225.000000 0.164420 250.000000 -0.101882 264.000000 -0.187760 19.000000 -0.061380 105.000000 0.026240 106.000000 0.022431
298438.000000 1.745219 283.000000 269.000000 123.000000 -0.094702 208.000000 0.225513 245.000000 -0.065253 251.000000 -0.265440 21.000000 -0.184203 99.000000 -0.005110 123.000000 -0.094702
298707.000000 1.628840 269.000000 261.000000 128.000000 -0.117539 203.000000 0.185844 231.000000 -0.093760 244.000000 -0.201909 6.000000 0.995502 95.000000 -0.029357 99.000000 -0.062115
298968.000000 1.651462 261.000000 269.000000 170.000000 -0.079184 205.000000 0.190691 219.000000 0.096316 250.000000 -0.158700 8.000000 0.744596 109.000000 -0.008511 170.000000 -0.079184
299237.000000 1.664544 269.000000 270.000000 189.000000 -0.022194 212.000000 0.200065 216.000000 0.159062 250.000000 -0.122004 16.000000 0.032161 102.000000 0.019797 104.000000 -0.003463
299507.000000 1.726710 270.000000 265.000000 170.000000 -0.086313 205.000000 0.181257 230.000000 -0.080643 247.000000 -0.167368 18.000000 -0.071285 98.000000 -0.033197 109.000000 -0.062963
299772.000000 1.747271 265.000000 258.000000 129.000000 -0.101048 205.000000 0.196392 227.000000 -0.077168 236.000000 -0.111118 17.000000 0.047647 95.000000 -0.046205 96.000000 -0.060876
300297.000000 1.588778 267.000000 267.000000 173.000000 -0.051048 206.000000 0.195660 208.000000 0.179751 248.000000 -0.185266 23.000000 -0.186422 103.000000 -0.021770 173.000000 -0.051048
301086.000000 1.744389 259.000000 269.000000 175.000000 -0.067080 211.000000 0.216242 238.000000 -0.077398 248.000000 -0.154404 15.000000 0.088682 103.000000 0.007212 125.000000 -0.096989
301611.000000 1.679405 256.000000 263.000000 118.000000 -0.059108 204.000000 0.196933 233.000000 -0.133211 246.000000 -0.228870 15.000000 0.056114 97.000000 0.005610 105.000000 -0.045879
301874.000000 1.692461 263.000000 265.000000 133.000000 -0.109262 203.000000 0.183704 206.000000 0.162451 244.000000 -0.121783 14.000000 0.029421 107.000000 -0.023589 121.000000 -0.090408
302139.000000 1.706787 265.000000 267.000000 174.000000 -0.088181 214.000000 0.181040 237.000000 -0.084603 250.000000 -0.186219 22.000000 -0.152056 108.000000 -0.018497 174.000000 -0.088181
302406.000000 1.692837 267.000000 263.000000 100.000000 -0.033402 202.000000 0.179486 204.000000 0.173577 244.000000 -0.163337 16.000000 0.066674 102.000000 -0.027383 204.000000 0.173577
302669.000000 1.717053 263.000000 260.000000 116.000000 -0.072257 201.000000 0.199244 230.000000 -0.095157 242.000000 -0.210486 16.000000 0.073827 95.000000 -0.051394 105.000000 -0.070126
303188.000000 1.623733 259.000000 261.000000 127.000000 -0.079027 200.000000 0.190018 216.000000 0.043854 242.000000 -0.177949 16.000000 0.054157 103.000000 -0.032961 127.000000 -0.079027
303709.000000 1.713259 260.000000 257.000000 170.000000 -0.057441 204.000000 0.173468 230.000000 -0.100313 241.000000 -0.273198 17.000000 -0.001241 95.000000 -0.042150 122.000000 -0.095345
303966.000000 1.717963 257.000000 259.000000 118.000000 -0.071911 199.000000 0.223842 200.000000 0.218183 239.000000 -0.162651 17.000000 0.065392 93.000000 -0.024733 97.000000 -0.037664
305023.000000 1.716131 269.000000 278.000000 183.000000 -0.075566 214.000000 0.199871 247.000000 -0.115723 260.000000 -0.226048 16.000000 0.026492 103.000000 0.011552 183.000000 -0.075566
305301.000000 1.712462 278.000000 280.000000 139.000000 -0.112022 222.000000 0.186379 249.000000 -0.114439 261.000000 -0.201507 16.000000 0.108762 106.000000 0.030046 113.000000 0.007461
305581.000000 1.699169 280.000000 277.000000 178.000000 -0.088480 219.000000 0.197113 229.000000 0.105876 258.000000 -0.152635 16.000000 0.070314 111.000000 -0.009514 178.000000 -0.088480
305858.000000 1.686615 277.000000 279.000000 143.000000 -0.174780 218.000000 0.187550 219.000000 0.182064 261.000000 -0.216412 16.000000 0.077573 110.000000 0.011489 132.000000 -0.125815
306137.000000 1.708260 279.000000 294.000000 194.000000 -0.050093 230.000000 0.190222 236.000000 0.154438 277.000000 -0.201377 15.000000 0.091772 118.000000 0.026507 209.000000 -0.050938
306431.000000 1.728498 294.000000 283.000000 187.000000 -0.044719 223.000000 0.190519 224.000000 0.180033 265.000000 -0.200513 15.000000 0.104218 103.000000 -0.010095 109.000000 -0.046991
306714.000000 1.757164 283.000000 288.000000 203.000000 -0.046272 227.000000 0.190044 229.000000 0.183555 276.000000 -0.180692 22.000000 -0.178105 119.000000 -0.004294 190.000000 -0.042636
307002.000000 1.729231 288.000000 294.000000 184.000000 -0.061503 230.000000 0.178279 238.000000 0.132432 275.000000 -0.212853 10.000000 0.087727 105.000000 0.002317 107.000000 -0.011805
307578.000000 1.754310 282.000000 287.000000 204.000000 -0.026129 226.000000 0.210360 234.000000 0.112334 268.000000 -0.149862 15.000000 0.074216 119.000000 0.018510 180.000000 -0.037210
307865.000000 1.765720 287.000000 292.000000 205.000000 -0.044439 230.000000 0.184261 232.000000 0.163399 272.000000 -0.128227 15.000000 0.098840 108.000000 0.002946 121.000000 -0.008745
308442.000000 1.704815 285.000000 276.000000 172.000000 -0.076664 213.000000 0.195827 216.000000 0.184525 256.000000 -0.179345 15.000000 0.078358 106.000000 0.012052 141.000000 -0.144234
308997.000000 1.673307 279.000000 289.000000 193.000000 -0.059783 225.000000 0.175779 227.000000 0.165560 269.000000 -0.116002 6.000000 0.986192 105.000000 0.027475 107.000000 0.014277
309286.000000 1.741321 289.000000 281.000000 186.000000 -0.039706 223.000000 0.210466 252.000000 -0.090281 264.000000 -0.254247 15.000000 0.065176 111.000000 -0.011159 186.000000 -0.039706
309567.000000 1.680769 281.000000 290.000000 189.000000 -0.075741 232.000000 0.194337 257.000000 -0.073966 272.000000 -0.186520 14.000000 0.068889 111.000000 0.007113 123.000000 -0.001429
309857.000000 1.717336 290.000000 285.000000 191.000000 -0.047226 227.000000 0.177900 252.000000 -0.103133 267.000000 -0.192630 14.000000 0.042743 110.000000 0.015265 143.000000 -0.157430
310142.000000 1.685957 285.000000 295.000000 198.000000 -0.047426 233.000000 0.185726 234.000000 0.175334 276.000000 -0.177896 15.000000 0.086647 113.000000 0.005642 123.000000 -0.019781
311002.000000 1.657444 280.000000 293.000000 201.000000 -0.037740 236.000000 0.178640 264.000000 -0.090904 274.000000 -0.144463 11.000000 -0.050534 105.000000 0.005501 114.000000 -0.027699
311295.000000 1.649516 293.000000 292.000000 205.000000 -0.073218 233.000000 0.197691 260.000000 -0.100019 271.000000 -0.130773 15.000000 0.089626 113.000000 0.010255 182.000000 -0.082823
312143.000000 1.656128 280.000000 286.000000 190.000000 -0.041206 224.000000 0.210407 225.000000 0.199827 267.000000 -0.233655 7.000000 1.003307 116.000000 -0.012003 117.000000 -0.018272
312970.000000 1.670596 269.000000 284.000000 168.000000 -0.091001 224.000000 0.173045 246.000000 -0.095106 264.000000 -0.145436 15.000000 0.036223 118.000000 0.015280 168.000000 -0.091001
313521.000000 1.726851 267.000000 263.000000 100.000000 -0.043777 203.000000 0.203512 205.000000 0.197509 243.000000 -0.168936 17.000000 0.013246 97.000000 -0.028542 100.000000 -0.043777
314053.000000 1.639155 269.000000 271.000000 178.000000 -0.061705 213.000000 0.189939 240.000000 -0.112885 253.000000 -0.236099 19.000000 -0.034812 103.000000 -0.005172 105.000000 -0.028948
314324.000000 1.676316 271.000000 261.000000 98.000000 -0.026800 206.000000 0.198899 222.000000 -0.080600 241.000000 -0.178846 16.000000 0.059075 98.000000 -0.026800 199.000000 0.143132
315113.000000 1.619421 266.000000 263.000000 171.000000 -0.080649 208.000000 0.173507 235.000000 -0.133244 247.000000 -0.254936 17.000000 0.068560 100.000000 -0.029153 103.000000 -0.047554
315376.000000 1.648609 263.000000 266.000000 174.000000 -0.058893 209.000000 0.177299 231.000000 -0.061901 248.000000 -0.279830 14.000000 0.047902 104.000000 -0.010704 174.000000 -0.058893
315903.000000 1.636617 261.000000 268.000000 103.000000 -0.001173 211.000000 0.186656 240.000000 -0.116021 249.000000 -0.151163 15.000000 0.025081 102.000000 0.001240 114.000000 -0.045375
316171.000000 1.641929 268.000000 261.000000 98.000000 -0.051270 206.000000 0.192835 233.000000 -0.087302 243.000000 -0.185578 17.000000 0.037853 99.000000 -0.035642 205.000000 0.163463
317226.000000 1.677196 269.000000 262.000000 98.000000 -0.049529 197.000000 0.214046 198.000000 0.208529 250.000000 -0.137632 16.000000 0.079280 102.000000 -0.048353 198.000000 0.208529
318002.000000 1.649723 258.000000 268.000000 104.000000 -0.024152 212.000000 0.198289 227.000000 -0.053058 249.000000 -0.127886 7.000000 0.998672 105.000000 -0.022600 207.000000 0.170813
318270.000000 1.653011 268.000000 265.000000 174.000000 -0.054406 209.000000 0.173198 236.000000 -0.117949 245.000000 -0.129972 17.000000 0.044501 102.000000 0.007132 125.000000 -0.076801
318535.000000 1.684843 265.000000 261.000000 174.000000 -0.070347 205.000000 0.177054 225.000000 -0.076221 241.000000 -0.144778 19.000000 -0.030078 99.000000 -0.046677 101.000000 -0.056457
319055.000000 1.662276 259.000000 264.000000 173.000000 -0.048198 204.000000 0.174764 207.000000 0.158823 247.000000 -0.160254 17.000000 0.022810 97.000000 -0.016582 105.000000 -0.055376
319583.000000 1.656112 264.000000 266.000000 173.000000 -0.071598 205.000000 0.183935 215.000000 0.120251 247.000000 -0.214407 14.000000 0.044216 98.000000 0.000472 101.000000 -0.026285
319849.000000 1.664902 266.000000 273.000000 141.000000 -0.134763 214.000000 0.192018 241.000000 -0.086817 253.000000 -0.126065 15.000000 0.084450 108.000000 0.008436 141.000000 -0.134763
320649.000000 1.643091 264.000000 268.000000 170.000000 -0.072164 208.000000 0.208837 236.000000 -0.091144 249.000000 -0.169701 16.000000 0.067763 102.000000 -0.011474 109.000000 -0.027664
320917.000000 1.657808 268.000000 275.000000 110.000000 0.002572 215.000000 0.187528 221.000000 0.113200 254.000000 -0.119528 16.000000 0.081585 108.000000 0.023121 132.000000 -0.082304
321192.000000 1.701020 275.000000 259.000000 97.000000 -0.036287 205.000000 0.197213 233.000000 -0.116471 243.000000 -0.243743 16.000000 0.066412 98.000000 -0.035755 201.000000 0.169518
321451.000000 1.609515 259.000000 264.000000 169.000000 -0.092146 207.000000 0.173250 208.000000 0.167702 246.000000 -0.180734 15.000000 0.058794 103.000000 -0.023043 169.000000 -0.092146
321715.000000 1.645676 264.000000 261.000000 120.000000 -0.121299 198.000000 0.197305 200.000000 0.181538 242.000000 -0.213008 17.000000 0.001552 99.000000 -0.023354 120.000000 -0.121299
322235.000000 1.663701 259.000000 262.000000 170.000000 -0.061787 202.000000 0.175487 206.000000 0.163748 249.000000 -0.256156 15.000000 0.102758 100.000000 -0.009923 159.000000 -0.103244
322497.000000 1.633498 262.000000 266.000000 175.000000 -0.056880 205.000000 0.162321 208.000000 0.150880 249.000000 -0.247363 11.000000 -0.026878 100.000000 -0.019657 112.000000 -0.068698
322763.000000 1.656555 266.000000 271.000000 106.000000 -0.054231 209.000000 0.169817 211.000000 0.164034 252.000000 -0.179492 15.000000 0.090270 99.000000 -0.019734 106.000000 -0.054231
323294.000000 1.664216 260.000000 264.000000 142.000000 -0.129168 204.000000 0.193029 230.000000 -0.083492 247.000000 -0.240814 14.000000 0.066395 104.000000 -0.006143 124.000000 -0.103730
