135.000000 1.661661 135.000000 232.000000 155.000000 -0.015611 189.000000 0.182336 210.000000 -0.068902 216.000000 -0.071881 16.000000 -0.159109 96.000000 -0.000503 108.000000 -0.040453
606.000000 1.721778 239.000000 235.000000 137.000000 -0.038995 186.000000 0.169907 212.000000 -0.086784 213.000000 -0.102066 18.000000 -0.183020 102.000000 -0.018116 123.000000 -0.085047
841.000000 1.697233 235.000000 242.000000 172.000000 -0.025614 191.000000 0.181016 220.000000 -0.108355 224.000000 -0.109922 18.000000 -0.167689 109.000000 -0.006283 123.000000 -0.043810
1327.000000 1.642913 244.000000 236.000000 156.000000 -0.037460 186.000000 0.180078 217.000000 -0.113148 217.000000 -0.113148 13.000000 -0.081790 137.000000 -0.005674 143.000000 -0.054780
2528.000000 1.593273 238.000000 231.000000 147.000000 0.021508 186.000000 0.197120 209.000000 -0.055454 215.000000 -0.086583 17.000000 -0.165333 135.000000 0.012086 147.000000 0.021508
2759.000000 1.706831 231.000000 235.000000 154.000000 -0.046360 185.000000 0.171901 216.000000 -0.093349 222.000000 -0.137692 15.000000 -0.057544 133.000000 -0.026597 139.000000 -0.062678
2994.000000 1.669581 235.000000 233.000000 145.000000 -0.065411 185.000000 0.187427 212.000000 -0.076818 215.000000 -0.107633 8.000000 -0.063712 102.000000 -0.022900 126.000000 -0.057118
3227.000000 1.637749 233.000000 237.000000 129.000000 -0.069890 191.000000 0.176099 215.000000 -0.091928 219.000000 -0.074750 15.000000 -0.109068 109.000000 -0.006505 129.000000 -0.069890
3704.000000 1.697742 240.000000 234.000000 146.000000 -0.052399 186.000000 0.176521 210.000000 -0.085076 217.000000 -0.094872 17.000000 -0.123656 99.000000 -0.031618 123.000000 -0.043372
3938.000000 1.695755 234.000000 228.000000 151.000000 -0.062148 182.000000 0.181238 205.000000 -0.072258 207.000000 -0.093355 17.000000 -0.182960 130.000000 -0.026912 137.000000 -0.080862
4166.000000 1.705436 228.000000 235.000000 169.000000 0.008679 192.000000 0.174684 214.000000 -0.072852 219.000000 -0.066189 15.000000 -0.120474 108.000000 -0.019893 121.000000 -0.066978
4646.000000 1.768943 245.000000 235.000000 148.000000 -0.060280 185.000000 0.178088 211.000000 -0.087822 215.000000 -0.094501 17.000000 -0.151887 140.000000 -0.030500 150.000000 -0.074904
5108.000000 1.617014 227.000000 231.000000 148.000000 -0.027806 185.000000 0.186364 207.000000 -0.064825 211.000000 -0.071627 16.000000 -0.133943 137.000000 -0.006254 148.000000 -0.027806
5339.000000 1.675851 231.000000 234.000000 154.000000 -0.025817 194.000000 0.165188 204.000000 -0.013981 218.000000 -0.064714 20.000000 -0.184085 123.000000 -0.007809 141.000000 -0.048183
5805.000000 1.596636 232.000000 232.000000 116.000000 -0.039734 184.000000 0.201803 210.000000 -0.045064 214.000000 -0.082995 18.000000 -0.161265 124.000000 0.001174 210.000000 -0.045064
6506.000000 1.689110 234.000000 231.000000 148.000000 -0.017632 182.000000 0.189877 209.000000 -0.086847 213.000000 -0.092755 14.000000 -0.081392 134.000000 -0.010406 148.000000 -0.017632
6974.000000 1.688139 237.000000 237.000000 173.000000 -0.014278 191.000000 0.188090 217.000000 -0.067332 217.000000 -0.067332 17.000000 -0.149995 108.000000 -0.005546 116.000000 -0.040264
7909.000000 1.719839 232.000000 234.000000 151.000000 -0.062242 184.000000 0.178431 198.000000 0.023025 219.000000 -0.091597 19.000000 -0.195521 133.000000 -0.040046 151.000000 -0.062242
8380.000000 1.630785 237.000000 242.000000 151.000000 -0.040488 193.000000 0.159702 221.000000 -0.088356 225.000000 -0.100739 15.000000 -0.102539 107.000000 -0.007995 125.000000 -0.074704
8622.000000 1.670125 242.000000 231.000000 160.000000 -0.004042 183.000000 0.181461 205.000000 -0.068569 214.000000 -0.064602 15.000000 -0.112241 95.000000 -0.034685 113.000000 -0.082363
9084.000000 1.780494 231.000000 238.000000 167.000000 -0.005672 195.000000 0.165658 206.000000 -0.025392 220.000000 -0.100846 20.000000 -0.193738 121.000000 -0.041454 133.000000 -0.063462
9322.000000 1.706161 238.000000 246.000000 170.000000 0.012178 198.000000 0.203277 217.000000 -0.075217 228.000000 -0.106705 16.000000 -0.090847 111.000000 -0.030174 122.000000 -0.051145
9568.000000 1.658203 246.000000 237.000000 161.000000 -0.007024 190.000000 0.166360 214.000000 -0.080772 218.000000 -0.076494 17.000000 -0.165103 134.000000 -0.024031 149.000000 -0.045959
9805.000000 1.631515 237.000000 229.000000 142.000000 -0.052288 184.000000 0.183367 210.000000 -0.096431 213.000000 -0.102387 18.000000 -0.179534 136.000000 -0.008322 147.000000 -0.022413
10034.000000 1.623066 229.000000 232.000000 163.000000 -0.025077 184.000000 0.192085 210.000000 -0.080864 211.000000 -0.091225 18.000000 -0.159519 111.000000 -0.003758 116.000000 -0.053272
10266.000000 1.650668 232.000000 237.000000 169.000000 0.009610 189.000000 0.193574 209.000000 -0.047182 221.000000 -0.092622 19.000000 -0.188015 130.000000 0.000033 137.000000 -0.039263
10503.000000 1.652345 237.000000 239.000000 172.000000 -0.004138 192.000000 0.195378 216.000000 -0.081361 220.000000 -0.098039 16.000000 -0.100289 104.000000 -0.016817 113.000000 -0.049340
10982.000000 1.637335 240.000000 229.000000 151.000000 -0.030629 181.000000 0.192225 208.000000 -0.072980 212.000000 -0.104893 18.000000 -0.196489 133.000000 -0.007417 151.000000 -0.030629
11211.000000 1.701862 229.000000 230.000000 164.000000 0.009063 185.000000 0.205832 208.000000 -0.077019 212.000000 -0.068006 18.000000 -0.164847 123.000000 -0.019949 134.000000 -0.021675
11441.000000 1.702450 230.000000 233.000000 120.000000 -0.066632 191.000000 0.175340 205.000000 -0.061448 216.000000 -0.077703 18.000000 -0.170088 100.000000 -0.038275 120.000000 -0.066632
12147.000000 1.618231 231.000000 231.000000 146.000000 -0.034479 184.000000 0.181337 209.000000 -0.085968 213.000000 -0.102709 15.000000 -0.079167 100.000000 -0.012100 129.000000 -0.039730
12378.000000 1.655879 231.000000 231.000000 150.000000 -0.046913 183.000000 0.171160 213.000000 -0.088809 215.000000 -0.089703 18.000000 -0.183683 109.000000 0.004448 116.000000 -0.054407
12844.000000 1.657355 235.000000 229.000000 162.000000 -0.034170 181.000000 0.199168 206.000000 -0.075346 207.000000 -0.076255 17.000000 -0.156859 98.000000 -0.012713 117.000000 -0.074987
13073.000000 1.684890 229.000000 238.000000 143.000000 0.003165 191.000000 0.187947 204.000000 -0.012509 220.000000 -0.077619 18.000000 -0.183336 132.000000 0.003729 143.000000 0.003165
13780.000000 1.739128 233.000000 230.000000 152.000000 -0.076158 182.000000 0.189768 216.000000 -0.135309 219.000000 -0.106689 18.000000 -0.191029 99.000000 -0.031349 121.000000 -0.044437
14250.000000 1.706503 240.000000 239.000000 145.000000 -0.068875 191.000000 0.174702 217.000000 -0.076380 221.000000 -0.103276 18.000000 -0.161067 120.000000 -0.027023 145.000000 -0.068875
14489.000000 1.742777 239.000000 234.000000 150.000000 -0.023666 184.000000 0.173984 210.000000 -0.137115 213.000000 -0.104514 17.000000 -0.173882 108.000000 -0.017787 123.000000 -0.028932
14723.000000 1.671235 234.000000 229.000000 139.000000 -0.018856 183.000000 0.163352 205.000000 -0.070267 210.000000 -0.074514 18.000000 -0.145535 103.000000 0.009061 117.000000 -0.028085
14952.000000 1.741224 229.000000 234.000000 119.000000 -0.079437 186.000000 0.197575 205.000000 -0.082345 217.000000 -0.087533 20.000000 -0.172350 113.000000 -0.024156 121.000000 -0.063214
15892.000000 1.748098 240.000000 229.000000 153.000000 -0.044340 182.000000 0.198497 207.000000 -0.081110 211.000000 -0.108211 13.000000 -0.078091 126.000000 -0.027915 134.000000 -0.036049
16581.000000 1.814744 232.000000 247.000000 149.000000 -0.073303 195.000000 0.201681 224.000000 -0.076968 230.000000 -0.111373 19.000000 -0.173657 129.000000 -0.034558 136.000000 -0.084714
17992.000000 1.899811 236.000000 238.000000 159.000000 0.010740 186.000000 0.198968 218.000000 -0.079242 219.000000 -0.079242 8.000000 -0.083434 101.000000 -0.051094 109.000000 -0.099871
18230.000000 1.786951 238.000000 234.000000 153.000000 -0.025426 187.000000 0.234558 207.000000 -0.057463 217.000000 -0.087824 15.000000 -0.051247 101.000000 -0.020626 122.000000 -0.066334
18697.000000 1.680267 233.000000 230.000000 143.000000 -0.042945 185.000000 0.200674 208.000000 -0.078746 212.000000 -0.066176 16.000000 -0.124012 102.000000 0.004971 111.000000 -0.058179
18927.000000 1.680625 230.000000 244.000000 172.000000 0.038948 193.000000 0.175187 215.000000 -0.075802 225.000000 -0.094879 18.000000 -0.156225 112.000000 -0.016647 127.000000 -0.039890
19171.000000 1.708804 244.000000 233.000000 141.000000 -0.046633 186.000000 0.170094 207.000000 -0.062588 216.000000 -0.062321 16.000000 -0.140021 108.000000 -0.024295 125.000000 -0.072808
19404.000000 1.704563 233.000000 233.000000 168.000000 0.034544 188.000000 0.205497 211.000000 -0.053627 214.000000 -0.069521 14.000000 -0.080029 105.000000 -0.009276 122.000000 -0.049797
19637.000000 1.689837 233.000000 226.000000 154.000000 -0.037286 182.000000 0.162021 203.000000 -0.101838 208.000000 -0.104252 15.000000 -0.104740 100.000000 -0.006911 121.000000 -0.058823
19863.000000 1.699260 226.000000 231.000000 146.000000 -0.032901 181.000000 0.165954 210.000000 -0.066258 215.000000 -0.122670 16.000000 -0.125585 101.000000 -0.014370 115.000000 -0.067460
20094.000000 1.682379 231.000000 227.000000 115.000000 -0.073559 182.000000 0.176739 200.000000 -0.069686 209.000000 -0.070155 16.000000 -0.114061 135.000000 -0.032289 193.000000 -0.015705
20553.000000 1.727965 232.000000 232.000000 151.000000 -0.067366 184.000000 0.177930 211.000000 -0.086709 214.000000 -0.073371 16.000000 -0.112976 107.000000 -0.026771 132.000000 -0.039374
20785.000000 1.678822 232.000000 229.000000 145.000000 -0.046066 178.000000 0.169168 208.000000 -0.090316 214.000000 -0.063013 18.000000 -0.170393 105.000000 -0.027885 122.000000 -0.069139
21014.000000 1.677519 229.000000 224.000000 152.000000 -0.037179 178.000000 0.184277 199.000000 -0.076823 208.000000 -0.085961 18.000000 -0.140865 105.000000 -0.017384 114.000000 -0.039468
21238.000000 1.676656 224.000000 232.000000 151.000000 -0.043135 178.000000 0.159339 200.000000 -0.040957 216.000000 -0.081411 15.000000 -0.114016 106.000000 -0.020640 118.000000 -0.051080
21470.000000 1.679341 232.000000 235.000000 165.000000 0.000254 188.000000 0.195941 208.000000 -0.084199 219.000000 -0.104263 16.000000 -0.084155 106.000000 -0.031548 121.000000 -0.097110
21705.000000 1.781769 235.000000 232.000000 158.000000 0.020312 180.000000 0.212900 207.000000 -0.046424 212.000000 -0.085703 16.000000 -0.116226 134.000000 0.007005 139.000000 -0.041130
22162.000000 1.751770 225.000000 230.000000 150.000000 -0.098683 181.000000 0.167460 188.000000 0.127617 211.000000 -0.119029 16.000000 -0.146488 121.000000 -0.074704 150.000000 -0.098683
22392.000000 1.676034 230.000000 232.000000 169.000000 0.008995 187.000000 0.184136 202.000000 -0.012714 214.000000 -0.055269 22.000000 -0.212040 115.000000 -0.041114 123.000000 -0.081586
22624.000000 1.775970 232.000000 235.000000 168.000000 0.039469 186.000000 0.224045 213.000000 -0.028008 217.000000 -0.029419 15.000000 -0.077682 135.000000 0.013938 146.000000 -0.014165
22859.000000 1.816941 235.000000 238.000000 166.000000 0.029295 189.000000 0.221804 219.000000 -0.062524 222.000000 -0.095188 15.000000 -0.064080 106.000000 -0.023798 122.000000 -0.074799
23097.000000 1.750829 238.000000 229.000000 144.000000 -0.049356 182.000000 0.158355 207.000000 -0.082708 211.000000 -0.118806 18.000000 -0.147025 107.000000 -0.060753 115.000000 -0.110924
23326.000000 1.614203 229.000000 232.000000 139.000000 -0.084027 182.000000 0.207088 200.000000 -0.032426 217.000000 -0.110721 16.000000 -0.177410 128.000000 -0.041221 139.000000 -0.084027
24026.000000 1.659744 240.000000 229.000000 150.000000 -0.036004 190.000000 0.154107 206.000000 -0.105484 209.000000 -0.110672 18.000000 -0.140728 128.000000 -0.040082 150.000000 -0.036004
24255.000000 1.608561 229.000000 231.000000 136.000000 -0.063117 186.000000 0.198385 206.000000 -0.069297 216.000000 -0.070584 16.000000 -0.162712 106.000000 -0.047067 114.000000 -0.072285
24712.000000 1.599002 226.000000 230.000000 131.000000 -0.029328 184.000000 0.225753 210.000000 -0.028982 213.000000 -0.050926 17.000000 -0.134869 136.000000 0.010358 210.000000 -0.028982
24942.000000 1.661551 230.000000 226.000000 152.000000 -0.062353 183.000000 0.193977 199.000000 -0.065130 210.000000 -0.082935 15.000000 -0.036602 100.000000 -0.006082 114.000000 -0.060283
25403.000000 1.554004 235.000000 235.000000 134.000000 -0.045927 192.000000 0.216711 213.000000 -0.052613 221.000000 -0.076625 16.000000 -0.111263 108.000000 -0.002150 122.000000 -0.051759
25638.000000 1.507595 235.000000 229.000000 155.000000 -0.024858 183.000000 0.204173 208.000000 -0.041296 213.000000 -0.073098 14.000000 -0.059444 103.000000 0.020658 115.000000 -0.030380
25867.000000 1.597106 229.000000 224.000000 153.000000 -0.011860 178.000000 0.195446 204.000000 -0.076154 207.000000 -0.076514 17.000000 -0.119338 99.000000 0.027710 113.000000 -0.016989
26329.000000 1.622251 238.000000 240.000000 154.000000 -0.005471 193.000000 0.185860 205.000000 0.045702 215.000000 -0.058626 17.000000 -0.139081 128.000000 -0.031678 137.000000 -0.072650
27259.000000 1.642519 230.000000 231.000000 130.000000 -0.051736 184.000000 0.195751 211.000000 -0.064329 215.000000 -0.112667 14.000000 -0.082292 111.000000 -0.026692 130.000000 -0.051736
27490.000000 1.648540 231.000000 234.000000 148.000000 -0.047903 192.000000 0.205798 211.000000 -0.080047 216.000000 -0.039122 16.000000 -0.120333 137.000000 -0.021161 148.000000 -0.047903
27964.000000 1.705497 240.000000 231.000000 123.000000 -0.066159 182.000000 0.169910 207.000000 -0.077659 211.000000 -0.073113 15.000000 -0.103827 137.000000 -0.037098 207.000000 -0.077659
28195.000000 1.751323 231.000000 228.000000 154.000000 -0.053326 184.000000 0.193163 205.000000 -0.062307 210.000000 -0.074047 19.000000 -0.174541 135.000000 -0.031462 154.000000 -0.053326
28423.000000 1.642490 228.000000 232.000000 128.000000 -0.057774 184.000000 0.182213 210.000000 -0.082838 215.000000 -0.124328 16.000000 -0.120410 137.000000 -0.014937 210.000000 -0.082838
28896.000000 1.635408 241.000000 232.000000 146.000000 -0.023353 182.000000 0.183744 210.000000 -0.077757 215.000000 -0.065578 17.000000 -0.124057 131.000000 -0.013087 146.000000 -0.023353
29128.000000 1.601227 232.000000 229.000000 152.000000 -0.039121 184.000000 0.164235 210.000000 -0.068903 213.000000 -0.070847 16.000000 -0.140842 106.000000 0.011742 118.000000 -0.031018
29357.000000 1.615263 229.000000 231.000000 155.000000 -0.032431 186.000000 0.191835 209.000000 -0.077208 213.000000 -0.064543 16.000000 -0.107840 105.000000 -0.013812 117.000000 -0.047245
29825.000000 1.610207 237.000000 231.000000 150.000000 -0.025362 180.000000 0.170546 211.000000 -0.082572 211.000000 -0.082572 20.000000 -0.162583 98.000000 -0.024606 114.000000 -0.062634
30056.000000 1.647839 231.000000 235.000000 152.000000 -0.025424 186.000000 0.176457 211.000000 -0.088278 216.000000 -0.095049 16.000000 -0.095120 111.000000 -0.005549 129.000000 -0.048310
30291.000000 1.590138 235.000000 232.000000 149.000000 -0.033247 184.000000 0.182289 210.000000 -0.067290 210.000000 -0.067290 18.000000 -0.168058 118.000000 -0.011819 128.000000 -0.056005
30755.000000 1.693307 232.000000 226.000000 145.000000 -0.000204 176.000000 0.176176 193.000000 0.003712 206.000000 -0.056382 18.000000 -0.165438 107.000000 0.002634 114.000000 -0.056113
31217.000000 1.650554 236.000000 236.000000 148.000000 -0.051269 189.000000 0.185032 214.000000 -0.067238 218.000000 -0.095467 16.000000 -0.118318 114.000000 -0.030846 123.000000 -0.072555
31685.000000 1.772434 232.000000 224.000000 148.000000 -0.037238 176.000000 0.192324 204.000000 -0.071314 208.000000 -0.090514 18.000000 -0.160294 129.000000 -0.045919 148.000000 -0.037238
31909.000000 1.828576 224.000000 230.000000 148.000000 -0.063118 181.000000 0.182524 205.000000 -0.064717 210.000000 -0.109780 18.000000 -0.195800 100.000000 -0.047271 114.000000 -0.082019
32139.000000 1.704279 230.000000 228.000000 137.000000 -0.063444 182.000000 0.180866 206.000000 -0.072364 210.000000 -0.088289 19.000000 -0.171348 106.000000 -0.012037 112.000000 -0.034904
32367.000000 1.652195 228.000000 236.000000 144.000000 -0.020754 188.000000 0.182320 204.000000 -0.017587 220.000000 -0.111524 17.000000 -0.185094 109.000000 -0.025594 118.000000 -0.057946
32837.000000 1.715398 234.000000 229.000000 147.000000 -0.048811 180.000000 0.167068 209.000000 -0.061147 211.000000 -0.057825 16.000000 -0.124838 106.000000 -0.021616 116.000000 -0.061256
33290.000000 1.774892 224.000000 229.000000 150.000000 -0.013396 181.000000 0.206149 201.000000 -0.043523 214.000000 -0.090170 17.000000 -0.174606 98.000000 -0.028147 108.000000 -0.060327
33519.000000 1.764718 229.000000 238.000000 145.000000 -0.060313 187.000000 0.158105 192.000000 0.136882 221.000000 -0.129343 16.000000 -0.097809 141.000000 -0.057036 148.000000 -0.089200
33988.000000 1.638716 231.000000 228.000000 123.000000 -0.067508 189.000000 0.189528 207.000000 -0.072163 212.000000 -0.053542 12.000000 -0.112288 132.000000 -0.017178 186.000000 0.178353
34216.000000 1.763417 228.000000 225.000000 147.000000 -0.004794 179.000000 0.220880 205.000000 -0.047868 208.000000 -0.072179 18.000000 -0.156129 106.000000 0.016725 117.000000 -0.009058
35140.000000 1.711194 235.000000 234.000000 163.000000 0.022867 188.000000 0.204232 213.000000 -0.045859 214.000000 -0.051925 18.000000 -0.171784 108.000000 -0.035346 129.000000 -0.039405
35374.000000 1.784614 234.000000 231.000000 142.000000 -0.038944 183.000000 0.211979 193.000000 0.182777 215.000000 -0.080017 16.000000 -0.108979 112.000000 -0.009701 126.000000 -0.025013
35832.000000 1.735156 227.000000 238.000000 171.000000 0.014028 190.000000 0.169875 213.000000 -0.101032 219.000000 -0.080153 14.000000 -0.040425 110.000000 -0.044358 123.000000 -0.056458
36070.000000 1.717951 238.000000 237.000000 141.000000 -0.064642 190.000000 0.191535 215.000000 -0.071068 220.000000 -0.045644 16.000000 -0.127032 136.000000 -0.032636 144.000000 -0.050864
36307.000000 1.700550 237.000000 235.000000 139.000000 -0.019621 187.000000 0.216113 211.000000 -0.032773 216.000000 -0.083086 16.000000 -0.116266 140.000000 -0.004417 211.000000 -0.032773
36542.000000 1.756588 235.000000 226.000000 149.000000 -0.059940 180.000000 0.177976 204.000000 -0.060880 207.000000 -0.071381 18.000000 -0.185779 131.000000 -0.036822 149.000000 -0.059940
37224.000000 1.681175 226.000000 236.000000 138.000000 -0.028558 187.000000 0.184606 214.000000 -0.068172 217.000000 -0.049599 17.000000 -0.124496 133.000000 -0.023574 141.000000 -0.038589
37695.000000 1.749808 235.000000 228.000000 155.000000 -0.022805 181.000000 0.186065 208.000000 -0.079625 214.000000 -0.102087 16.000000 -0.142776 131.000000 -0.025972 137.000000 -0.059671
37923.000000 1.653555 228.000000 228.000000 149.000000 -0.054232 181.000000 0.199575 206.000000 -0.078734 209.000000 -0.074895 16.000000 -0.115739 108.000000 -0.023341 120.000000 -0.033073
38151.000000 1.715311 228.000000 235.000000 151.000000 -0.030095 186.000000 0.180407 203.000000 -0.011067 210.000000 -0.053105 18.000000 -0.185659 132.000000 -0.026772 138.000000 -0.060549
38628.000000 1.703812 242.000000 233.000000 154.000000 -0.059751 183.000000 0.185186 211.000000 -0.084422 212.000000 -0.094611 17.000000 -0.136878 110.000000 -0.027554 154.000000 -0.059751
39090.000000 1.664206 229.000000 233.000000 169.000000 0.011535 188.000000 0.179026 213.000000 -0.079770 213.000000 -0.079770 15.000000 -0.124823 107.000000 -0.008480 117.000000 -0.034313
39323.000000 1.701281 233.000000 234.000000 166.000000 -0.004467 186.000000 0.187163 213.000000 -0.078999 216.000000 -0.100254 17.000000 -0.146619 102.000000 -0.024155 121.000000 -0.057069
39557.000000 1.693306 234.000000 233.000000 125.000000 -0.056817 182.000000 0.196973 209.000000 -0.079533 215.000000 -0.076995 17.000000 -0.162446 106.000000 -0.023508 125.000000 -0.056817
40025.000000 1.724574 235.000000 236.000000 158.000000 0.021789 190.000000 0.218308 216.000000 -0.025108 218.000000 -0.045907 17.000000 -0.142196 132.000000 -0.017741 138.000000 -0.049011
40261.000000 1.782039 236.000000 233.000000 151.000000 -0.038799 185.000000 0.191937 210.000000 -0.071011 215.000000 -0.105539 13.000000 -0.051429 100.000000 -0.019832 122.000000 -0.062420
40494.000000 1.796424 233.000000 229.000000 119.000000 -0.068964 181.000000 0.194339 200.000000 -0.045599 212.000000 -0.073373 17.000000 -0.167791 105.000000 -0.045343 119.000000 -0.068964
40723.000000 1.798632 229.000000 240.000000 126.000000 -0.090578 189.000000 0.206033 208.000000 -0.044561 224.000000 -0.083229 14.000000 -0.097010 104.000000 -0.038135 126.000000 -0.090578
41440.000000 1.705657 236.000000 229.000000 154.000000 -0.035487 181.000000 0.177476 209.000000 -0.110531 212.000000 -0.082522 18.000000 -0.209718 132.000000 -0.026945 154.000000 -0.035487
41669.000000 1.706210 229.000000 232.000000 144.000000 -0.014783 183.000000 0.203415 207.000000 -0.051398 215.000000 -0.063249 17.000000 -0.139449 132.000000 -0.030520 144.000000 -0.014783
41901.000000 1.789134 232.000000 232.000000 133.000000 -0.067392 184.000000 0.193280 200.000000 -0.014793 211.000000 -0.051268 20.000000 -0.134409 138.000000 -0.006155 200.000000 -0.014793
42133.000000 1.787995 232.000000 237.000000 171.000000 0.016990 190.000000 0.176991 210.000000 -0.064906 219.000000 -0.060547 19.000000 -0.181564 113.000000 -0.041187 128.000000 -0.083180
42613.000000 1.684846 243.000000 230.000000 138.000000 -0.049939 182.000000 0.188918 196.000000 0.028823 212.000000 -0.097443 14.000000 -0.068429 98.000000 -0.044482 121.000000 -0.092759
42843.000000 1.649941 230.000000 226.000000 149.000000 -0.049671 180.000000 0.183966 195.000000 -0.011268 202.000000 -0.058321 17.000000 -0.126532 103.000000 -0.047494 113.000000 -0.059704
43069.000000 1.772293 226.000000 233.000000 116.000000 -0.065001 185.000000 0.220720 212.000000 -0.049236 215.000000 -0.084973 20.000000 -0.166425 138.000000 -0.018416 212.000000 -0.049236
43302.000000 1.786139 233.000000 244.000000 172.000000 0.015646 193.000000 0.196274 222.000000 -0.094241 228.000000 -0.084382 17.000000 -0.125322 131.000000 -0.053003 137.000000 -0.103725
43546.000000 1.803188 244.000000 234.000000 146.000000 -0.086082 185.000000 0.194108 210.000000 -0.055293 216.000000 -0.092063 19.000000 -0.164901 114.000000 -0.054845 127.000000 -0.062853
43780.000000 1.707294 234.000000 228.000000 147.000000 -0.063698 181.000000 0.193826 215.000000 -0.095974 220.000000 0.090249 17.000000 -0.142863 111.000000 -0.041268 121.000000 -0.074074
44469.000000 1.820045 233.000000 233.000000 147.000000 -0.041986 184.000000 0.203544 214.000000 -0.066426 216.000000 -0.101614 15.000000 -0.128372 129.000000 -0.032675 136.000000 -0.094572
44932.000000 1.849999 230.000000 231.000000 129.000000 -0.091692 182.000000 0.194533 209.000000 -0.103022 215.000000 -0.088130 14.000000 -0.025317 109.000000 -0.041758 118.000000 -0.076426
45163.000000 1.633014 231.000000 229.000000 147.000000 -0.058415 180.000000 0.189438 211.000000 -0.113622 213.000000 -0.100298 16.000000 -0.146141 102.000000 -0.026032 113.000000 -0.080483
45611.000000 1.692252 219.000000 229.000000 154.000000 -0.012239 184.000000 0.218357 208.000000 -0.036395 212.000000 -0.039043 21.000000 -0.161696 102.000000 -0.004468 113.000000 -0.048947
45840.000000 1.686001 229.000000 238.000000 166.000000 0.046961 190.000000 0.227870 216.000000 -0.045358 220.000000 -0.037333 16.000000 -0.036101 103.000000 0.001156 118.000000 -0.041538
46078.000000 1.691288 238.000000 234.000000 138.000000 -0.102602 188.000000 0.187069 213.000000 -0.048748 217.000000 -0.087886 18.000000 -0.130455 129.000000 -0.062162 138.000000 -0.102602
46312.000000 1.733573 234.000000 231.000000 116.000000 -0.090441 183.000000 0.203464 213.000000 -0.083195 215.000000 -0.079135 16.000000 -0.136021 133.000000 -0.046867 210.000000 -0.097192
46543.000000 1.640539 231.000000 234.000000 136.000000 -0.068214 183.000000 0.175170 212.000000 -0.065750 218.000000 -0.078804 15.000000 -0.103584 131.000000 -0.034092 136.000000 -0.068214
46777.000000 1.559376 234.000000 233.000000 131.000000 -0.058398 185.000000 0.193325 222.000000 -0.117863 223.000000 -0.093177 15.000000 -0.056441 114.000000 -0.008227 126.000000 -0.029840
47010.000000 1.583499 233.000000 237.000000 151.000000 -0.034873 190.000000 0.177165 218.000000 -0.069667 219.000000 -0.064981 15.000000 -0.074697 107.000000 -0.006051 130.000000 -0.047506
47247.000000 1.563386 237.000000 239.000000 123.000000 -0.022240 191.000000 0.182792 217.000000 -0.063369 221.000000 -0.074811 16.000000 -0.111411 111.000000 -0.007225 123.000000 -0.022240
47486.000000 1.544483 239.000000 230.000000 134.000000 -0.047444 183.000000 0.175551 206.000000 -0.087367 212.000000 -0.085032 16.000000 -0.131503 102.000000 -0.020970 119.000000 -0.057286
48181.000000 1.711596 235.000000 244.000000 124.000000 -0.050591 195.000000 0.210553 216.000000 -0.062253 227.000000 -0.083335 21.000000 -0.185456 112.000000 -0.030373 124.000000 -0.050591
48425.000000 1.695819 244.000000 236.000000 149.000000 -0.032990 186.000000 0.198264 211.000000 -0.062505 214.000000 -0.068320 17.000000 -0.159933 135.000000 -0.042083 149.000000 -0.032990
48661.000000 1.623998 236.000000 232.000000 145.000000 -0.047605 185.000000 0.209670 212.000000 -0.064343 213.000000 -0.074547 15.000000 -0.067052 137.000000 -0.020270 145.000000 -0.047605
48893.000000 1.605425 232.000000 234.000000 153.000000 -0.029343 184.000000 0.186378 210.000000 -0.091865 214.000000 -0.079010 15.000000 -0.082598 109.000000 -0.017773 117.000000 -0.054655
49847.000000 1.666189 241.000000 232.000000 153.000000 -0.026881 184.000000 0.199325 194.000000 0.100439 205.000000 -0.073559 16.000000 -0.099266 104.000000 -0.012963 120.000000 -0.073213
50079.000000 1.712978 232.000000 233.000000 151.000000 -0.038872 185.000000 0.211067 209.000000 -0.089341 215.000000 -0.091630 20.000000 -0.202365 111.000000 -0.019466 119.000000 -0.091254
51258.000000 1.759831 235.000000 230.000000 163.000000 -0.018004 183.000000 0.188282 209.000000 -0.074007 214.000000 -0.095559 15.000000 -0.108288 132.000000 -0.027677 144.000000 -0.029463
51488.000000 1.676134 230.000000 237.000000 147.000000 -0.067540 190.000000 0.186300 212.000000 -0.081241 221.000000 -0.101367 15.000000 -0.095292 141.000000 -0.032274 148.000000 -0.072587
51725.000000 1.605576 237.000000 233.000000 140.000000 -0.046849 184.000000 0.213574 204.000000 -0.047679 216.000000 -0.086721 14.000000 -0.061807 137.000000 -0.016520 140.000000 -0.046849
51958.000000 1.605583 233.000000 240.000000 125.000000 -0.053980 189.000000 0.198038 215.000000 -0.052009 219.000000 -0.085017 16.000000 -0.124309 106.000000 -0.027239 125.000000 -0.053980
52198.000000 1.716866 240.000000 234.000000 162.000000 0.038311 189.000000 0.230239 205.000000 -0.000045 206.000000 -0.010233 19.000000 -0.178261 117.000000 -0.004574 132.000000 -0.035166
52432.000000 1.788524 234.000000 233.000000 142.000000 -0.051909 185.000000 0.210960 211.000000 -0.080123 217.000000 -0.079530 17.000000 -0.112780 101.000000 -0.036023 118.000000 -0.091944
52665.000000 1.783245 233.000000 230.000000 153.000000 -0.014841 182.000000 0.243871 208.000000 -0.064074 213.000000 -0.069340 18.000000 -0.203935 134.000000 -0.050922 153.000000 -0.014841
52895.000000 1.769893 230.000000 244.000000 171.000000 -0.014073 192.000000 0.218217 221.000000 -0.076028 226.000000 -0.077407 18.000000 -0.160028 105.000000 -0.026771 112.000000 -0.092588
53139.000000 1.623848 244.000000 237.000000 148.000000 -0.028666 195.000000 0.198448 211.000000 -0.061664 217.000000 -0.095066 19.000000 -0.158660 126.000000 -0.030611 150.000000 -0.018839
53609.000000 1.701852 233.000000 230.000000 127.000000 -0.063242 181.000000 0.227446 210.000000 -0.059716 211.000000 -0.075280 18.000000 -0.186612 136.000000 -0.008824 167.000000 0.050707
54070.000000 1.800153 231.000000 229.000000 152.000000 -0.019510 180.000000 0.219957 200.000000 -0.041829 214.000000 -0.053586 16.000000 -0.124547 105.000000 -0.047522 111.000000 -0.093524
54299.000000 1.759768 229.000000 235.000000 160.000000 0.015655 187.000000 0.237679 216.000000 -0.071946 216.000000 -0.071946 15.000000 -0.090891 140.000000 -0.025316 169.000000 0.023007
54534.000000 1.736487 235.000000 239.000000 163.000000 0.008026 193.000000 0.224890 218.000000 -0.046535 222.000000 -0.077476 14.000000 -0.044281 111.000000 -0.044058 121.000000 -0.066267
55002.000000 1.613431 229.000000 225.000000 146.000000 -0.014372 178.000000 0.199265 206.000000 -0.048276 209.000000 -0.095000 10.000000 -0.160441 134.000000 -0.022774 147.000000 -0.024669
55227.000000 1.630549 225.000000 236.000000 144.000000 -0.046175 185.000000 0.244499 204.000000 -0.021520 218.000000 -0.076741 15.000000 -0.078008 137.000000 -0.039811 152.000000 -0.044045
55704.000000 1.775606 241.000000 230.000000 139.000000 -0.050190 179.000000 0.213383 210.000000 -0.060925 214.000000 -0.077195 16.000000 -0.126712 137.000000 -0.050159 144.000000 -0.054860
55934.000000 1.689075 230.000000 226.000000 153.000000 -0.037805 179.000000 0.191412 202.000000 -0.048570 206.000000 -0.084274 16.000000 -0.086176 134.000000 -0.058321 157.000000 -0.015988
56160.000000 1.695552 226.000000 230.000000 136.000000 -0.071267 186.000000 0.200380 208.000000 -0.051810 214.000000 -0.078691 16.000000 -0.107269 105.000000 -0.031881 119.000000 -0.071488
56390.000000 1.582530 230.000000 235.000000 169.000000 0.004970 188.000000 0.212620 218.000000 -0.075386 219.000000 -0.065856 15.000000 -0.100151 114.000000 -0.032039 120.000000 -0.060534
56860.000000 1.622193 235.000000 239.000000 141.000000 -0.043286 187.000000 0.204799 216.000000 -0.076707 219.000000 -0.063353 16.000000 -0.117602 136.000000 -0.037990 138.000000 -0.058130
57099.000000 1.728198 239.000000 232.000000 133.000000 -0.096837 184.000000 0.216660 207.000000 -0.056441 212.000000 -0.063072 17.000000 -0.099922 102.000000 -0.030771 120.000000 -0.082951
57331.000000 1.701289 232.000000 233.000000 132.000000 -0.041977 184.000000 0.189342 212.000000 -0.091600 213.000000 -0.087008 17.000000 -0.132802 110.000000 -0.019061 132.000000 -0.041977
57564.000000 1.701446 233.000000 229.000000 130.000000 -0.046395 179.000000 0.204498 209.000000 -0.060971 211.000000 -0.057083 20.000000 -0.166330 105.000000 -0.035423 115.000000 -0.055895
57793.000000 1.631070 229.000000 240.000000 148.000000 -0.061441 188.000000 0.198026 214.000000 -0.066001 223.000000 -0.074967 16.000000 -0.144951 106.000000 -0.013590 116.000000 -0.039670
58033.000000 1.693700 240.000000 233.000000 136.000000 -0.068747 187.000000 0.200473 211.000000 -0.067049 213.000000 -0.067739 15.000000 -0.075784 104.000000 -0.016506 136.000000 -0.068747
58266.000000 1.637936 233.000000 231.000000 166.000000 0.016804 184.000000 0.220473 209.000000 -0.055999 210.000000 -0.066406 17.000000 -0.150638 112.000000 -0.027242 129.000000 -0.068573
58497.000000 1.669281 231.000000 227.000000 151.000000 -0.065738 181.000000 0.189243 207.000000 -0.084752 212.000000 -0.109126 16.000000 -0.137913 130.000000 -0.038778 139.000000 -0.050863
58724.000000 1.732019 227.000000 232.000000 121.000000 -0.046191 181.000000 0.221677 203.000000 -0.026550 214.000000 -0.037584 15.000000 -0.101727 135.000000 -0.006710 192.000000 0.154483
58956.000000 1.788764 232.000000 227.000000 147.000000 -0.061266 177.000000 0.209219 208.000000 -0.080499 209.000000 -0.085687 15.000000 -0.089826 106.000000 -0.056080 122.000000 -0.087584
59183.000000 1.736556 227.000000 233.000000 148.000000 -0.060944 181.000000 0.203147 207.000000 -0.062575 213.000000 -0.048735 20.000000 -0.162334 131.000000 -0.041964 148.000000 -0.060944
59416.000000 1.754102 233.000000 234.000000 132.000000 -0.087553 187.000000 0.199578 196.000000 0.163043 217.000000 -0.069932 22.000000 -0.191789 114.000000 -0.034327 132.000000 -0.087553
59650.000000 1.764380 234.000000 232.000000 150.000000 -0.050331 182.000000 0.186630 204.000000 -0.032019 214.000000 -0.080764 17.000000 -0.145197 133.000000 -0.019861 140.000000 -0.042353
59882.000000 1.652889 232.000000 226.000000 151.000000 -0.015407 178.000000 0.210016 205.000000 -0.070375 210.000000 -0.084310 16.000000 -0.168725 104.000000 -0.025629 115.000000 -0.047008
60108.000000 1.688792 226.000000 237.000000 120.000000 -0.090755 188.000000 0.203981 214.000000 -0.057869 220.000000 -0.084938 15.000000 -0.090722 131.000000 -0.031524 214.000000 -0.057869
60820.000000 1.678484 235.000000 229.000000 149.000000 -0.016658 181.000000 0.191021 194.000000 0.019908 212.000000 -0.089092 15.000000 -0.102267 126.000000 -0.041046 149.000000 -0.016658
61281.000000 1.660199 232.000000 234.000000 166.000000 0.044497 193.000000 0.202869 206.000000 -0.035390 216.000000 -0.088181 18.000000 -0.151117 111.000000 0.027349 127.000000 -0.023418
61515.000000 1.647134 234.000000 237.000000 172.000000 -0.019377 190.000000 0.197051 216.000000 -0.081395 220.000000 -0.076018 17.000000 -0.167129 140.000000 -0.029154 150.000000 -0.033607
61752.000000 1.629750 237.000000 240.000000 169.000000 0.009312 190.000000 0.198355 196.000000 0.171395 226.000000 -0.074689 16.000000 -0.118792 107.000000 -0.038100 120.000000 -0.078067
61992.000000 1.575434 240.000000 231.000000 148.000000 -0.030582 182.000000 0.209682 210.000000 -0.073294 211.000000 -0.073780 8.000000 -0.076902 137.000000 -0.016067 148.000000 -0.030582
62223.000000 1.659182 231.000000 233.000000 153.000000 -0.031679 187.000000 0.212255 206.000000 -0.070410 212.000000 -0.077949 16.000000 -0.080926 135.000000 -0.028638 143.000000 -0.053545
62456.000000 1.600532 233.000000 238.000000 155.000000 -0.010190 189.000000 0.181943 215.000000 -0.081943 217.000000 -0.077257 19.000000 -0.169106 100.000000 0.004169 117.000000 -0.051177
62694.000000 1.507962 238.000000 246.000000 176.000000 0.016616 196.000000 0.188904 222.000000 -0.081486 226.000000 -0.123288 17.000000 -0.146850 103.000000 -0.010658 125.000000 -0.040251
63171.000000 1.646132 231.000000 228.000000 162.000000 0.012083 183.000000 0.202066 204.000000 -0.061100 211.000000 -0.032165 19.000000 -0.161032 104.000000 0.001581 119.000000 -0.058562
63629.000000 1.656816 230.000000 233.000000 170.000000 0.022289 186.000000 0.190908 206.000000 -0.046931 216.000000 -0.105754 15.000000 -0.087947 138.000000 -0.040219 170.000000 0.022289
63862.000000 1.743151 233.000000 234.000000 163.000000 -0.022802 183.000000 0.192041 211.000000 -0.065956 217.000000 -0.042681 16.000000 -0.121805 134.000000 -0.046831 138.000000 -0.085953
64334.000000 1.648029 238.000000 229.000000 126.000000 -0.054700 182.000000 0.176381 204.000000 -0.051345 208.000000 -0.087427 15.000000 -0.097803 104.000000 -0.035377 114.000000 -0.064326
64794.000000 1.596376 231.000000 229.000000 143.000000 -0.055531 182.000000 0.176127 203.000000 -0.089012 206.000000 -0.061063 16.000000 -0.107196 136.000000 -0.028633 145.000000 -0.051471
65265.000000 1.692528 242.000000 235.000000 149.000000 -0.040892 186.000000 0.166758 190.000000 0.144971 219.000000 -0.077064 17.000000 -0.141361 113.000000 -0.036329 123.000000 -0.058915
65734.000000 1.563750 234.000000 231.000000 138.000000 -0.071173 184.000000 0.187789 203.000000 -0.080140 216.000000 -0.110735 16.000000 -0.113053 100.000000 -0.024855 121.000000 -0.072395
65965.000000 1.588527 231.000000 235.000000 155.000000 0.002541 187.000000 0.182805 214.000000 -0.077824 216.000000 -0.078890 15.000000 -0.110282 101.000000 -0.028901 114.000000 -0.086646
66200.000000 1.638680 235.000000 230.000000 151.000000 -0.003936 182.000000 0.181158 207.000000 -0.049691 211.000000 -0.094314 14.000000 -0.046995 135.000000 0.001595 154.000000 -0.039986
66430.000000 1.687379 230.000000 240.000000 130.000000 -0.079185 190.000000 0.155973 209.000000 -0.072662 221.000000 -0.094088 18.000000 -0.144455 108.000000 -0.037950 116.000000 -0.082148
66907.000000 1.602119 237.000000 234.000000 152.000000 -0.045313 184.000000 0.194249 201.000000 -0.019215 220.000000 -0.087947 18.000000 -0.161626 139.000000 -0.024387 143.000000 -0.069482
67141.000000 1.597350 234.000000 225.000000 150.000000 -0.036976 179.000000 0.191771 196.000000 -0.035172 209.000000 -0.100125 15.000000 -0.113292 131.000000 -0.011130 139.000000 -0.045926
67366.000000 1.605079 225.000000 236.000000 128.000000 -0.081173 185.000000 0.175378 217.000000 -0.079766 218.000000 -0.080284 15.000000 -0.107945 110.000000 -0.015954 128.000000 -0.081173
67602.000000 1.663837 236.000000 238.000000 149.000000 -0.047179 188.000000 0.167257 208.000000 -0.041988 222.000000 -0.066218 14.000000 -0.100349 139.000000 -0.024262 149.000000 -0.047179
67840.000000 1.680367 238.000000 234.000000 157.000000 -0.005548 184.000000 0.179094 187.000000 0.138515 215.000000 -0.078097 15.000000 -0.096434 139.000000 -0.007035 147.000000 -0.015125
68528.000000 1.668053 229.000000 230.000000 162.000000 0.021379 184.000000 0.204043 207.000000 -0.062933 211.000000 -0.069643 19.000000 -0.176476 104.000000 -0.022117 115.000000 -0.027194
68758.000000 1.687598 230.000000 233.000000 150.000000 -0.037054 184.000000 0.203699 213.000000 -0.081726 218.000000 -0.103654 16.000000 -0.117074 111.000000 -0.009042 119.000000 -0.055814
68991.000000 1.642804 233.000000 235.000000 168.000000 0.007334 187.000000 0.172804 203.000000 -0.006460 218.000000 -0.088982 9.000000 -0.133623 140.000000 -0.025896 151.000000 -0.021458
69226.000000 1.638105 235.000000 228.000000 152.000000 -0.050174 182.000000 0.165394 206.000000 -0.076849 210.000000 -0.065455 17.000000 -0.130389 111.000000 -0.027006 120.000000 -0.062493
70153.000000 1.641680 242.000000 232.000000 144.000000 -0.012240 183.000000 0.192948 209.000000 -0.092367 212.000000 -0.099061 16.000000 -0.104668 131.000000 -0.027458 144.000000 -0.012240
70385.000000 1.685121 232.000000 230.000000 134.000000 -0.062051 187.000000 0.190375 211.000000 -0.063951 214.000000 -0.077055 17.000000 -0.167952 104.000000 -0.014813 117.000000 -0.017961
70615.000000 1.643133 230.000000 227.000000 113.000000 -0.072381 182.000000 0.197543 205.000000 -0.040327 210.000000 -0.054464 15.000000 -0.106349 128.000000 -0.009404 205.000000 -0.040327
70842.000000 1.709736 227.000000 237.000000 158.000000 -0.030998 186.000000 0.206102 216.000000 -0.091063 218.000000 -0.095672 17.000000 -0.120154 141.000000 -0.003896 147.000000 -0.046216
71079.000000 1.717995 237.000000 228.000000 147.000000 -0.066740 180.000000 0.190642 204.000000 -0.079891 210.000000 -0.096021 18.000000 -0.184623 130.000000 -0.035048 147.000000 -0.066740
71307.000000 1.698636 228.000000 237.000000 130.000000 -0.060940 186.000000 0.194109 212.000000 -0.072472 217.000000 -0.077690 17.000000 -0.160813 106.000000 -0.032193 120.000000 -0.062539
71776.000000 1.761017 232.000000 231.000000 148.000000 -0.051206 185.000000 0.183952 218.000000 -0.083709 223.000000 0.131997 16.000000 -0.089421 98.000000 -0.038662 114.000000 -0.084729
72007.000000 1.483518 231.000000 224.000000 145.000000 -0.054156 176.000000 0.167305 201.000000 -0.033762 206.000000 -0.059812 14.000000 -0.075683 128.000000 -0.046760 148.000000 -0.038419
72231.000000 1.065192 224.000000 474.000000 402.000000 0.017239 431.000000 0.161881 454.000000 -0.003775 455.000000 0.005270 17.000000 -0.119292 235.000000 0.766490 259.000000 -0.153057
72939.000000 1.108808 234.000000 225.000000 135.000000 -0.037957 180.000000 0.166353 189.000000 0.080537 200.000000 -0.011234 17.000000 -0.118998 134.000000 -0.023569 141.000000 -0.015121
73164.000000 1.043844 225.000000 232.000000 151.000000 -0.048307 184.000000 0.163245 211.000000 -0.039198 216.000000 -0.016847 20.000000 -0.124668 136.000000 -0.039578 151.000000 -0.048307
73396.000000 1.050145 232.000000 233.000000 170.000000 0.017742 191.000000 0.175234 211.000000 -0.040017 217.000000 -0.016349 15.000000 -0.056550 130.000000 -0.034436 152.000000 -0.031755
73629.000000 1.148383 233.000000 714.000000 454.000000 -0.006083 479.000000 0.767602 508.000000 -0.147583 695.000000 -0.054204 13.000000 -0.038329 238.000000 0.929199 267.000000 -0.138403
74343.000000 1.118790 714.000000 236.000000 129.000000 -0.067600 189.000000 0.186259 213.000000 -0.057956 219.000000 -0.054274 21.000000 -0.166037 107.000000 -0.017837 130.000000 -0.056894
74579.000000 1.414348 236.000000 235.000000 145.000000 -0.042322 186.000000 0.195971 214.000000 -0.086775 219.000000 -0.073013 19.000000 -0.162157 103.000000 -0.019607 118.000000 -0.082979
74814.000000 1.544606 235.000000 242.000000 149.000000 -0.055953 190.000000 0.182323 214.000000 -0.059906 227.000000 -0.084046 17.000000 -0.138372 107.000000 -0.026565 120.000000 -0.059935
75056.000000 1.581702 242.000000 235.000000 146.000000 -0.012616 185.000000 0.230079 209.000000 -0.059700 219.000000 -0.087334 17.000000 -0.149097 137.000000 0.007150 146.000000 -0.012616
75753.000000 1.660400 230.000000 234.000000 155.000000 -0.027431 187.000000 0.206911 211.000000 -0.067022 218.000000 -0.095078 15.000000 -0.112861 136.000000 -0.040393 146.000000 -0.040957
76218.000000 1.645631 231.000000 234.000000 150.000000 -0.050909 190.000000 0.172430 204.000000 -0.049734 215.000000 -0.070017 14.000000 -0.072378 109.000000 -0.013307 116.000000 -0.066033
76915.000000 1.671357 230.000000 226.000000 151.000000 -0.027179 178.000000 0.215626 197.000000 -0.037321 210.000000 -0.060472 16.000000 -0.136308 134.000000 -0.006066 138.000000 -0.027274
77378.000000 1.770678 237.000000 236.000000 158.000000 0.010454 190.000000 0.204559 209.000000 -0.054187 216.000000 -0.085410 19.000000 -0.183178 122.000000 -0.029437 133.000000 -0.061866
77614.000000 1.677520 236.000000 235.000000 169.000000 -0.004293 187.000000 0.194404 214.000000 -0.065158 218.000000 -0.111365 17.000000 -0.149015 140.000000 -0.030409 169.000000 -0.004293
77849.000000 1.703431 235.000000 226.000000 159.000000 -0.039642 177.000000 0.203259 199.000000 -0.064124 212.000000 -0.111754 16.000000 -0.142775 97.000000 -0.026067 116.000000 -0.046225
78075.000000 1.610804 226.000000 234.000000 135.000000 -0.035631 183.000000 0.213763 208.000000 -0.067085 212.000000 -0.095080 14.000000 -0.065746 106.000000 -0.030160 116.000000 -0.093499
78541.000000 1.775126 232.000000 242.000000 176.000000 0.005627 194.000000 0.176771 219.000000 -0.057321 224.000000 -0.092400 17.000000 -0.136519 144.000000 -0.037869 153.000000 -0.042446
78783.000000 1.671974 242.000000 241.000000 140.000000 -0.072444 191.000000 0.187210 216.000000 -0.065738 225.000000 -0.077353 15.000000 -0.107978 135.000000 -0.029261 141.000000 -0.062147
79024.000000 1.685029 241.000000 231.000000 161.000000 -0.015676 181.000000 0.182538 210.000000 -0.091267 214.000000 -0.093884 15.000000 -0.112274 132.000000 -0.035034 138.000000 -0.059484
79255.000000 1.585711 231.000000 228.000000 158.000000 -0.036957 180.000000 0.208670 199.000000 -0.023445 213.000000 -0.076093 17.000000 -0.154368 106.000000 -0.005737 119.000000 -0.063668
79721.000000 1.775756 238.000000 241.000000 170.000000 0.059377 192.000000 0.252839 220.000000 -0.072637 221.000000 -0.072495 17.000000 -0.142126 122.000000 -0.003460 134.000000 -0.032051
79962.000000 1.741186 241.000000 234.000000 169.000000 0.011395 191.000000 0.188122 203.000000 -0.016284 217.000000 -0.070298 19.000000 -0.184316 120.000000 -0.060498 129.000000 -0.069180
80196.000000 1.756553 234.000000 228.000000 142.000000 -0.057729 184.000000 0.186363 189.000000 0.125627 196.000000 0.023996 18.000000 -0.152506 102.000000 -0.028903 122.000000 -0.073483
80657.000000 1.624676 233.000000 234.000000 162.000000 0.008338 189.000000 0.209403 215.000000 -0.063750 218.000000 -0.055725 17.000000 -0.163382 109.000000 -0.016818 119.000000 -0.064890
80891.000000 1.655072 234.000000 235.000000 146.000000 -0.052213 186.000000 0.224138 212.000000 -0.075502 215.000000 -0.087085 17.000000 -0.144536 104.000000 -0.023138 112.000000 -0.077965
81363.000000 1.772913 237.000000 234.000000 149.000000 -0.052147 186.000000 0.197915 211.000000 -0.089156 218.000000 -0.066068 17.000000 -0.136254 109.000000 -0.010748 128.000000 -0.077882
82056.000000 1.658388 230.000000 239.000000 170.000000 -0.002948 189.000000 0.205312 214.000000 -0.054718 220.000000 -0.062524 15.000000 -0.090877 139.000000 -0.010628 146.000000 -0.071459
82531.000000 1.759603 236.000000 234.000000 128.000000 -0.073683 188.000000 0.193525 199.000000 0.066629 214.000000 -0.056066 17.000000 -0.169533 109.000000 -0.039779 128.000000 -0.073683
82765.000000 1.721457 234.000000 233.000000 149.000000 -0.043401 185.000000 0.200219 217.000000 -0.096396 223.000000 -0.063498 18.000000 -0.144905 104.000000 -0.040688 115.000000 -0.069026
82998.000000 1.609277 233.000000 237.000000 154.000000 -0.033652 184.000000 0.177949 191.000000 0.149735 220.000000 -0.087131 9.000000 -0.142416 134.000000 -0.028448 154.000000 -0.033652
83235.000000 1.643446 237.000000 230.000000 162.000000 -0.012681 182.000000 0.184905 209.000000 -0.085553 214.000000 -0.093140 17.000000 -0.126944 136.000000 -0.022244 146.000000 -0.022870
83465.000000 1.609054 230.000000 238.000000 171.000000 0.018321 194.000000 0.195280 212.000000 -0.075047 214.000000 -0.071239 18.000000 -0.157917 108.000000 -0.021206 126.000000 -0.059485
83943.000000 1.739262 240.000000 235.000000 175.000000 0.027634 192.000000 0.168824 213.000000 -0.066131 218.000000 -0.067338 15.000000 -0.063028 99.000000 -0.036109 116.000000 -0.073569
84178.000000 1.705201 235.000000 229.000000 157.000000 -0.033151 180.000000 0.206742 206.000000 -0.080043 213.000000 -0.107238 14.000000 -0.092023 129.000000 -0.022506 138.000000 -0.034152
84407.000000 1.610348 229.000000 238.000000 146.000000 -0.017085 188.000000 0.235358 214.000000 -0.012277 219.000000 -0.036555 17.000000 -0.160873 141.000000 0.033541 146.000000 -0.017085
85120.000000 1.582461 233.000000 226.000000 127.000000 -0.051710 180.000000 0.194966 200.000000 -0.060616 210.000000 -0.045834 14.000000 -0.105657 134.000000 -0.028763 193.000000 0.012143
85346.000000 1.615156 226.000000 232.000000 149.000000 -0.030410 184.000000 0.174620 204.000000 -0.075757 216.000000 -0.088689 16.000000 -0.078245 102.000000 -0.016317 113.000000 -0.062306
85578.000000 1.671595 232.000000 232.000000 152.000000 -0.034972 182.000000 0.184481 210.000000 -0.066222 215.000000 -0.057162 16.000000 -0.056602 101.000000 -0.011896 121.000000 -0.040205
86047.000000 1.761110 237.000000 242.000000 129.000000 -0.069779 191.000000 0.165191 211.000000 -0.063947 227.000000 -0.087663 16.000000 -0.120142 143.000000 -0.046973 211.000000 -0.063947
86289.000000 1.759748 242.000000 231.000000 158.000000 -0.027760 183.000000 0.197489 207.000000 -0.105657 211.000000 -0.108839 14.000000 -0.073107 129.000000 -0.038607 146.000000 -0.064703
86520.000000 1.732871 231.000000 233.000000 142.000000 -0.035799 186.000000 0.212117 203.000000 -0.043324 216.000000 -0.073889 21.000000 -0.171298 138.000000 -0.019216 144.000000 -0.041519
86753.000000 1.703338 233.000000 239.000000 167.000000 0.001131 189.000000 0.190787 220.000000 -0.113651 226.000000 -0.127508 17.000000 -0.162288 109.000000 -0.014622 117.000000 -0.064229
86992.000000 1.639621 239.000000 248.000000 177.000000 -0.016427 197.000000 0.198339 222.000000 -0.083838 231.000000 -0.079041 8.000000 -0.085068 110.000000 -0.004736 121.000000 -0.033686
87240.000000 1.663171 248.000000 241.000000 169.000000 0.011221 189.000000 0.204890 218.000000 -0.071563 219.000000 -0.071641 17.000000 -0.142514 138.000000 0.001333 146.000000 -0.046003
87713.000000 1.774593 232.000000 236.000000 152.000000 -0.042152 189.000000 0.191297 217.000000 -0.047510 218.000000 -0.047149 22.000000 -0.184955 112.000000 -0.027777 128.000000 -0.097919
87949.000000 1.654578 236.000000 240.000000 174.000000 0.006565 195.000000 0.172430 217.000000 -0.100405 222.000000 -0.070796 17.000000 -0.153413 102.000000 -0.003963 132.000000 -0.066569
88432.000000 1.631849 243.000000 244.000000 173.000000 0.018120 194.000000 0.181976 213.000000 -0.041313 226.000000 -0.111094 17.000000 -0.153122 144.000000 -0.008104 152.000000 -0.007948
88676.000000 1.718654 244.000000 235.000000 153.000000 -0.039688 191.000000 0.173635 212.000000 -0.083498 217.000000 -0.058733 16.000000 -0.128838 107.000000 -0.017117 118.000000 -0.053953
88911.000000 1.647364 235.000000 235.000000 172.000000 0.015798 189.000000 0.189436 214.000000 -0.103319 219.000000 -0.074416 17.000000 -0.136430 104.000000 -0.032903 115.000000 -0.059000
89146.000000 1.725805 235.000000 239.000000 138.000000 -0.044704 190.000000 0.195529 216.000000 -0.058012 220.000000 -0.104768 15.000000 -0.108147 141.000000 -0.008591 216.000000 -0.058012
89385.000000 1.652158 239.000000 247.000000 172.000000 0.017792 198.000000 0.225643 224.000000 -0.053933 228.000000 -0.051535 18.000000 -0.185021 141.000000 0.003714 172.000000 0.017792
89632.000000 1.702949 247.000000 237.000000 140.000000 -0.057508 187.000000 0.207933 215.000000 -0.096803 220.000000 -0.063198 16.000000 -0.099681 135.000000 -0.008573 141.000000 -0.057241
89869.000000 1.754983 237.000000 235.000000 147.000000 -0.042776 187.000000 0.232242 212.000000 -0.069202 215.000000 -0.093982 17.000000 -0.121850 103.000000 0.000374 119.000000 -0.077213
90341.000000 1.719750 237.000000 240.000000 139.000000 -0.057555 192.000000 0.194201 202.000000 0.152133 223.000000 -0.101568 16.000000 -0.122961 110.000000 -0.012303 121.000000 -0.041269
90581.000000 1.677255 240.000000 243.000000 175.000000 -0.026068 195.000000 0.216535 219.000000 -0.062804 224.000000 -0.115014 18.000000 -0.168529 110.000000 -0.003856 119.000000 -0.109044
90824.000000 1.615523 243.000000 245.000000 175.000000 -0.004482 193.000000 0.187166 212.000000 -0.027600 228.000000 -0.079497 17.000000 -0.144680 144.000000 -0.003055 175.000000 -0.004482
91069.000000 1.699937 245.000000 238.000000 124.000000 -0.064062 190.000000 0.202554 218.000000 -0.094795 219.000000 -0.080297 19.000000 -0.149165 139.000000 0.005923 218.000000 -0.094795
91307.000000 1.755004 238.000000 240.000000 159.000000 0.004529 191.000000 0.242194 203.000000 0.129513 222.000000 -0.077774 15.000000 -0.085653 105.000000 -0.014432 113.000000 -0.075970
91547.000000 1.692242 240.000000 240.000000 146.000000 -0.059155 191.000000 0.219062 201.000000 0.131601 223.000000 -0.104480 16.000000 -0.106377 106.000000 -0.003027 113.000000 -0.072291
92275.000000 1.584260 237.000000 236.000000 173.000000 -0.008902 193.000000 0.204042 214.000000 -0.052463 218.000000 -0.069470 14.000000 -0.053359 109.000000 -0.000673 123.000000 -0.060611
92511.000000 1.708319 236.000000 238.000000 162.000000 0.025286 191.000000 0.192980 212.000000 -0.051564 221.000000 -0.062613 19.000000 -0.176965 139.000000 -0.006280 168.000000 0.001679
92749.000000 1.667073 238.000000 240.000000 153.000000 -0.042881 199.000000 0.188860 220.000000 -0.103570 224.000000 -0.064980 17.000000 -0.147990 135.000000 -0.042348 153.000000 -0.042881
92989.000000 1.605897 240.000000 239.000000 170.000000 -0.012809 189.000000 0.188228 219.000000 -0.092854 224.000000 -0.081505 10.000000 -0.141627 128.000000 -0.024482 138.000000 -0.054186
93228.000000 1.595064 239.000000 243.000000 170.000000 0.005441 191.000000 0.186351 220.000000 -0.100110 223.000000 -0.112069 16.000000 -0.142707 140.000000 -0.005468 148.000000 -0.066926
93471.000000 1.671829 243.000000 235.000000 169.000000 0.011365 195.000000 0.211867 214.000000 -0.089808 216.000000 -0.110451 19.000000 -0.161354 109.000000 -0.020798 119.000000 -0.036706
93706.000000 1.784487 235.000000 235.000000 140.000000 -0.037904 186.000000 0.201456 208.000000 -0.061415 218.000000 -0.082716 16.000000 -0.097676 132.000000 -0.016962 146.000000 -0.060598
94176.000000 1.653743 235.000000 247.000000 138.000000 -0.072490 194.000000 0.184311 223.000000 -0.077116 228.000000 -0.068684 22.000000 -0.157745 108.000000 -0.025455 117.000000 -0.055093
94662.000000 1.685989 239.000000 234.000000 165.000000 -0.002194 188.000000 0.199296 214.000000 -0.092599 214.000000 -0.092599 20.000000 -0.179433 107.000000 -0.006629 133.000000 -0.026721
94896.000000 1.780956 234.000000 234.000000 171.000000 -0.032303 192.000000 0.191397 216.000000 -0.069308 216.000000 -0.069308 17.000000 -0.182165 102.000000 -0.037068 113.000000 -0.082585
95130.000000 1.805551 234.000000 240.000000 174.000000 0.026961 199.000000 0.169754 219.000000 -0.078946 221.000000 -0.078852 16.000000 -0.101017 100.000000 0.005917 114.000000 -0.036937
95370.000000 1.785225 240.000000 239.000000 125.000000 -0.128328 187.000000 0.194497 216.000000 -0.080923 221.000000 -0.107583 16.000000 -0.131248 136.000000 -0.052104 177.000000 0.063086
95850.000000 1.687758 241.000000 240.000000 154.000000 -0.059986 190.000000 0.175343 219.000000 -0.065735 224.000000 -0.101488 17.000000 -0.141271 137.000000 -0.005894 142.000000 -0.049468
96090.000000 1.650520 240.000000 235.000000 145.000000 -0.026458 187.000000 0.190281 212.000000 -0.095582 216.000000 -0.086006 16.000000 -0.091124 135.000000 0.015501 145.000000 -0.026458
96325.000000 1.682645 235.000000 233.000000 150.000000 -0.039591 183.000000 0.190672 200.000000 -0.009562 216.000000 -0.089061 16.000000 -0.152950 102.000000 -0.017507 114.000000 -0.064417
96798.000000 1.675718 240.000000 238.000000 138.000000 -0.033635 191.000000 0.180439 219.000000 -0.095059 223.000000 -0.087363 16.000000 -0.084092 126.000000 -0.017882 138.000000 -0.033635
97036.000000 1.600773 238.000000 231.000000 145.000000 -0.022396 185.000000 0.214532 210.000000 -0.034451 214.000000 -0.066628 15.000000 -0.135702 104.000000 -0.003884 115.000000 -0.041265
97267.000000 1.706696 231.000000 228.000000 142.000000 -0.018225 184.000000 0.197856 206.000000 -0.046316 210.000000 -0.060218 15.000000 -0.058350 100.000000 0.015004 117.000000 -0.067585
97495.000000 1.691597 228.000000 233.000000 155.000000 -0.033937 179.000000 0.184933 204.000000 -0.065880 216.000000 -0.099045 17.000000 -0.156649 135.000000 -0.029677 156.000000 -0.035176
97955.000000 1.745985 227.000000 230.000000 142.000000 -0.067005 180.000000 0.194644 208.000000 -0.088902 212.000000 -0.121536 17.000000 -0.151646 109.000000 -0.016956 121.000000 -0.051548
98185.000000 1.657447 230.000000 234.000000 150.000000 -0.037835 189.000000 0.203997 206.000000 -0.034043 217.000000 -0.082319 19.000000 -0.182899 108.000000 -0.004013 116.000000 -0.033072
98644.000000 1.679857 225.000000 224.000000 153.000000 0.006723 177.000000 0.211786 202.000000 -0.062325 205.000000 -0.084410 17.000000 -0.117227 117.000000 0.003294 122.000000 -0.039263
98868.000000 1.740952 224.000000 229.000000 139.000000 -0.045769 182.000000 0.211145 202.000000 -0.034829 214.000000 -0.096285 18.000000 -0.162008 135.000000 -0.021066 140.000000 -0.040862
99097.000000 1.782286 229.000000 236.000000 137.000000 -0.091929 187.000000 0.215421 203.000000 0.034072 211.000000 -0.043561 16.000000 -0.094907 106.000000 -0.035016 116.000000 -0.064703
99333.000000 1.834950 236.000000 229.000000 143.000000 -0.050742 180.000000 0.227114 207.000000 -0.045286 209.000000 -0.045427 19.000000 -0.171176 136.000000 -0.029473 143.000000 -0.050742
99562.000000 1.793290 229.000000 225.000000 144.000000 -0.036972 179.000000 0.199627 204.000000 -0.066582 209.000000 -0.103917 15.000000 -0.088388 109.000000 -0.032786 119.000000 -0.054698
99787.000000 1.709188 225.000000 227.000000 153.000000 -0.018067 179.000000 0.190237 203.000000 -0.081411 213.000000 -0.125019 16.000000 -0.143743 102.000000 -0.010139 133.000000 -0.034116
100014.000000 1.669052 227.000000 231.000000 147.000000 -0.009575 185.000000 0.205905 209.000000 -0.067746 214.000000 -0.077415 15.000000 -0.111609 128.000000 -0.007397 147.000000 -0.009575
100245.000000 1.741359 231.000000 233.000000 153.000000 -0.023434 182.000000 0.208963 204.000000 -0.031069 216.000000 -0.068593 17.000000 -0.158188 137.000000 -0.014783 140.000000 -0.040380
100478.000000 1.766876 233.000000 234.000000 148.000000 -0.021123 184.000000 0.185113 210.000000 -0.081830 212.000000 -0.067441 15.000000 -0.075365 118.000000 -0.025873 125.000000 -0.074683
100712.000000 1.684345 234.000000 228.000000 152.000000 -0.063541 182.000000 0.197682 208.000000 -0.069717 213.000000 -0.101612 18.000000 -0.154840 124.000000 -0.044824 134.000000 -0.055968
100940.000000 1.637069 228.000000 228.000000 152.000000 -0.041159 182.000000 0.192572 207.000000 -0.067807 210.000000 -0.084469 16.000000 -0.104953 103.000000 -0.022413 116.000000 -0.047068
101168.000000 1.636923 228.000000 224.000000 150.000000 -0.021521 177.000000 0.183918 202.000000 -0.073007 206.000000 -0.100749 19.000000 -0.179924 128.000000 -0.023749 150.000000 -0.021521
101392.000000 1.623878 224.000000 234.000000 150.000000 -0.018744 185.000000 0.192070 213.000000 -0.079028 216.000000 -0.080830 21.000000 -0.178708 106.000000 -0.013494 119.000000 -0.059622
101626.000000 1.667237 234.000000 234.000000 134.000000 -0.040876 194.000000 0.195345 212.000000 -0.053212 215.000000 -0.084686 16.000000 -0.091934 110.000000 -0.003229 124.000000 -0.038071
101860.000000 1.691879 234.000000 233.000000 147.000000 -0.028089 183.000000 0.185156 207.000000 -0.068931 216.000000 -0.091876 17.000000 -0.164407 104.000000 -0.017622 117.000000 -0.034095
102314.000000 1.632061 221.000000 226.000000 152.000000 -0.042460 178.000000 0.190799 206.000000 -0.092052 210.000000 -0.089373 17.000000 -0.160810 105.000000 -0.013778 113.000000 -0.062179
102540.000000 1.606893 226.000000 229.000000 149.000000 -0.017826 180.000000 0.186911 209.000000 -0.096329 211.000000 -0.097959 17.000000 -0.121417 108.000000 -0.003216 124.000000 -0.034063
103244.000000 1.703048 239.000000 226.000000 153.000000 -0.047869 177.000000 0.167146 187.000000 0.159967 210.000000 -0.069877 14.000000 -0.083207 102.000000 -0.038995 110.000000 -0.063745
103470.000000 1.668242 226.000000 228.000000 151.000000 -0.032461 186.000000 0.177098 206.000000 -0.099689 209.000000 -0.080943 14.000000 -0.077997 105.000000 -0.020253 117.000000 -0.062290
103698.000000 1.669151 228.000000 234.000000 154.000000 -0.026647 186.000000 0.166239 212.000000 -0.089089 214.000000 -0.094607 20.000000 -0.180645 138.000000 -0.005956 154.000000 -0.026647
103932.000000 1.659766 234.000000 243.000000 167.000000 0.013104 192.000000 0.185236 218.000000 -0.076226 225.000000 -0.085176 18.000000 -0.187962 109.000000 -0.012803 120.000000 -0.038743
104175.000000 1.660357 243.000000 230.000000 150.000000 -0.030283 182.000000 0.212553 204.000000 -0.041916 211.000000 -0.069768 19.000000 -0.174909 135.000000 -0.010814 155.000000 -0.000377
104405.000000 1.743852 230.000000 230.000000 160.000000 0.002681 185.000000 0.198890 200.000000 0.034926 205.000000 -0.061360 16.000000 -0.081132 117.000000 -0.040534 126.000000 -0.062383
104635.000000 1.707621 230.000000 228.000000 138.000000 -0.040013 183.000000 0.203734 206.000000 -0.096124 210.000000 -0.068020 20.000000 -0.172707 103.000000 -0.027381 121.000000 -0.058838
104863.000000 1.671007 228.000000 233.000000 163.000000 0.023637 187.000000 0.193717 214.000000 -0.070925 218.000000 -0.102948 17.000000 -0.159040 138.000000 -0.005765 146.000000 -0.055829
105096.000000 1.654589 233.000000 229.000000 152.000000 -0.041505 179.000000 0.181833 207.000000 -0.075912 212.000000 -0.108734 15.000000 -0.108264 133.000000 -0.008685 139.000000 -0.044390
105325.000000 1.651737 229.000000 235.000000 133.000000 -0.018305 182.000000 0.190063 205.000000 -0.039374 217.000000 -0.057822 19.000000 -0.193153 109.000000 -0.018180 124.000000 -0.025656
105560.000000 1.638275 235.000000 230.000000 132.000000 -0.060973 183.000000 0.205457 210.000000 -0.055406 210.000000 -0.055406 16.000000 -0.100439 115.000000 -0.008904 126.000000 -0.023967
106019.000000 1.657873 229.000000 223.000000 152.000000 -0.036396 175.000000 0.198431 195.000000 -0.035861 206.000000 -0.056218 15.000000 -0.116769 125.000000 -0.028593 134.000000 -0.034735
106242.000000 1.616620 223.000000 236.000000 167.000000 0.000860 187.000000 0.198273 210.000000 -0.055817 212.000000 -0.047902 18.000000 -0.130545 127.000000 -0.028732 135.000000 -0.090878
106709.000000 1.722997 231.000000 232.000000 145.000000 -0.043504 190.000000 0.186276 211.000000 -0.073945 212.000000 -0.063897 16.000000 -0.112677 104.000000 0.000978 122.000000 -0.053379
106941.000000 1.715885 232.000000 225.000000 146.000000 -0.042770 177.000000 0.195239 205.000000 -0.094980 211.000000 -0.080372 16.000000 -0.137033 126.000000 -0.043223 149.000000 -0.041453
107166.000000 1.669642 225.000000 231.000000 143.000000 -0.045359 188.000000 0.184373 210.000000 -0.089058 215.000000 -0.090921 15.000000 -0.095689 132.000000 -0.029277 143.000000 -0.045359
107625.000000 1.594232 228.000000 233.000000 166.000000 0.003311 186.000000 0.210115 211.000000 -0.062235 215.000000 -0.078678 17.000000 -0.142398 113.000000 0.015567 128.000000 -0.028227
108324.000000 1.623575 228.000000 231.000000 138.000000 -0.024688 183.000000 0.216019 209.000000 -0.019732 213.000000 -0.073399 14.000000 -0.058697 110.000000 -0.001004 119.000000 -0.058466
108555.000000 1.754881 231.000000 229.000000 152.000000 -0.011194 180.000000 0.195656 201.000000 -0.041335 213.000000 -0.079518 16.000000 -0.138756 106.000000 -0.016412 119.000000 -0.040410
109027.000000 1.646400 243.000000 230.000000 123.000000 -0.073400 180.000000 0.195721 208.000000 -0.088574 212.000000 -0.085189 17.000000 -0.134683 106.000000 -0.024402 123.000000 -0.073400
109257.000000 1.610501 230.000000 229.000000 136.000000 -0.046220 185.000000 0.186365 197.000000 0.047885 209.000000 -0.070451 17.000000 -0.143134 104.000000 -0.008887 124.000000 -0.053023
109486.000000 1.601977 229.000000 230.000000 148.000000 -0.019938 182.000000 0.215673 208.000000 -0.066399 212.000000 -0.053750 18.000000 -0.149215 104.000000 -0.006598 114.000000 -0.040830
109716.000000 1.610324 230.000000 235.000000 120.000000 -0.053634 185.000000 0.205956 214.000000 -0.083713 219.000000 -0.090641 16.000000 -0.118140 134.000000 -0.017175 214.000000 -0.083713
109951.000000 1.650894 235.000000 229.000000 146.000000 -0.038228 179.000000 0.203042 207.000000 -0.099606 211.000000 -0.061093 14.000000 -0.093165 104.000000 -0.030048 120.000000 -0.075895
110180.000000 1.620462 229.000000 237.000000 158.000000 -0.027416 187.000000 0.188021 214.000000 -0.093107 219.000000 -0.114784 14.000000 -0.105620 139.000000 -0.009361 146.000000 -0.047730
110417.000000 1.650595 237.000000 235.000000 172.000000 -0.002337 189.000000 0.199859 214.000000 -0.081380 219.000000 -0.098121 17.000000 -0.167350 109.000000 0.003526 122.000000 -0.029876
110652.000000 1.615864 235.000000 233.000000 120.000000 -0.078184 184.000000 0.199828 207.000000 -0.066536 219.000000 -0.057520 15.000000 -0.098711 135.000000 -0.001554 207.000000 -0.066536
110885.000000 1.676118 233.000000 225.000000 150.000000 -0.009014 178.000000 0.218022 206.000000 -0.056227 207.000000 -0.061431 15.000000 -0.096061 130.000000 -0.017541 136.000000 -0.030677
111349.000000 1.625861 239.000000 239.000000 173.000000 0.034764 194.000000 0.187116 210.000000 -0.033117 224.000000 -0.107772 17.000000 -0.150707 114.000000 -0.017684 127.000000 -0.056601
111588.000000 1.567978 239.000000 236.000000 168.000000 -0.005547 188.000000 0.174153 213.000000 -0.085143 218.000000 -0.073184 14.000000 -0.069921 138.000000 -0.023322 153.000000 -0.022601
111824.000000 1.513617 236.000000 228.000000 150.000000 -0.003135 178.000000 0.185315 200.000000 -0.043948 206.000000 -0.087599 16.000000 -0.129722 129.000000 -0.025142 150.000000 -0.003135
112285.000000 1.433929 233.000000 235.000000 148.000000 -0.022646 186.000000 0.181444 212.000000 -0.080030 217.000000 -0.056159 17.000000 -0.088796 109.000000 -0.030921 117.000000 -0.081296
112520.000000 1.480847 235.000000 240.000000 169.000000 0.010550 189.000000 0.181993 216.000000 -0.061547 223.000000 -0.078537 18.000000 -0.150328 103.000000 -0.021677 121.000000 -0.046583
112760.000000 1.418767 240.000000 241.000000 173.000000 -0.001110 198.000000 0.158293 228.000000 -0.106351 234.000000 0.185139 15.000000 -0.107895 142.000000 -0.024245 147.000000 -0.053948
113001.000000 1.521394 241.000000 239.000000 167.000000 0.029575 187.000000 0.206928 218.000000 -0.063866 220.000000 -0.065152 6.000000 0.253088 141.000000 -0.002509 149.000000 -0.019390
113240.000000 1.549882 239.000000 232.000000 160.000000 0.011629 186.000000 0.193465 202.000000 -0.013069 205.000000 -0.058053 18.000000 -0.128128 137.000000 -0.020079 146.000000 -0.032024
113712.000000 1.568578 240.000000 243.000000 168.000000 0.003384 196.000000 0.182647 215.000000 -0.082193 227.000000 -0.098131 15.000000 -0.086265 124.000000 -0.026556 131.000000 -0.092718
113955.000000 1.539598 243.000000 238.000000 123.000000 -0.049088 186.000000 0.164155 207.000000 -0.027930 220.000000 -0.073008 16.000000 -0.125968 110.000000 -0.027302 116.000000 -0.072599
114422.000000 1.545802 229.000000 236.000000 121.000000 -0.074233 185.000000 0.192288 203.000000 -0.010171 220.000000 -0.061723 17.000000 -0.091441 138.000000 -0.052822 203.000000 -0.010171
114658.000000 1.647853 236.000000 236.000000 168.000000 0.017557 190.000000 0.179973 210.000000 -0.025747 221.000000 -0.083129 14.000000 -0.061756 128.000000 -0.049183 169.000000 0.017824
114894.000000 1.589566 236.000000 241.000000 173.000000 -0.016019 191.000000 0.191991 219.000000 -0.080296 223.000000 -0.091957 15.000000 -0.081405 107.000000 -0.024560 115.000000 -0.060784
115135.000000 1.487353 241.000000 240.000000 147.000000 -0.048685 189.000000 0.190487 210.000000 -0.066518 224.000000 -0.097646 15.000000 -0.126394 141.000000 -0.007870 158.000000 -0.026867
115605.000000 1.718962 230.000000 233.000000 143.000000 -0.033209 187.000000 0.215426 214.000000 -0.048475 215.000000 -0.063695 13.000000 -0.063453 104.000000 -0.014607 114.000000 -0.055310
115838.000000 1.682199 233.000000 237.000000 165.000000 0.002395 194.000000 0.198087 216.000000 -0.082899 219.000000 -0.068792 15.000000 -0.084871 127.000000 -0.037136 165.000000 0.002395
116075.000000 1.648312 237.000000 245.000000 178.000000 0.006722 198.000000 0.190939 221.000000 -0.089732 225.000000 -0.086423 18.000000 -0.143725 113.000000 -0.017164 128.000000 -0.044218
117260.000000 1.675757 238.000000 241.000000 149.000000 -0.041630 190.000000 0.194422 210.000000 -0.072411 222.000000 -0.095890 16.000000 -0.151828 142.000000 -0.033933 149.000000 -0.041630
117743.000000 1.683917 242.000000 237.000000 123.000000 -0.085768 188.000000 0.194762 198.000000 0.188209 220.000000 -0.089270 16.000000 -0.098074 105.000000 -0.017618 123.000000 -0.085768
117980.000000 1.842017 237.000000 236.000000 143.000000 -0.066882 189.000000 0.222945 217.000000 -0.066037 219.000000 -0.081649 20.000000 -0.176444 107.000000 -0.033887 122.000000 -0.073481
118450.000000 1.743672 234.000000 247.000000 175.000000 0.013243 198.000000 0.190893 225.000000 -0.078525 230.000000 -0.089465 14.000000 -0.090043 141.000000 -0.030631 148.000000 -0.083185
118697.000000 1.657185 247.000000 241.000000 172.000000 0.000640 193.000000 0.185265 213.000000 -0.071301 225.000000 -0.108305 14.000000 -0.054477 108.000000 -0.017600 125.000000 -0.063151
119174.000000 1.636242 236.000000 231.000000 113.000000 -0.043149 184.000000 0.206145 210.000000 -0.065970 212.000000 -0.067036 19.000000 -0.167112 135.000000 -0.006535 210.000000 -0.065970
119405.000000 1.738024 231.000000 236.000000 147.000000 -0.031916 187.000000 0.181893 213.000000 -0.084533 218.000000 -0.069705 19.000000 -0.194594 99.000000 -0.005441 118.000000 -0.042042
120814.000000 1.470882 232.000000 249.000000 179.000000 -0.007961 200.000000 0.170127 226.000000 -0.087443 231.000000 -0.097222 13.000000 -0.082440 106.000000 0.002050 121.000000 -0.045332
121063.000000 1.505553 249.000000 242.000000 175.000000 0.002683 194.000000 0.177290 215.000000 -0.055109 224.000000 -0.091177 16.000000 -0.124261 107.000000 0.023843 126.000000 -0.065810
121305.000000 1.602759 242.000000 240.000000 145.000000 -0.036773 192.000000 0.173888 218.000000 -0.059244 220.000000 -0.086125 17.000000 -0.129606 109.000000 -0.009531 113.000000 -0.053919
121778.000000 1.697128 233.000000 241.000000 168.000000 0.049263 193.000000 0.197789 216.000000 -0.099267 221.000000 -0.056869 15.000000 -0.067324 136.000000 -0.023057 173.000000 0.037930
122019.000000 1.684604 241.000000 234.000000 114.000000 -0.050783 184.000000 0.195799 211.000000 -0.058573 218.000000 -0.101941 15.000000 -0.086727 138.000000 -0.024186 211.000000 -0.058573
122253.000000 1.671696 234.000000 239.000000 173.000000 0.006569 190.000000 0.179498 219.000000 -0.090783 223.000000 -0.102632 16.000000 -0.108318 142.000000 -0.012774 173.000000 0.006569
122492.000000 1.625318 239.000000 241.000000 173.000000 0.016881 195.000000 0.174531 219.000000 -0.088068 225.000000 -0.090480 16.000000 -0.095086 107.000000 -0.008476 132.000000 -0.025675
122733.000000 1.643568 241.000000 237.000000 142.000000 -0.018765 190.000000 0.197866 209.000000 -0.071220 221.000000 -0.101265 16.000000 -0.121054 108.000000 0.001787 122.000000 -0.019830
122970.000000 1.657578 237.000000 230.000000 156.000000 0.003932 182.000000 0.216675 209.000000 -0.093150 214.000000 -0.095688 15.000000 -0.118001 99.000000 -0.008055 112.000000 -0.053401
123681.000000 1.577189 240.000000 237.000000 151.000000 -0.005685 190.000000 0.215709 216.000000 -0.059166 219.000000 -0.059432 17.000000 -0.179427 107.000000 -0.005049 117.000000 -0.044809
124146.000000 1.452781 228.000000 238.000000 139.000000 -0.048497 193.000000 0.168746 206.000000 0.005594 221.000000 -0.061853 17.000000 -0.119586 109.000000 -0.036408 121.000000 -0.061332
124621.000000 1.156435 237.000000 242.000000 146.000000 -0.034246 196.000000 0.171728 221.000000 -0.064906 225.000000 -0.046522 15.000000 -0.086983 115.000000 -0.001927 146.000000 -0.034246
124863.000000 1.217302 242.000000 245.000000 171.000000 0.019014 196.000000 0.166178 227.000000 -0.080228 229.000000 -0.091231 16.000000 -0.102337 113.000000 -0.007463 119.000000 -0.047322
125347.000000 1.664379 239.000000 234.000000 163.000000 0.011788 189.000000 0.177981 214.000000 -0.092663 217.000000 -0.099058 22.000000 -0.170338 136.000000 -0.016143 165.000000 0.026913
125581.000000 1.646415 234.000000 247.000000 171.000000 0.015421 196.000000 0.201958 221.000000 -0.074936 227.000000 -0.106802 15.000000 -0.101768 141.000000 -0.005943 151.000000 -0.014438
126073.000000 1.637509 245.000000 243.000000 170.000000 0.016193 197.000000 0.188106 222.000000 -0.079839 224.000000 -0.071641 15.000000 -0.128479 105.000000 0.010471 117.000000 -0.037523
126316.000000 1.668125 243.000000 234.000000 125.000000 -0.020545 184.000000 0.208487 212.000000 -0.079636 216.000000 -0.075922 17.000000 -0.123881 135.000000 0.010082 212.000000 -0.079636
126550.000000 1.688996 234.000000 239.000000 166.000000 0.026921 189.000000 0.214759 219.000000 -0.109427 221.000000 -0.113738 17.000000 -0.099143 142.000000 -0.020787 151.000000 -0.013423
127027.000000 1.612000 238.000000 249.000000 177.000000 -0.022510 206.000000 0.180517 230.000000 -0.078634 232.000000 -0.084276 14.000000 -0.038471 146.000000 0.004180 152.000000 -0.043313
127765.000000 1.475739 240.000000 236.000000 154.000000 -0.023214 189.000000 0.195485 209.000000 -0.084592 223.000000 -0.106019 17.000000 -0.131707 103.000000 0.014654 121.000000 -0.025111
128001.000000 1.539090 236.000000 244.000000 173.000000 0.002900 193.000000 0.176036 221.000000 -0.091475 226.000000 -0.099171 7.000000 0.056864 107.000000 -0.002462 121.000000 -0.026052
128245.000000 1.487350 244.000000 246.000000 179.000000 -0.004184 199.000000 0.179216 217.000000 -0.042648 231.000000 -0.131222 15.000000 -0.082510 107.000000 0.004889 125.000000 -0.030169
128734.000000 1.610655 243.000000 234.000000 142.000000 -0.036739 190.000000 0.170628 210.000000 -0.089656 214.000000 -0.061741 15.000000 -0.097888 100.000000 -0.022836 117.000000 -0.059230
128968.000000 1.540154 234.000000 239.000000 143.000000 -0.052525 188.000000 0.186754 212.000000 -0.083652 223.000000 -0.089685 16.000000 -0.100112 101.000000 0.004136 119.000000 -0.061412
129443.000000 1.544576 236.000000 245.000000 174.000000 -0.014072 199.000000 0.169991 224.000000 -0.094088 228.000000 -0.101282 14.000000 -0.069923 130.000000 -0.000137 136.000000 -0.044198
129688.000000 1.552555 245.000000 246.000000 173.000000 0.063623 197.000000 0.228296 223.000000 -0.083916 232.000000 -0.077443 15.000000 -0.112352 105.000000 0.031080 123.000000 -0.021270
129934.000000 1.591351 246.000000 240.000000 147.000000 -0.066679 191.000000 0.169578 217.000000 -0.107086 224.000000 -0.128435 14.000000 -0.083383 108.000000 -0.020048 122.000000 -0.046240
130174.000000 1.563178 240.000000 236.000000 150.000000 -0.031912 189.000000 0.192570 215.000000 -0.084437 219.000000 -0.090723 14.000000 -0.068688 132.000000 -0.000562 150.000000 -0.031912
130410.000000 1.625389 236.000000 249.000000 174.000000 0.002428 198.000000 0.175329 224.000000 -0.097067 232.000000 -0.073007 16.000000 -0.096618 144.000000 -0.016489 158.000000 0.002570
130659.000000 1.596571 249.000000 249.000000 180.000000 -0.011096 201.000000 0.191350 222.000000 -0.092634 231.000000 -0.098120 14.000000 -0.082409 103.000000 -0.000717 127.000000 -0.037757
131151.000000 1.617404 243.000000 239.000000 155.000000 -0.034215 189.000000 0.181647 209.000000 -0.061377 224.000000 -0.062615 17.000000 -0.150543 103.000000 0.000001 114.000000 -0.027758
131390.000000 1.593438 239.000000 243.000000 165.000000 0.004544 192.000000 0.171836 214.000000 -0.049934 224.000000 -0.076140 16.000000 -0.144068 104.000000 0.020112 116.000000 -0.017867
131633.000000 1.610723 243.000000 241.000000 151.000000 -0.017349 190.000000 0.192181 209.000000 -0.048368 225.000000 -0.109732 19.000000 -0.133965 114.000000 -0.003026 121.000000 -0.052116
132122.000000 1.688852 248.000000 248.000000 183.000000 0.009290 200.000000 0.191551 225.000000 -0.074576 229.000000 -0.089655 17.000000 -0.144160 141.000000 0.000485 151.000000 -0.018354
132370.000000 1.788968 248.000000 241.000000 167.000000 0.031019 192.000000 0.183592 217.000000 -0.088966 223.000000 -0.112431 19.000000 -0.207742 135.000000 -0.011174 140.000000 -0.052772
132847.000000 1.666849 236.000000 247.000000 175.000000 0.013919 198.000000 0.192805 224.000000 -0.082852 228.000000 -0.112806 22.000000 -0.204623 136.000000 -0.008200 140.000000 -0.041554
133094.000000 1.593229 247.000000 246.000000 181.000000 0.000531 200.000000 0.191411 222.000000 -0.100786 228.000000 -0.102322 19.000000 -0.187697 105.000000 0.003025 124.000000 -0.071506
133340.000000 1.610420 246.000000 243.000000 177.000000 -0.018980 196.000000 0.187195 216.000000 -0.064547 226.000000 -0.112385 19.000000 -0.168782 103.000000 0.013401 118.000000 -0.041002
133583.000000 1.699683 243.000000 235.000000 149.000000 -0.064982 185.000000 0.184327 210.000000 -0.101521 217.000000 -0.089091 16.000000 -0.151336 98.000000 -0.015421 111.000000 -0.044981
133818.000000 1.786629 235.000000 239.000000 123.000000 -0.097916 187.000000 0.180110 199.000000 0.155157 222.000000 -0.102759 21.000000 -0.172010 114.000000 -0.031507 123.000000 -0.097916
134057.000000 1.749088 239.000000 236.000000 145.000000 -0.054372 187.000000 0.196537 208.000000 -0.065140 219.000000 -0.085078 17.000000 -0.134439 105.000000 -0.012805 116.000000 -0.046471
134293.000000 1.703007 236.000000 244.000000 172.000000 -0.004045 200.000000 0.184202 221.000000 -0.120830 225.000000 -0.092868 18.000000 -0.176946 109.000000 0.004307 122.000000 -0.030927
134537.000000 1.606706 244.000000 248.000000 178.000000 -0.014292 200.000000 0.187023 225.000000 -0.071178 232.000000 -0.106555 20.000000 -0.203138 113.000000 -0.011739 124.000000 -0.044591
134785.000000 1.566796 248.000000 239.000000 152.000000 -0.018135 192.000000 0.198023 212.000000 -0.101995 219.000000 -0.078187 17.000000 -0.157970 108.000000 0.003228 116.000000 -0.037539
135024.000000 1.549823 239.000000 232.000000 142.000000 -0.024355 183.000000 0.186260 209.000000 -0.098726 213.000000 -0.073303 18.000000 -0.188641 107.000000 -0.015765 114.000000 -0.047866
135495.000000 1.676806 239.000000 246.000000 145.000000 -0.055438 197.000000 0.180003 211.000000 0.021788 224.000000 -0.084324 15.000000 -0.085062 104.000000 -0.013905 122.000000 -0.077101
136435.000000 1.694326 230.000000 232.000000 146.000000 -0.035721 186.000000 0.217037 213.000000 -0.080186 215.000000 -0.095359 16.000000 -0.094575 102.000000 -0.010135 127.000000 -0.052740
136667.000000 1.749753 232.000000 236.000000 168.000000 0.023953 186.000000 0.186148 215.000000 -0.087518 220.000000 -0.106766 17.000000 -0.147676 99.000000 -0.025684 111.000000 -0.055827
136903.000000 1.632420 236.000000 237.000000 168.000000 0.011082 188.000000 0.176205 206.000000 -0.054925 221.000000 -0.085129 16.000000 -0.107124 138.000000 -0.013810 148.000000 -0.028951
137140.000000 1.592065 237.000000 231.000000 148.000000 -0.017838 185.000000 0.176665 210.000000 -0.079336 214.000000 -0.074884 16.000000 -0.145553 106.000000 -0.007824 118.000000 -0.043324
137371.000000 1.593659 231.000000 228.000000 151.000000 -0.026239 183.000000 0.177664 203.000000 -0.095876 212.000000 -0.109824 16.000000 -0.097581 104.000000 -0.005219 118.000000 -0.065313
137599.000000 1.510602 228.000000 233.000000 151.000000 -0.035171 185.000000 0.197024 201.000000 -0.023259 217.000000 -0.096771 15.000000 -0.117801 102.000000 0.019672 116.000000 -0.034371
137832.000000 1.582037 233.000000 242.000000 170.000000 0.009623 192.000000 0.186693 221.000000 -0.105802 226.000000 -0.083122 16.000000 -0.132541 110.000000 0.004576 121.000000 -0.016897
138074.000000 1.565498 242.000000 235.000000 170.000000 0.026676 192.000000 0.179482 211.000000 -0.100726 215.000000 -0.077841 15.000000 -0.094610 108.000000 0.009768 116.000000 -0.043618
138309.000000 1.574777 235.000000 233.000000 153.000000 -0.031584 187.000000 0.193869 212.000000 -0.090256 216.000000 -0.091353 17.000000 -0.100520 138.000000 -0.012885 153.000000 -0.031584
138775.000000 1.584074 233.000000 239.000000 149.000000 -0.020316 190.000000 0.191049 218.000000 -0.102197 225.000000 -0.104486 13.000000 -0.106757 104.000000 -0.003153 122.000000 -0.062525
139014.000000 1.617144 239.000000 240.000000 139.000000 -0.033890 188.000000 0.171756 212.000000 -0.091549 223.000000 -0.088477 16.000000 -0.130835 105.000000 -0.013328 115.000000 -0.047323
139254.000000 1.605473 240.000000 239.000000 150.000000 -0.043351 189.000000 0.172635 216.000000 -0.080218 222.000000 -0.106330 15.000000 -0.099119 102.000000 -0.012319 129.000000 -0.033212
139493.000000 1.607822 239.000000 238.000000 167.000000 0.015671 189.000000 0.181989 215.000000 -0.076018 220.000000 -0.077992 17.000000 -0.131361 115.000000 0.001317 131.000000 -0.053701
140198.000000 1.752433 233.000000 243.000000 174.000000 0.025425 192.000000 0.216708 212.000000 -0.099861 229.000000 -0.103496 16.000000 -0.089337 110.000000 -0.023020 119.000000 -0.030778
140441.000000 1.694829 243.000000 241.000000 173.000000 -0.011630 192.000000 0.195894 219.000000 -0.124564 221.000000 -0.099862 16.000000 -0.125013 118.000000 -0.016800 125.000000 -0.068493
140919.000000 1.584987 237.000000 232.000000 152.000000 -0.028277 183.000000 0.192677 200.000000 -0.024232 216.000000 -0.089169 13.000000 -0.079981 99.000000 0.007774 116.000000 -0.039422
141382.000000 1.557440 231.000000 232.000000 143.000000 -0.029938 184.000000 0.186911 213.000000 -0.095124 214.000000 -0.105736 18.000000 -0.165663 135.000000 -0.003653 159.000000 0.006049
141614.000000 1.566917 232.000000 236.000000 168.000000 0.013670 191.000000 0.201789 214.000000 -0.070030 216.000000 -0.061505 19.000000 -0.184854 110.000000 -0.002176 124.000000 -0.029354
141850.000000 1.702036 236.000000 240.000000 167.000000 0.014766 195.000000 0.189796 217.000000 -0.077584 223.000000 -0.064340 19.000000 -0.168326 113.000000 -0.004828 127.000000 -0.043572
142090.000000 1.671976 240.000000 231.000000 165.000000 0.012788 183.000000 0.202398 207.000000 -0.062620 211.000000 -0.063058 19.000000 -0.172537 136.000000 -0.015428 141.000000 -0.038686
142550.000000 1.603351 229.000000 235.000000 150.000000 -0.046331 185.000000 0.172664 213.000000 -0.095281 218.000000 -0.083399 16.000000 -0.129661 110.000000 -0.007603 128.000000 -0.077477
142785.000000 1.554314 235.000000 243.000000 165.000000 0.006630 195.000000 0.178483 222.000000 -0.070498 224.000000 -0.077018 14.000000 -0.080495 112.000000 0.005833 128.000000 -0.047099
143728.000000 1.746651 233.000000 237.000000 172.000000 0.004939 191.000000 0.223385 213.000000 -0.048368 215.000000 -0.058603 14.000000 -0.065295 107.000000 0.016211 116.000000 -0.046564
143965.000000 1.716333 237.000000 241.000000 149.000000 -0.053510 194.000000 0.206992 218.000000 -0.100111 225.000000 -0.126348 18.000000 -0.186317 99.000000 -0.030468 110.000000 -0.061942
144206.000000 1.597603 241.000000 245.000000 175.000000 -0.030845 195.000000 0.194576 221.000000 -0.088998 226.000000 -0.139014 14.000000 -0.091519 146.000000 -0.047319 175.000000 -0.030845
144451.000000 1.524528 245.000000 235.000000 170.000000 -0.105920 191.000000 0.078374 210.000000 -0.179339 216.000000 -0.148400 15.000000 -0.088890 107.000000 -0.026815 117.000000 -0.089416
144686.000000 1.302840 235.000000 233.000000 154.000000 0.205757 187.000000 0.342021 211.000000 0.033718 217.000000 0.052246 16.000000 -0.119133 124.000000 0.234548 154.000000 0.205757
144919.000000 1.070122 233.000000 236.000000 163.000000 0.031396 187.000000 0.162304 214.000000 -0.075736 217.000000 -0.091207 12.000000 -0.006144 103.000000 0.045456 116.000000 0.026772
145155.000000 1.144936 236.000000 246.000000 175.000000 -0.007297 196.000000 0.131558 225.000000 -0.114381 229.000000 -0.114773 17.000000 -0.119656 142.000000 -0.001642 147.000000 -0.050356
145401.000000 1.347717 246.000000 234.000000 167.000000 -0.018675 188.000000 0.141687 218.000000 -0.129050 218.000000 -0.129050 15.000000 -0.120574 139.000000 0.015497 152.000000 -0.002607
145635.000000 1.436780 234.000000 233.000000 172.000000 0.005548 190.000000 0.135281 211.000000 -0.078763 213.000000 -0.067602 17.000000 -0.134818 130.000000 -0.008358 137.000000 -0.034817
145868.000000 1.449033 233.000000 234.000000 138.000000 -0.032359 187.000000 0.183078 214.000000 -0.056346 217.000000 -0.084747 16.000000 -0.139728 104.000000 0.034881 128.000000 -0.007814
146342.000000 1.478104 240.000000 239.000000 173.000000 0.021775 191.000000 0.178154 215.000000 -0.042005 221.000000 -0.029888 17.000000 -0.137414 135.000000 0.005174 147.000000 -0.008634
146581.000000 1.490111 239.000000 243.000000 149.000000 0.055644 194.000000 0.265924 222.000000 -0.018965 225.000000 -0.030000 21.000000 -0.110908 133.000000 0.069736 149.000000 0.055644
146824.000000 1.522195 243.000000 239.000000 171.000000 -0.133195 193.000000 0.088104 214.000000 -0.067005 219.000000 -0.117209 19.000000 -0.164343 108.000000 -0.147006 126.000000 -0.230736
147063.000000 1.539186 239.000000 240.000000 175.000000 -0.052963 195.000000 0.127287 212.000000 -0.109374 222.000000 -0.122118 19.000000 -0.150249 101.000000 0.033667 124.000000 -0.064483
148268.000000 1.523170 235.000000 236.000000 160.000000 -0.024518 190.000000 0.166359 208.000000 -0.079972 218.000000 -0.105849 17.000000 -0.158461 103.000000 0.021238 124.000000 -0.053702
148745.000000 1.551601 241.000000 235.000000 148.000000 -0.041723 186.000000 0.159169 213.000000 -0.081770 217.000000 -0.095282 19.000000 -0.186286 131.000000 -0.004764 148.000000 -0.041723
148980.000000 1.547057 235.000000 240.000000 147.000000 0.000080 188.000000 0.170190 219.000000 -0.071003 222.000000 -0.082649 20.000000 -0.179558 103.000000 0.018528 116.000000 -0.019214
149220.000000 1.539684 240.000000 237.000000 176.000000 0.004434 195.000000 0.147693 216.000000 -0.118029 220.000000 -0.070317 18.000000 -0.135098 107.000000 0.000797 119.000000 -0.044485
149457.000000 1.593616 237.000000 235.000000 171.000000 0.004842 188.000000 0.169842 214.000000 -0.073639 221.000000 -0.086492 15.000000 -0.104943 140.000000 -0.008874 153.000000 -0.024485
149692.000000 1.613493 235.000000 231.000000 144.000000 -0.005877 182.000000 0.187352 205.000000 -0.075843 216.000000 -0.096438 15.000000 -0.105690 100.000000 -0.008527 114.000000 -0.049247
150404.000000 1.691926 240.000000 237.000000 128.000000 -0.055251 189.000000 0.181754 217.000000 -0.088091 220.000000 -0.113765 17.000000 -0.180238 115.000000 -0.026020 128.000000 -0.055251
150641.000000 1.772409 237.000000 233.000000 149.000000 -0.042413 185.000000 0.181787 189.000000 0.175157 216.000000 -0.074218 16.000000 -0.140521 135.000000 0.001270 149.000000 -0.042413
151116.000000 1.543092 242.000000 235.000000 150.000000 -0.035110 187.000000 0.180187 210.000000 -0.077192 215.000000 -0.123289 19.000000 -0.155058 101.000000 -0.003976 126.000000 -0.022964
151351.000000 1.592437 235.000000 242.000000 150.000000 -0.059624 192.000000 0.194057 222.000000 -0.097382 226.000000 -0.084341 16.000000 -0.119394 109.000000 0.010629 120.000000 -0.039231
151835.000000 1.584786 242.000000 241.000000 165.000000 -0.019448 193.000000 0.171432 212.000000 -0.051060 225.000000 -0.090135 16.000000 -0.122551 104.000000 -0.001941 117.000000 -0.059732
152553.000000 1.574798 243.000000 245.000000 183.000000 -0.024121 201.000000 0.169750 223.000000 -0.118950 229.000000 -0.114233 17.000000 -0.120925 119.000000 -0.001427 128.000000 -0.047883
152798.000000 1.581236 245.000000 240.000000 158.000000 -0.040093 193.000000 0.191866 215.000000 -0.096425 216.000000 -0.087051 17.000000 -0.152384 111.000000 -0.011003 158.000000 -0.040093
153038.000000 1.592934 240.000000 231.000000 148.000000 -0.024483 183.000000 0.193419 210.000000 -0.101376 213.000000 -0.118383 21.000000 -0.219212 101.000000 0.017525 120.000000 -0.071001
153742.000000 1.509498 236.000000 240.000000 173.000000 0.197949 192.000000 0.334563 220.000000 -0.054230 220.000000 -0.054230 20.000000 -0.305690 138.000000 0.229972 155.000000 0.200833
153982.000000 1.504295 240.000000 247.000000 182.000000 -0.048903 201.000000 0.182180 223.000000 -0.113638 229.000000 -0.142260 18.000000 -0.200785 108.000000 -0.002805 122.000000 -0.085172
154467.000000 1.626473 238.000000 238.000000 168.000000 -0.009625 194.000000 0.163901 215.000000 -0.132838 217.000000 -0.109453 17.000000 -0.173168 102.000000 0.031127 122.000000 -0.051584
154705.000000 1.509107 238.000000 250.000000 173.000000 0.061676 199.000000 0.247615 221.000000 -0.049013 235.000000 -0.062319 18.000000 -0.173212 105.000000 0.023793 120.000000 -0.020894
154955.000000 1.527320 250.000000 250.000000 180.000000 0.016626 203.000000 0.224950 230.000000 -0.105146 234.000000 -0.078891 16.000000 -0.098215 109.000000 0.021831 126.000000 -0.010347
155205.000000 1.562959 250.000000 247.000000 174.000000 0.014215 204.000000 0.174891 226.000000 -0.100625 232.000000 -0.141895 16.000000 -0.156962 106.000000 0.021082 115.000000 -0.052930
155452.000000 1.553183 247.000000 239.000000 144.000000 -0.018370 192.000000 0.157932 213.000000 -0.113070 222.000000 -0.120516 14.000000 -0.074639 101.000000 0.023791 110.000000 -0.010833
155691.000000 1.447412 239.000000 244.000000 173.000000 -0.002461 193.000000 0.163806 219.000000 -0.113529 220.000000 -0.109156 15.000000 -0.110173 104.000000 -0.009058 117.000000 -0.043746
155935.000000 1.510011 244.000000 240.000000 173.000000 -0.003320 191.000000 0.197368 216.000000 -0.101330 222.000000 -0.143241 16.000000 -0.134991 132.000000 0.013735 151.000000 -0.024088
156175.000000 1.487150 240.000000 248.000000 179.000000 0.004828 204.000000 0.175675 220.000000 -0.096832 232.000000 -0.102365 16.000000 -0.110939 109.000000 0.054625 130.000000 -0.019169
156667.000000 1.599627 244.000000 240.000000 154.000000 -0.030817 193.000000 0.221863 217.000000 -0.066788 223.000000 -0.104547 13.000000 -0.014339 109.000000 0.003134 121.000000 -0.011632
156907.000000 1.543558 240.000000 237.000000 155.000000 -0.007289 188.000000 0.180360 215.000000 -0.088054 217.000000 -0.069527 15.000000 -0.110738 121.000000 0.001987 128.000000 -0.040630
157144.000000 1.537591 237.000000 247.000000 178.000000 0.002339 195.000000 0.198813 222.000000 -0.085969 225.000000 -0.112772 15.000000 -0.115683 102.000000 0.005376 114.000000 -0.027696
157632.000000 1.529675 241.000000 241.000000 172.000000 0.013248 193.000000 0.182244 219.000000 -0.096660 223.000000 -0.061457 17.000000 -0.170828 104.000000 0.008716 123.000000 -0.048587
157873.000000 1.578651 241.000000 234.000000 150.000000 0.003290 185.000000 0.214420 214.000000 -0.079845 217.000000 -0.096429 16.000000 -0.111524 102.000000 0.021737 121.000000 -0.064281
158107.000000 1.671047 234.000000 237.000000 167.000000 -0.002301 188.000000 0.179924 216.000000 -0.101960 220.000000 -0.113355 16.000000 -0.118717 135.000000 -0.001565 154.000000 -0.026408
158344.000000 1.609417 237.000000 233.000000 139.000000 0.011725 183.000000 0.247052 212.000000 -0.104999 214.000000 -0.110125 16.000000 -0.122919 138.000000 0.016365 148.000000 -0.022147
158577.000000 1.648860 233.000000 239.000000 151.000000 -0.054606 189.000000 0.206645 212.000000 -0.095482 222.000000 -0.115182 15.000000 -0.118508 109.000000 -0.011159 117.000000 -0.039090
158816.000000 1.603359 239.000000 242.000000 171.000000 0.021273 194.000000 0.190677 220.000000 -0.115623 226.000000 -0.135655 18.000000 -0.165751 110.000000 0.024969 119.000000 -0.030893
159058.000000 1.626224 242.000000 236.000000 169.000000 0.012322 187.000000 0.186448 209.000000 -0.070513 219.000000 -0.083083 15.000000 -0.120894 108.000000 0.001974 116.000000 -0.043652
159294.000000 1.749189 236.000000 229.000000 139.000000 -0.037818 183.000000 0.228810 207.000000 -0.050153 208.000000 -0.050058 17.000000 -0.116645 136.000000 -0.024182 141.000000 -0.047144
159523.000000 1.741995 229.000000 242.000000 167.000000 0.037070 193.000000 0.210032 219.000000 -0.091551 220.000000 -0.096535 18.000000 -0.150150 110.000000 -0.024541 122.000000 -0.051125
159765.000000 1.661695 242.000000 243.000000 176.000000 -0.005673 196.000000 0.194342 217.000000 -0.059795 235.000000 0.039218 17.000000 -0.173915 110.000000 -0.011112 126.000000 -0.051317
160008.000000 1.609265 243.000000 237.000000 148.000000 -0.019637 188.000000 0.232948 215.000000 -0.043148 221.000000 -0.098759 13.000000 -0.074466 130.000000 -0.000828 135.000000 -0.043258
160245.000000 1.575552 237.000000 232.000000 149.000000 -0.047947 181.000000 0.187225 213.000000 -0.094970 216.000000 -0.085737 17.000000 -0.149416 135.000000 -0.011912 150.000000 -0.052696
160477.000000 1.597164 232.000000 236.000000 137.000000 -0.046284 188.000000 0.198088 203.000000 -0.021883 216.000000 -0.090239 17.000000 -0.103905 140.000000 -0.025658 203.000000 -0.021883
160713.000000 1.560842 236.000000 235.000000 145.000000 -0.021209 187.000000 0.187243 213.000000 -0.096737 213.000000 -0.096737 19.000000 -0.170803 109.000000 -0.000707 145.000000 -0.021209
161187.000000 1.606992 239.000000 245.000000 138.000000 -0.053372 197.000000 0.197071 214.000000 -0.018555 228.000000 -0.067017 20.000000 -0.164794 127.000000 -0.033527 138.000000 -0.053372
161666.000000 1.647482 234.000000 231.000000 160.000000 -0.001863 186.000000 0.221116 202.000000 -0.006342 204.000000 -0.037267 19.000000 -0.163146 129.000000 -0.019671 135.000000 -0.043133
161897.000000 1.611213 231.000000 239.000000 116.000000 -0.069563 196.000000 0.183087 214.000000 -0.101019 223.000000 -0.060674 23.000000 -0.180433 102.000000 -0.021710 106.000000 -0.049029
162136.000000 1.593401 239.000000 246.000000 169.000000 0.000204 197.000000 0.195045 222.000000 -0.063734 229.000000 -0.091351 16.000000 -0.111567 107.000000 -0.019026 118.000000 -0.064637
162382.000000 1.647032 246.000000 235.000000 138.000000 -0.067133 190.000000 0.195659 211.000000 -0.099971 214.000000 -0.061429 17.000000 -0.152591 132.000000 -0.007947 138.000000 -0.067133
162617.000000 1.634619 235.000000 229.000000 151.000000 -0.024969 183.000000 0.204750 205.000000 -0.076866 209.000000 -0.069232 20.000000 -0.184065 103.000000 -0.024295 117.000000 -0.056458
162846.000000 1.636039 229.000000 231.000000 154.000000 -0.028247 183.000000 0.210529 211.000000 -0.087573 212.000000 -0.097965 18.000000 -0.151578 100.000000 -0.016191 123.000000 -0.047590
163077.000000 1.764468 231.000000 237.000000 174.000000 0.022631 191.000000 0.198555 217.000000 -0.078697 217.000000 -0.078697 14.000000 -0.074747 108.000000 -0.013855 118.000000 -0.063668
163553.000000 1.650205 239.000000 241.000000 167.000000 -0.010297 192.000000 0.197338 223.000000 -0.079697 223.000000 -0.079697 17.000000 -0.138602 128.000000 -0.012084 143.000000 -0.052661
163794.000000 1.551088 241.000000 232.000000 130.000000 -0.058573 183.000000 0.192197 213.000000 -0.075327 215.000000 -0.096519 19.000000 -0.184148 127.000000 -0.029467 138.000000 -0.038118
164026.000000 1.654967 232.000000 233.000000 170.000000 0.037352 188.000000 0.195158 206.000000 -0.033007 215.000000 -0.061502 19.000000 -0.168952 109.000000 -0.029765 117.000000 -0.062318
164493.000000 1.700099 234.000000 247.000000 173.000000 -0.009562 195.000000 0.183777 225.000000 -0.096630 229.000000 -0.083023 17.000000 -0.134463 109.000000 -0.014200 117.000000 -0.058919
164740.000000 1.567889 247.000000 236.000000 163.000000 0.009482 188.000000 0.182945 205.000000 -0.048558 219.000000 -0.082244 18.000000 -0.150545 129.000000 -0.024575 142.000000 -0.039810
164976.000000 1.628208 236.000000 232.000000 155.000000 -0.010361 188.000000 0.200894 204.000000 0.000297 213.000000 -0.055267 24.000000 -0.159693 110.000000 -0.019704 123.000000 -0.056678
165208.000000 1.649014 232.000000 234.000000 147.000000 -0.033026 187.000000 0.214922 211.000000 -0.075975 217.000000 -0.088326 17.000000 -0.119807 139.000000 -0.013590 163.000000 0.040346
165442.000000 1.620860 234.000000 239.000000 173.000000 0.009045 193.000000 0.199138 218.000000 -0.086725 223.000000 -0.093214 16.000000 -0.126884 108.000000 -0.011317 128.000000 -0.048541
165681.000000 1.527383 239.000000 237.000000 139.000000 -0.048762 186.000000 0.191487 201.000000 0.050248 212.000000 -0.063860 16.000000 -0.131974 99.000000 -0.012225 117.000000 -0.052618
165918.000000 1.593494 237.000000 239.000000 148.000000 -0.027712 189.000000 0.200706 217.000000 -0.080692 220.000000 -0.071914 23.000000 -0.166552 141.000000 -0.022885 148.000000 -0.027712
166157.000000 1.612525 239.000000 232.000000 167.000000 0.022491 185.000000 0.237270 211.000000 -0.042921 213.000000 -0.053658 16.000000 -0.097990 102.000000 -0.017364 116.000000 -0.028088
166624.000000 1.503945 235.000000 229.000000 123.000000 -0.045864 180.000000 0.188302 190.000000 0.128036 203.000000 -0.072749 15.000000 -0.095348 129.000000 -0.023419 190.000000 0.128036
166853.000000 1.648033 229.000000 241.000000 167.000000 0.014654 188.000000 0.201174 194.000000 0.154058 224.000000 -0.069860 21.000000 -0.158814 130.000000 -0.035155 136.000000 -0.058321
167326.000000 1.619768 232.000000 235.000000 159.000000 0.001299 189.000000 0.188275 216.000000 -0.083584 216.000000 -0.083584 19.000000 -0.178084 121.000000 -0.014046 129.000000 -0.053779
167789.000000 1.670191 228.000000 234.000000 120.000000 -0.059122 186.000000 0.220363 209.000000 -0.076174 211.000000 -0.072239 18.000000 -0.152946 103.000000 -0.033543 120.000000 -0.059122
168023.000000 1.688386 234.000000 228.000000 150.000000 -0.030907 182.000000 0.202291 208.000000 -0.059450 211.000000 -0.099812 17.000000 -0.150108 133.000000 -0.022913 138.000000 -0.041941
168251.000000 1.596755 228.000000 237.000000 140.000000 -0.076945 189.000000 0.190313 213.000000 -0.076679 221.000000 -0.073483 17.000000 -0.115565 110.000000 -0.013259 126.000000 -0.087714
168488.000000 1.633355 237.000000 236.000000 168.000000 0.007524 190.000000 0.175719 215.000000 -0.087840 218.000000 -0.079344 18.000000 -0.104357 112.000000 -0.032348 123.000000 -0.051895
168724.000000 1.719343 236.000000 233.000000 116.000000 -0.050912 184.000000 0.207584 205.000000 -0.052180 217.000000 -0.087444 17.000000 -0.161942 138.000000 -0.025488 199.000000 0.040390
168957.000000 1.682011 233.000000 226.000000 144.000000 -0.049311 180.000000 0.211835 194.000000 0.025658 211.000000 -0.086643 16.000000 -0.115279 98.000000 -0.019340 123.000000 -0.043261
169183.000000 1.583078 226.000000 239.000000 153.000000 -0.032477 187.000000 0.196520 216.000000 -0.062676 222.000000 -0.085058 18.000000 -0.153176 140.000000 -0.023998 154.000000 -0.031145
169422.000000 1.604288 239.000000 239.000000 169.000000 0.006330 198.000000 0.185581 215.000000 -0.073822 216.000000 -0.074339 18.000000 -0.156968 115.000000 -0.017086 124.000000 -0.056193
169661.000000 1.677946 239.000000 235.000000 160.000000 -0.008181 186.000000 0.200234 214.000000 -0.073061 214.000000 -0.073061 20.000000 -0.178261 140.000000 -0.021789 160.000000 -0.008181
169896.000000 1.700480 235.000000 225.000000 153.000000 -0.024184 178.000000 0.211317 202.000000 -0.059031 206.000000 -0.060660 20.000000 -0.173908 131.000000 -0.025189 153.000000 -0.024184
170121.000000 1.621957 225.000000 229.000000 129.000000 -0.074547 181.000000 0.199593 208.000000 -0.063087 213.000000 -0.105079 19.000000 -0.146399 102.000000 -0.017181 120.000000 -0.085048
170350.000000 1.592824 229.000000 230.000000 130.000000 -0.059385 185.000000 0.207306 208.000000 -0.046435 211.000000 -0.083176 17.000000 -0.128443 134.000000 -0.014526 208.000000 -0.046435
170580.000000 1.686338 230.000000 234.000000 150.000000 -0.054856 185.000000 0.207715 214.000000 -0.075685 218.000000 -0.082299 19.000000 -0.162802 134.000000 -0.030202 151.000000 -0.064684
170814.000000 1.661931 234.000000 238.000000 132.000000 -0.069868 189.000000 0.220943 209.000000 -0.054010 223.000000 -0.094872 16.000000 -0.118510 106.000000 -0.024620 132.000000 -0.069868
171052.000000 1.615156 238.000000 227.000000 146.000000 -0.032116 180.000000 0.209152 198.000000 -0.039201 210.000000 -0.080158 16.000000 -0.111881 105.000000 -0.020955 118.000000 -0.048650
171279.000000 1.642004 227.000000 225.000000 146.000000 -0.018416 181.000000 0.208981 199.000000 -0.034075 207.000000 -0.082696 17.000000 -0.130410 106.000000 -0.023620 114.000000 -0.065501
171504.000000 1.794480 225.000000 228.000000 150.000000 -0.031943 180.000000 0.197758 198.000000 -0.025534 211.000000 -0.085846 17.000000 -0.143608 133.000000 -0.018509 150.000000 -0.031943
171732.000000 1.732460 228.000000 241.000000 134.000000 -0.033288 193.000000 0.203386 212.000000 -0.066301 223.000000 -0.121411 13.000000 -0.041946 109.000000 -0.022946 125.000000 -0.052097
171973.000000 1.635499 241.000000 230.000000 99.000000 -0.098779 183.000000 0.224592 202.000000 -0.042134 210.000000 -0.081993 17.000000 -0.157230 108.000000 -0.002038 198.000000 0.015454
172203.000000 1.666110 230.000000 229.000000 149.000000 -0.016315 186.000000 0.206582 206.000000 -0.047794 210.000000 -0.089439 17.000000 -0.167477 106.000000 0.004423 118.000000 -0.014214
172432.000000 1.792755 229.000000 228.000000 159.000000 -0.012099 181.000000 0.219669 206.000000 -0.065175 212.000000 -0.072213 17.000000 -0.184769 130.000000 -0.022833 146.000000 -0.044294
172892.000000 1.614900 232.000000 226.000000 156.000000 -0.038338 178.000000 0.214435 205.000000 -0.081598 208.000000 -0.062790 19.000000 -0.184850 128.000000 -0.010342 140.000000 -0.022584
173118.000000 1.642210 226.000000 235.000000 133.000000 -0.069470 187.000000 0.209558 215.000000 -0.084250 216.000000 -0.089563 17.000000 -0.146677 115.000000 -0.009174 119.000000 -0.064252
173353.000000 1.648575 235.000000 235.000000 150.000000 -0.047129 190.000000 0.190581 213.000000 -0.080749 216.000000 -0.062411 18.000000 -0.192101 108.000000 0.001741 126.000000 -0.058147
173820.000000 1.664942 232.000000 225.000000 151.000000 0.003512 179.000000 0.222511 206.000000 -0.033569 206.000000 -0.033569 20.000000 -0.199825 98.000000 -0.015862 119.000000 -0.061771
174280.000000 1.587660 235.000000 240.000000 172.000000 0.005725 192.000000 0.198213 220.000000 -0.077934 224.000000 -0.084674 16.000000 -0.114770 107.000000 -0.005216 115.000000 -0.040528
174520.000000 1.640388 240.000000 233.000000 144.000000 -0.014391 185.000000 0.212630 214.000000 -0.041385 217.000000 -0.042749 14.000000 -0.048985 131.000000 -0.026694 144.000000 -0.014391
174753.000000 1.716591 233.000000 227.000000 153.000000 -0.012005 181.000000 0.201365 202.000000 -0.051804 211.000000 -0.055692 14.000000 -0.059677 125.000000 -0.024590 132.000000 -0.056111
174980.000000 1.618947 227.000000 233.000000 156.000000 -0.024248 186.000000 0.196723 211.000000 -0.064705 216.000000 -0.076695 20.000000 -0.153074 138.000000 -0.009578 147.000000 -0.043261
175213.000000 1.566329 233.000000 231.000000 147.000000 -0.030631 186.000000 0.199668 210.000000 -0.073780 214.000000 -0.085912 17.000000 -0.119453 111.000000 -0.011538 124.000000 -0.046790
175444.000000 1.650469 231.000000 236.000000 144.000000 -0.031425 190.000000 0.177337 217.000000 -0.070686 219.000000 -0.091595 17.000000 -0.135923 119.000000 -0.023713 133.000000 -0.066865
175915.000000 1.670800 235.000000 232.000000 154.000000 -0.029845 188.000000 0.210298 212.000000 -0.069359 215.000000 -0.075330 18.000000 -0.154607 128.000000 -0.011554 148.000000 -0.042587
176147.000000 1.584218 232.000000 230.000000 146.000000 -0.009764 184.000000 0.214657 210.000000 -0.066864 214.000000 -0.098493 17.000000 -0.125782 109.000000 -0.031741 115.000000 -0.050880
176377.000000 1.644379 230.000000 230.000000 151.000000 -0.030768 184.000000 0.217961 209.000000 -0.087083 213.000000 -0.084310 19.000000 -0.169227 137.000000 -0.024010 151.000000 -0.030768
176607.000000 1.735892 230.000000 240.000000 148.000000 -0.038428 189.000000 0.209566 215.000000 -0.054962 222.000000 -0.096827 19.000000 -0.179690 110.000000 -0.016348 123.000000 -0.064449
177079.000000 1.744686 232.000000 232.000000 125.000000 -0.077915 187.000000 0.227460 211.000000 -0.065677 215.000000 -0.057041 20.000000 -0.169654 107.000000 -0.022159 125.000000 -0.077915
177311.000000 1.648695 232.000000 229.000000 146.000000 -0.029592 183.000000 0.201962 201.000000 -0.052194 210.000000 -0.086848 15.000000 -0.100049 101.000000 -0.022637 113.000000 -0.052902
177775.000000 1.626884 235.000000 232.000000 151.000000 -0.027650 179.000000 0.195359 219.000000 -0.104799 222.000000 -0.016679 16.000000 -0.116205 105.000000 -0.028462 117.000000 -0.059968
178007.000000 1.732693 232.000000 237.000000 134.000000 -0.077130 187.000000 0.195645 193.000000 0.172651 220.000000 -0.063998 14.000000 -0.044111 140.000000 -0.041723 193.000000 0.172651
178244.000000 1.699684 237.000000 237.000000 153.000000 -0.015845 190.000000 0.203042 211.000000 -0.052525 220.000000 -0.096256 14.000000 -0.079501 106.000000 -0.028716 122.000000 -0.078057
178481.000000 1.642818 237.000000 232.000000 150.000000 -0.061363 188.000000 0.190783 210.000000 -0.084549 215.000000 -0.066900 15.000000 -0.096679 134.000000 -0.017086 150.000000 -0.061363
178713.000000 1.562581 232.000000 227.000000 154.000000 -0.027257 179.000000 0.184404 205.000000 -0.078229 208.000000 -0.089685 16.000000 -0.118577 127.000000 -0.014954 133.000000 -0.043260
179176.000000 1.705381 236.000000 240.000000 171.000000 0.013812 194.000000 0.206179 219.000000 -0.067629 224.000000 -0.094762 18.000000 -0.171030 111.000000 -0.022871 134.000000 -0.060251
179416.000000 1.598653 240.000000 236.000000 170.000000 0.015893 189.000000 0.202476 212.000000 -0.093057 221.000000 -0.086771 16.000000 -0.112273 108.000000 -0.008059 120.000000 -0.037353
179652.000000 1.588494 236.000000 224.000000 143.000000 -0.038875 175.000000 0.216939 195.000000 -0.050771 209.000000 -0.076398 17.000000 -0.125203 99.000000 -0.023418 113.000000 -0.061692
180106.000000 1.678133 230.000000 230.000000 130.000000 -0.050531 183.000000 0.210486 208.000000 -0.055673 213.000000 -0.052647 16.000000 -0.127919 137.000000 -0.019467 208.000000 -0.055673
180336.000000 1.598341 230.000000 237.000000 141.000000 -0.041318 192.000000 0.173010 215.000000 -0.086430 218.000000 -0.082134 15.000000 -0.083915 113.000000 -0.008541 118.000000 -0.042115
180573.000000 1.631316 237.000000 237.000000 170.000000 -0.007662 188.000000 0.202507 213.000000 -0.065064 220.000000 -0.106553 20.000000 -0.178715 139.000000 -0.012757 145.000000 -0.041034
180810.000000 1.695013 237.000000 230.000000 113.000000 -0.073167 181.000000 0.197808 193.000000 0.092541 200.000000 -0.045295 17.000000 -0.133638 131.000000 -0.039138 207.000000 -0.082725
181269.000000 1.656654 229.000000 233.000000 148.000000 -0.056521 187.000000 0.199374 207.000000 -0.087725 216.000000 -0.090482 17.000000 -0.154991 104.000000 -0.036329 126.000000 -0.058121
181741.000000 1.674911 239.000000 232.000000 122.000000 -0.077383 183.000000 0.200850 211.000000 -0.073097 215.000000 -0.089555 20.000000 -0.197457 136.000000 -0.022929 211.000000 -0.073097
181973.000000 1.698892 232.000000 229.000000 151.000000 -0.054014 183.000000 0.191565 206.000000 -0.058498 212.000000 -0.094690 16.000000 -0.085026 107.000000 -0.015357 121.000000 -0.034749
182202.000000 1.623005 229.000000 231.000000 149.000000 -0.057369 184.000000 0.187975 210.000000 -0.082122 212.000000 -0.072827 17.000000 -0.182636 109.000000 -0.024796 119.000000 -0.059200
182433.000000 1.630276 231.000000 233.000000 135.000000 -0.054311 187.000000 0.208354 212.000000 -0.061303 216.000000 -0.077478 17.000000 -0.169235 128.000000 -0.031098 135.000000 -0.054311
182666.000000 1.701892 233.000000 233.000000 142.000000 -0.071396 183.000000 0.207901 211.000000 -0.075646 215.000000 -0.082026 20.000000 -0.186007 137.000000 -0.027086 142.000000 -0.071396
182899.000000 1.636796 233.000000 235.000000 127.000000 -0.049952 186.000000 0.183180 215.000000 -0.050570 217.000000 -0.071338 16.000000 -0.118186 107.000000 -0.026392 127.000000 -0.049952
183134.000000 1.537692 235.000000 232.000000 143.000000 -0.061176 186.000000 0.194434 211.000000 -0.060709 216.000000 -0.092574 16.000000 -0.082039 136.000000 -0.022148 143.000000 -0.061176
183366.000000 1.616565 232.000000 230.000000 124.000000 -0.086945 184.000000 0.189059 208.000000 -0.075583 214.000000 -0.073045 19.000000 -0.163749 107.000000 -0.021912 124.000000 -0.086945
183596.000000 1.706267 230.000000 228.000000 147.000000 -0.050172 180.000000 0.196206 204.000000 -0.053861 208.000000 -0.090303 18.000000 -0.176413 132.000000 -0.031159 147.000000 -0.050172
183824.000000 1.613144 228.000000 235.000000 142.000000 -0.043636 186.000000 0.185926 211.000000 -0.092317 217.000000 -0.080075 16.000000 -0.131024 108.000000 -0.021362 124.000000 -0.066927
184059.000000 1.557154 235.000000 231.000000 151.000000 -0.033572 184.000000 0.210473 207.000000 -0.030921 212.000000 -0.062991 16.000000 -0.118708 111.000000 -0.024702 119.000000 -0.043556
184290.000000 1.639329 231.000000 229.000000 136.000000 -0.051115 182.000000 0.190907 205.000000 -0.058232 207.000000 -0.068483 17.000000 -0.131927 109.000000 -0.031727 118.000000 -0.056821
184519.000000 1.598868 229.000000 225.000000 151.000000 -0.034621 177.000000 0.185407 203.000000 -0.064564 207.000000 -0.071022 20.000000 -0.161838 98.000000 -0.030596 113.000000 -0.076786
184971.000000 1.638124 227.000000 226.000000 120.000000 -0.094074 181.000000 0.197021 195.000000 0.023291 208.000000 -0.049765 15.000000 -0.076251 114.000000 -0.042945 123.000000 -0.052695
185197.000000 1.650014 226.000000 233.000000 150.000000 -0.035097 188.000000 0.205736 213.000000 -0.054576 218.000000 -0.096347 16.000000 -0.087824 113.000000 -0.027980 127.000000 -0.067541
185430.000000 1.653496 233.000000 237.000000 124.000000 -0.079138 192.000000 0.194341 213.000000 -0.060724 219.000000 -0.058907 17.000000 -0.131334 107.000000 -0.039076 124.000000 -0.079138
185667.000000 1.668289 237.000000 226.000000 154.000000 -0.024092 184.000000 0.208540 205.000000 -0.076651 208.000000 -0.063233 20.000000 -0.172163 126.000000 -0.022731 131.000000 -0.061132
185893.000000 1.689276 226.000000 225.000000 140.000000 -0.022085 178.000000 0.198246 204.000000 -0.079766 206.000000 -0.070675 15.000000 -0.113074 105.000000 -0.030468 109.000000 -0.062116
186349.000000 1.571162 231.000000 241.000000 167.000000 0.024201 194.000000 0.190016 218.000000 -0.080674 222.000000 -0.042539 16.000000 -0.112755 140.000000 -0.012164 147.000000 -0.041803
186590.000000 1.641368 241.000000 233.000000 124.000000 -0.070284 186.000000 0.198964 209.000000 -0.038431 213.000000 -0.065484 17.000000 -0.119853 137.000000 -0.028027 209.000000 -0.038431
186823.000000 1.640349 233.000000 225.000000 146.000000 -0.006019 182.000000 0.211300 208.000000 -0.077293 209.000000 -0.077497 16.000000 -0.136548 120.000000 -0.008073 127.000000 -0.028417
187048.000000 1.613758 225.000000 228.000000 146.000000 -0.038858 183.000000 0.220231 207.000000 -0.042121 209.000000 -0.057889 15.000000 -0.100080 101.000000 -0.026789 113.000000 -0.037276
187507.000000 1.659465 231.000000 230.000000 142.000000 -0.044124 182.000000 0.198949 198.000000 -0.007338 216.000000 -0.094251 17.000000 -0.165551 133.000000 -0.015331 142.000000 -0.044124
187737.000000 1.626940 230.000000 231.000000 156.000000 -0.018762 183.000000 0.175939 205.000000 -0.053998 212.000000 -0.081474 16.000000 -0.096635 132.000000 -0.022510 137.000000 -0.056381
187968.000000 1.562599 231.000000 229.000000 168.000000 0.021160 185.000000 0.198665 208.000000 -0.081932 211.000000 -0.063593 16.000000 -0.136696 105.000000 -0.010425 129.000000 -0.038699
188197.000000 1.560246 229.000000 225.000000 149.000000 -0.024812 180.000000 0.187428 205.000000 -0.087823 208.000000 -0.088983 15.000000 -0.095145 103.000000 -0.004486 120.000000 -0.050566
188422.000000 1.574699 225.000000 222.000000 145.000000 -0.031552 178.000000 0.200703 202.000000 -0.054545 205.000000 -0.070125 15.000000 -0.091521 106.000000 -0.019670 115.000000 -0.081300
188644.000000 1.651962 222.000000 234.000000 134.000000 -0.070098 184.000000 0.197237 206.000000 -0.048842 221.000000 -0.092979 15.000000 -0.064777 126.000000 -0.030193 134.000000 -0.070098
189112.000000 1.532131 234.000000 229.000000 125.000000 -0.041241 184.000000 0.204311 205.000000 -0.072082 214.000000 -0.087142 19.000000 -0.168873 112.000000 -0.026944 118.000000 -0.086177
189341.000000 1.576403 229.000000 224.000000 152.000000 -0.035267 175.000000 0.187808 184.000000 0.133264 206.000000 -0.081954 18.000000 -0.174821 126.000000 -0.015989 130.000000 -0.049656
189792.000000 1.661742 227.000000 229.000000 150.000000 -0.018366 183.000000 0.179644 207.000000 -0.070260 208.000000 -0.060605 19.000000 -0.176911 105.000000 0.001036 127.000000 -0.041078
190021.000000 1.591746 229.000000 234.000000 149.000000 -0.030904 188.000000 0.205317 211.000000 -0.046235 214.000000 -0.047599 15.000000 -0.076217 112.000000 -0.035687 122.000000 -0.071391
190491.000000 1.625799 236.000000 228.000000 157.000000 -0.023794 182.000000 0.178310 196.000000 0.022951 211.000000 -0.067817 18.000000 -0.156662 102.000000 -0.018983 113.000000 -0.053699
190719.000000 1.648029 228.000000 228.000000 154.000000 -0.051597 183.000000 0.177791 206.000000 -0.088791 211.000000 -0.081441 14.000000 -0.090514 101.000000 -0.026438 122.000000 -0.078069
190947.000000 1.611173 228.000000 234.000000 143.000000 -0.032680 185.000000 0.213809 215.000000 -0.074152 218.000000 -0.085202 17.000000 -0.140222 138.000000 -0.013133 155.000000 -0.023370
191181.000000 1.625189 234.000000 241.000000 174.000000 0.010236 192.000000 0.176097 220.000000 -0.092807 223.000000 -0.089092 18.000000 -0.163856 107.000000 -0.029185 120.000000 -0.047100
191422.000000 1.648210 241.000000 231.000000 121.000000 -0.056958 183.000000 0.186991 211.000000 -0.080267 216.000000 -0.072368 18.000000 -0.168295 107.000000 -0.028683 121.000000 -0.056958
191653.000000 1.692130 231.000000 227.000000 158.000000 -0.021912 183.000000 0.189826 202.000000 -0.043732 206.000000 -0.080143 17.000000 -0.133966 106.000000 -0.032462 116.000000 -0.053464
191880.000000 1.661532 227.000000 230.000000 164.000000 0.024858 186.000000 0.181048 201.000000 -0.010033 216.000000 -0.090331 16.000000 -0.137402 104.000000 -0.011462 112.000000 -0.065191
192110.000000 1.555641 230.000000 231.000000 162.000000 0.014591 185.000000 0.207992 210.000000 -0.042008 210.000000 -0.042008 13.000000 -0.077432 106.000000 -0.024059 118.000000 -0.048072
192341.000000 1.571173 231.000000 234.000000 156.000000 -0.032695 184.000000 0.187132 215.000000 -0.085345 219.000000 -0.102399 20.000000 -0.160018 135.000000 -0.014059 143.000000 -0.048105
192807.000000 1.606153 232.000000 228.000000 128.000000 -0.022726 185.000000 0.198745 209.000000 -0.076445 214.000000 -0.048043 14.000000 -0.089082 104.000000 -0.011113 127.000000 -0.028101
193035.000000 1.532409 228.000000 228.000000 127.000000 -0.033166 183.000000 0.172224 197.000000 -0.008718 209.000000 -0.063845 14.000000 -0.071352 105.000000 -0.006773 127.000000 -0.033166
193263.000000 1.594069 228.000000 226.000000 154.000000 -0.012680 180.000000 0.190124 203.000000 -0.079013 209.000000 -0.066600 19.000000 -0.159081 103.000000 -0.022244 115.000000 -0.046929
193489.000000 1.632661 226.000000 236.000000 133.000000 -0.038038 187.000000 0.195267 209.000000 -0.073274 218.000000 -0.090875 14.000000 -0.061400 139.000000 -0.026471 207.000000 -0.062631
193958.000000 1.601264 233.000000 231.000000 157.000000 -0.009832 184.000000 0.182534 202.000000 -0.004613 210.000000 -0.077152 13.000000 -0.045226 131.000000 -0.010978 144.000000 -0.043031
194189.000000 1.521565 231.000000 227.000000 153.000000 -0.017698 182.000000 0.177666 204.000000 -0.092587 208.000000 -0.064577 16.000000 -0.148417 127.000000 0.000155 135.000000 -0.027854
194416.000000 1.537824 227.000000 227.000000 140.000000 -0.015659 179.000000 0.182885 205.000000 -0.093605 208.000000 -0.094968 20.000000 -0.176611 102.000000 -0.001410 120.000000 -0.060911
194643.000000 1.587980 227.000000 227.000000 147.000000 -0.034578 179.000000 0.195202 204.000000 -0.071554 209.000000 -0.067603 16.000000 -0.122677 106.000000 -0.021140 115.000000 -0.037411
194870.000000 1.693808 227.000000 235.000000 170.000000 0.007335 187.000000 0.193714 213.000000 -0.074373 217.000000 -0.090125 19.000000 -0.144295 107.000000 -0.042868 122.000000 -0.096598
195105.000000 1.710706 235.000000 242.000000 175.000000 0.009904 193.000000 0.202177 220.000000 -0.067996 226.000000 -0.094751 17.000000 -0.107320 109.000000 -0.020422 132.000000 -0.063492
195347.000000 1.665484 242.000000 229.000000 151.000000 -0.028794 181.000000 0.203716 213.000000 -0.104828 214.000000 -0.095298 15.000000 -0.093278 107.000000 -0.023511 117.000000 -0.058651
195576.000000 1.578948 229.000000 225.000000 148.000000 -0.043981 179.000000 0.229905 200.000000 -0.059420 208.000000 -0.068134 14.000000 -0.057258 121.000000 -0.026644 128.000000 -0.053370
195801.000000 1.665140 225.000000 235.000000 150.000000 -0.047963 184.000000 0.185127 205.000000 -0.042521 216.000000 -0.080624 17.000000 -0.139970 110.000000 -0.028605 122.000000 -0.066474
196036.000000 1.695097 235.000000 240.000000 136.000000 -0.071706 190.000000 0.175899 217.000000 -0.079776 222.000000 -0.075795 13.000000 -0.087112 126.000000 -0.040768 136.000000 -0.071706
196508.000000 1.628368 232.000000 225.000000 154.000000 -0.039452 178.000000 0.181237 195.000000 -0.023306 209.000000 -0.070967 19.000000 -0.173824 100.000000 -0.021002 111.000000 -0.046287
196733.000000 1.630917 225.000000 230.000000 163.000000 -0.005927 186.000000 0.209623 209.000000 -0.056445 211.000000 -0.053013 16.000000 -0.095494 115.000000 -0.028245 129.000000 -0.056836
196963.000000 1.629556 230.000000 231.000000 153.000000 -0.033937 187.000000 0.179400 210.000000 -0.067043 215.000000 -0.074221 17.000000 -0.115021 137.000000 -0.031993 153.000000 -0.033937
197194.000000 1.777819 231.000000 233.000000 114.000000 -0.062740 187.000000 0.186157 211.000000 -0.100960 218.000000 -0.068280 17.000000 -0.109327 97.000000 -0.039151 114.000000 -0.062740
197427.000000 1.673193 233.000000 236.000000 127.000000 -0.059183 188.000000 0.202525 216.000000 -0.093010 220.000000 -0.124233 15.000000 -0.104723 104.000000 -0.021036 127.000000 -0.059183
197663.000000 1.686078 236.000000 229.000000 150.000000 -0.011787 183.000000 0.217897 210.000000 -0.085914 210.000000 -0.085914 16.000000 -0.113216 108.000000 -0.013871 122.000000 -0.040595
197892.000000 1.611105 229.000000 227.000000 163.000000 0.014998 181.000000 0.224876 207.000000 -0.072803 211.000000 -0.085184 17.000000 -0.171135 132.000000 -0.017177 151.000000 -0.036050
198347.000000 1.717073 228.000000 238.000000 143.000000 -0.060762 189.000000 0.202825 219.000000 -0.053116 220.000000 -0.063366 17.000000 -0.134997 108.000000 -0.035720 129.000000 -0.088773
198585.000000 1.722195 238.000000 230.000000 154.000000 -0.037024 183.000000 0.206584 212.000000 -0.079747 212.000000 -0.079747 18.000000 -0.147995 120.000000 -0.044528 125.000000 -0.076158
198815.000000 1.679752 230.000000 227.000000 148.000000 -0.045124 181.000000 0.204092 199.000000 -0.057254 212.000000 -0.122174 17.000000 -0.144119 134.000000 -0.026049 139.000000 -0.055218
199042.000000 1.632293 227.000000 229.000000 143.000000 -0.037381 182.000000 0.206208 202.000000 -0.056615 214.000000 -0.108983 15.000000 -0.092927 98.000000 -0.029575 115.000000 -0.088979
199504.000000 1.706800 233.000000 229.000000 121.000000 -0.070296 180.000000 0.194404 202.000000 -0.051868 212.000000 -0.081698 14.000000 -0.082995 136.000000 -0.049984 198.000000 -0.029548
199733.000000 1.661186 229.000000 233.000000 142.000000 -0.038920 186.000000 0.188918 211.000000 -0.057416 216.000000 -0.083812 16.000000 -0.104504 117.000000 -0.032353 126.000000 -0.056161
200198.000000 1.533884 232.000000 228.000000 150.000000 -0.034500 181.000000 0.203040 207.000000 -0.065316 212.000000 -0.072856 14.000000 -0.065128 131.000000 -0.032810 137.000000 -0.047433
200426.000000 1.604043 228.000000 223.000000 139.000000 -0.036757 177.000000 0.198400 197.000000 -0.036992 208.000000 -0.084798 17.000000 -0.115564 131.000000 -0.018449 139.000000 -0.036757
200649.000000 1.580750 223.000000 232.000000 135.000000 -0.054828 185.000000 0.195345 210.000000 -0.047960 215.000000 -0.074293 15.000000 -0.047762 100.000000 -0.033717 119.000000 -0.080156
200881.000000 1.551680 232.000000 237.000000 154.000000 -0.044813 191.000000 0.193981 211.000000 -0.090345 221.000000 -0.092506 16.000000 -0.120703 110.000000 -0.013011 115.000000 -0.036788
201118.000000 1.519786 237.000000 229.000000 116.000000 -0.054702 182.000000 0.193687 203.000000 -0.049043 212.000000 -0.057165 15.000000 -0.113162 101.000000 -0.013700 116.000000 -0.054702
201568.000000 1.577658 221.000000 225.000000 136.000000 -0.043400 179.000000 0.193998 198.000000 -0.067696 210.000000 -0.126600 17.000000 -0.162858 105.000000 -0.027883 113.000000 -0.070798
201793.000000 1.509010 225.000000 228.000000 155.000000 -0.008320 183.000000 0.197386 211.000000 -0.089667 213.000000 -0.110231 13.000000 -0.058183 133.000000 -0.006626 139.000000 -0.054840
202250.000000 1.559985 229.000000 233.000000 144.000000 -0.022770 182.000000 0.191663 212.000000 -0.057629 216.000000 -0.069040 17.000000 -0.140439 120.000000 -0.026689 128.000000 -0.076188
202483.000000 1.526540 233.000000 227.000000 140.000000 -0.016112 181.000000 0.192195 205.000000 -0.061641 207.000000 -0.062237 17.000000 -0.119370 102.000000 -0.023589 117.000000 -0.040219
202710.000000 1.515993 227.000000 226.000000 138.000000 -0.041190 180.000000 0.170521 208.000000 -0.083410 209.000000 -0.083693 17.000000 -0.154555 104.000000 -0.000062 123.000000 -0.056707
202936.000000 1.530932 226.000000 226.000000 143.000000 -0.007143 179.000000 0.202200 203.000000 -0.043412 207.000000 -0.070151 16.000000 -0.139448 132.000000 -0.002378 144.000000 0.002935
203396.000000 1.536288 234.000000 236.000000 168.000000 0.007636 188.000000 0.225458 214.000000 -0.054572 220.000000 -0.081641 17.000000 -0.115202 117.000000 -0.016439 133.000000 -0.043473
203863.000000 1.516314 231.000000 226.000000 134.000000 -0.044905 177.000000 0.186411 206.000000 -0.096598 211.000000 -0.069153 15.000000 -0.101617 129.000000 0.004765 134.000000 -0.044905
204089.000000 1.575016 226.000000 228.000000 154.000000 -0.055284 178.000000 0.202160 184.000000 0.149620 210.000000 -0.087387 14.000000 -0.065862 130.000000 -0.023169 136.000000 -0.061774
204317.000000 1.526438 228.000000 227.000000 152.000000 -0.011987 179.000000 0.230334 200.000000 -0.023225 210.000000 -0.074135 15.000000 -0.074439 105.000000 -0.020720 119.000000 -0.046188
204544.000000 1.573514 227.000000 231.000000 127.000000 -0.072462 183.000000 0.176676 202.000000 -0.022526 215.000000 -0.060207 17.000000 -0.126927 106.000000 -0.025515 132.000000 -0.034704
