696.000000 1.320657 244.000000 228.000000 158.000000 -0.140503 179.000000 0.084999 199.000000 -0.247602 213.000000 -0.292366 16.000000 -0.543231 85.000000 0.368573 122.000000 -0.112540
924.000000 1.206161 228.000000 245.000000 171.000000 -0.053637 190.000000 0.149388 218.000000 -0.205597 229.000000 -0.185660 14.000000 -0.610329 83.000000 0.416790 125.000000 -0.034902
1953.000000 1.223464 245.000000 238.000000 161.000000 -0.129876 182.000000 0.106064 210.000000 -0.254436 220.000000 -0.232976 14.000000 -0.515267 85.000000 0.312807 135.000000 -0.134171
2191.000000 1.297244 238.000000 207.000000 142.000000 0.005111 160.000000 0.260047 181.000000 -0.131835 186.000000 -0.163121 12.000000 -0.522913 82.000000 0.488152 118.000000 0.014515
4754.000000 1.413450 237.000000 223.000000 153.000000 -0.149640 176.000000 0.127399 199.000000 -0.251175 209.000000 -0.251582 13.000000 -0.519699 81.000000 0.375611 111.000000 -0.093997
6161.000000 1.442491 243.000000 238.000000 161.000000 -0.054233 186.000000 0.187757 209.000000 -0.166476 219.000000 -0.207966 14.000000 -0.565441 85.000000 0.404042 122.000000 -0.109686
6630.000000 1.400471 231.000000 225.000000 156.000000 -0.130000 179.000000 0.126238 201.000000 -0.238493 212.000000 -0.226394 12.000000 -0.509842 83.000000 0.329733 117.000000 -0.178182
7091.000000 1.425601 236.000000 242.000000 173.000000 -0.066865 197.000000 0.182541 214.000000 -0.146910 225.000000 -0.179730 13.000000 -0.492282 85.000000 0.410017 120.000000 -0.065046
7333.000000 1.438985 242.000000 238.000000 160.000000 -0.069560 189.000000 0.129543 206.000000 -0.213685 210.000000 -0.226176 12.000000 -0.468019 87.000000 0.371461 120.000000 -0.096004
7813.000000 1.477508 242.000000 256.000000 186.000000 -0.124765 207.000000 0.141646 232.000000 -0.195094 237.000000 -0.202822 15.000000 -0.491081 88.000000 0.455661 138.000000 -0.079936
11171.000000 1.431384 227.000000 232.000000 163.000000 -0.129028 185.000000 0.146709 209.000000 -0.200062 216.000000 -0.172790 16.000000 -0.612081 78.000000 0.458716 113.000000 -0.111522
12809.000000 1.429196 234.000000 236.000000 165.000000 -0.080922 187.000000 0.161678 207.000000 -0.183132 212.000000 -0.195216 12.000000 -0.415617 84.000000 0.431676 130.000000 -0.063978
13276.000000 1.448029 231.000000 224.000000 155.000000 -0.161758 179.000000 0.107740 198.000000 -0.225692 209.000000 -0.228215 13.000000 -0.465592 84.000000 0.376428 123.000000 -0.136757
14467.000000 1.387442 246.000000 261.000000 188.000000 -0.110440 209.000000 0.169325 226.000000 -0.127055 242.000000 -0.186896 13.000000 -0.500272 88.000000 0.444665 128.000000 -0.065424
15458.000000 1.435970 233.000000 242.000000 172.000000 -0.064044 195.000000 0.158636 211.000000 -0.181725 227.000000 -0.201663 14.000000 -0.558279 81.000000 0.469136 119.000000 -0.054985
15940.000000 1.414532 240.000000 237.000000 155.000000 -0.115407 188.000000 0.143668 207.000000 -0.193337 223.000000 -0.165390 13.000000 -0.475215 85.000000 0.373747 119.000000 -0.096474
16177.000000 1.356709 237.000000 240.000000 169.000000 -0.104859 190.000000 0.165517 208.000000 -0.143026 224.000000 -0.154704 12.000000 -0.478559 82.000000 0.368539 120.000000 -0.097869
16669.000000 1.414891 252.000000 257.000000 188.000000 -0.168730 208.000000 0.139686 231.000000 -0.193386 236.000000 -0.220439 16.000000 -0.525860 88.000000 0.437888 132.000000 -0.093054
18346.000000 1.480344 227.000000 246.000000 172.000000 -0.124197 193.000000 0.139250 216.000000 -0.233432 227.000000 -0.209764 13.000000 -0.532805 85.000000 0.474157 129.000000 -0.118334
18837.000000 1.341551 245.000000 243.000000 172.000000 -0.093905 188.000000 0.146001 207.000000 -0.152587 225.000000 -0.223400 14.000000 -0.461678 86.000000 0.411143 130.000000 -0.073465
19080.000000 1.299015 243.000000 223.000000 152.000000 -0.067882 173.000000 0.203013 196.000000 -0.204810 206.000000 -0.226520 14.000000 -0.502083 89.000000 0.405348 124.000000 -0.057410
19730.000000 1.268923 213.000000 207.000000 135.000000 -0.140614 160.000000 0.091095 188.000000 -0.205139 188.000000 -0.205139 10.000000 -0.446658 76.000000 0.422527 112.000000 -0.159781
20880.000000 1.387822 250.000000 242.000000 170.000000 -0.143716 191.000000 0.104074 214.000000 -0.244907 226.000000 -0.223263 14.000000 -0.448981 89.000000 0.366783 117.000000 -0.084202
21603.000000 1.384122 239.000000 227.000000 153.000000 -0.072964 176.000000 0.156520 194.000000 -0.162773 211.000000 -0.224716 13.000000 -0.480140 81.000000 0.466646 122.000000 -0.032336
21830.000000 1.296678 227.000000 219.000000 154.000000 -0.210643 172.000000 0.029357 189.000000 -0.284057 205.000000 -0.327788 14.000000 -0.516849 87.000000 0.510908 119.000000 -0.090659
22264.000000 1.447774 215.000000 236.000000 157.000000 -0.096488 186.000000 0.203355 205.000000 -0.081394 216.000000 -0.099671 13.000000 -0.677069 79.000000 0.635910 116.000000 -0.046927
22761.000000 1.606946 261.000000 264.000000 189.000000 -0.089124 212.000000 0.166332 239.000000 -0.220643 251.000000 -0.165531 14.000000 -0.019089 86.000000 0.207789 116.000000 -0.072070
23521.000000 1.874358 244.000000 250.000000 180.000000 -0.113746 203.000000 0.187240 224.000000 -0.165079 237.000000 -0.116913 13.000000 -0.072400 82.000000 0.143304 119.000000 -0.170694
24967.000000 1.735490 248.000000 265.000000 190.000000 -0.101344 213.000000 0.180002 230.000000 -0.126332 248.000000 -0.135613 16.000000 -0.089355 89.000000 0.217526 124.000000 -0.114655
25482.000000 1.669449 250.000000 245.000000 173.000000 -0.037021 197.000000 0.210251 220.000000 -0.183558 225.000000 -0.173214 13.000000 -0.144596 77.000000 0.194448 112.000000 -0.077493
26691.000000 1.722952 237.000000 250.000000 170.000000 -0.039826 201.000000 0.215783 219.000000 -0.085720 236.000000 -0.046598 16.000000 -0.087784 81.000000 0.203566 115.000000 -0.145278
28415.000000 1.781581 236.000000 236.000000 149.000000 -0.141349 187.000000 0.200534 204.000000 -0.091691 220.000000 -0.136173 13.000000 -0.083136 72.000000 0.159529 111.000000 -0.182882
30080.000000 1.721535 248.000000 236.000000 158.000000 -0.143701 188.000000 0.147223 207.000000 -0.147230 218.000000 -0.172402 15.000000 -0.124014 75.000000 0.122162 80.000000 0.069936
30773.000000 1.780105 229.000000 223.000000 155.000000 -0.124183 174.000000 0.156993 188.000000 -0.142333 211.000000 -0.142697 13.000000 -0.066618 74.000000 0.145075 107.000000 -0.156708
30996.000000 1.684621 223.000000 229.000000 152.000000 -0.154232 179.000000 0.176130 202.000000 -0.155828 213.000000 -0.142660 6.000000 -0.066051 77.000000 0.130482 112.000000 -0.129765
31721.000000 1.717886 255.000000 251.000000 173.000000 -0.085688 198.000000 0.192931 217.000000 -0.102618 231.000000 -0.183167 15.000000 -0.095185 79.000000 0.198169 125.000000 -0.121441
33313.000000 1.738319 223.000000 233.000000 149.000000 -0.125830 179.000000 0.192758 196.000000 -0.091379 213.000000 -0.162709 14.000000 -0.093265 77.000000 0.175812 114.000000 -0.131677
34958.000000 1.739074 227.000000 232.000000 151.000000 -0.136318 182.000000 0.180642 206.000000 -0.152807 216.000000 -0.133621 12.000000 -0.069188 76.000000 0.187428 109.000000 -0.126491
35426.000000 1.684027 236.000000 233.000000 152.000000 -0.146459 183.000000 0.163964 205.000000 -0.188105 217.000000 -0.177617 14.000000 -0.082039 80.000000 0.113289 112.000000 -0.179752
36404.000000 1.688653 250.000000 223.000000 137.000000 -0.128901 172.000000 0.065988 187.000000 -0.205628 207.000000 -0.201757 17.000000 -0.146426 88.000000 0.032762 120.000000 -0.166235
37297.000000 1.990176 227.000000 236.000000 165.000000 -0.055487 186.000000 0.213166 212.000000 -0.281114 219.000000 -0.285472 12.000000 -0.050419 73.000000 0.254734 83.000000 0.127414
37533.000000 1.811079 236.000000 232.000000 109.000000 -0.239373 183.000000 0.166568 196.000000 -0.085564 216.000000 -0.090609 14.000000 -0.191272 86.000000 0.033323 109.000000 -0.239373
38011.000000 1.761477 246.000000 228.000000 145.000000 -0.159904 173.000000 0.214124 196.000000 -0.174090 211.000000 -0.250546 13.000000 -0.061486 83.000000 0.233983 117.000000 -0.126487
39349.000000 1.429565 220.000000 218.000000 151.000000 -0.166173 171.000000 0.184423 189.000000 -0.171801 201.000000 -0.245719 14.000000 -0.617411 88.000000 0.618356 129.000000 -0.082301
41340.000000 1.581114 223.000000 215.000000 148.000000 -0.072101 166.000000 0.219389 190.000000 -0.119686 200.000000 -0.108274 13.000000 -0.189686 77.000000 0.157835 115.000000 -0.115093
41555.000000 1.751615 215.000000 217.000000 147.000000 -0.132239 169.000000 0.195268 187.000000 -0.142756 203.000000 -0.155058 14.000000 -0.090707 78.000000 0.165473 110.000000 -0.142396
41772.000000 1.679284 217.000000 235.000000 150.000000 -0.125516 178.000000 0.150939 212.000000 -0.249282 228.000000 0.040420 12.000000 -0.071627 71.000000 0.185051 115.000000 -0.134247
42528.000000 1.728007 258.000000 266.000000 176.000000 -0.074935 203.000000 0.226946 220.000000 -0.049716 249.000000 -0.123508 15.000000 -0.047981 83.000000 0.232274 115.000000 -0.175233
43251.000000 1.744388 225.000000 230.000000 145.000000 -0.118009 183.000000 0.191943 208.000000 -0.182555 215.000000 -0.141757 13.000000 -0.060253 69.000000 0.182993 113.000000 -0.161081
43481.000000 1.739969 230.000000 228.000000 151.000000 -0.123042 180.000000 0.147743 202.000000 -0.214264 213.000000 -0.177822 15.000000 -0.099027 72.000000 0.181427 116.000000 -0.137459
44929.000000 1.817137 250.000000 240.000000 169.000000 -0.087179 190.000000 0.207399 208.000000 -0.145645 220.000000 -0.132089 14.000000 -0.025621 82.000000 0.250864 133.000000 -0.111522
46063.000000 1.543353 218.000000 235.000000 156.000000 -0.083013 185.000000 0.212770 203.000000 -0.106637 221.000000 -0.103816 12.000000 -0.064829 77.000000 0.180595 110.000000 -0.132682
46298.000000 1.497596 235.000000 239.000000 145.000000 -0.157288 189.000000 0.131692 207.000000 -0.179546 223.000000 -0.211364 12.000000 -0.072968 81.000000 0.096206 117.000000 -0.161191
46537.000000 1.558369 239.000000 239.000000 168.000000 -0.034091 190.000000 0.221912 207.000000 -0.088152 224.000000 -0.129831 12.000000 -0.141130 77.000000 0.148526 116.000000 -0.134449
46776.000000 1.677348 239.000000 239.000000 146.000000 -0.156973 187.000000 0.174326 213.000000 -0.195391 223.000000 -0.165612 12.000000 -0.030034 78.000000 0.141318 117.000000 -0.192458
47454.000000 1.065770 207.000000 222.000000 146.000000 -0.083981 174.000000 0.154326 190.000000 -0.124780 208.000000 -0.104748 14.000000 -0.110077 77.000000 0.100503 116.000000 -0.120472
47676.000000 1.530549 222.000000 237.000000 119.000000 -0.149691 191.000000 0.175515 213.000000 -0.152228 218.000000 -0.136271 14.000000 -0.055048 78.000000 0.125185 113.000000 -0.151383
47913.000000 1.641629 237.000000 249.000000 180.000000 -0.100172 200.000000 0.144045 225.000000 -0.141537 228.000000 -0.165628 13.000000 -0.030583 81.000000 0.139339 84.000000 0.072066
48401.000000 1.638484 239.000000 246.000000 176.000000 -0.103026 198.000000 0.192727 214.000000 -0.151331 231.000000 -0.159401 15.000000 -0.053364 79.000000 0.219208 112.000000 -0.084574
48892.000000 1.617012 245.000000 239.000000 167.000000 -0.131096 187.000000 0.117164 214.000000 -0.199437 222.000000 -0.178904 13.000000 -0.079304 74.000000 0.102684 107.000000 -0.137804
49595.000000 1.728132 229.000000 216.000000 145.000000 -0.124716 164.000000 0.130017 181.000000 -0.126548 196.000000 -0.223569 13.000000 -0.081257 84.000000 0.168807 112.000000 -0.162507
51450.000000 1.620013 244.000000 245.000000 169.000000 -0.126049 191.000000 0.158121 214.000000 -0.191626 226.000000 -0.206203 15.000000 -0.031178 82.000000 0.212709 126.000000 -0.190815
52392.000000 1.616570 237.000000 219.000000 147.000000 -0.191706 173.000000 0.107606 190.000000 -0.202145 202.000000 -0.229245 13.000000 -0.061563 77.000000 0.128497 112.000000 -0.209733
53533.000000 1.642652 234.000000 225.000000 122.000000 -0.125708 173.000000 0.222604 194.000000 -0.098681 207.000000 -0.131705 15.000000 -0.121423 82.000000 0.159279 122.000000 -0.125708
54412.000000 1.771414 210.000000 212.000000 139.000000 -0.151504 164.000000 0.142524 190.000000 -0.159184 196.000000 -0.169215 13.000000 -0.122553 79.000000 0.179732 104.000000 -0.128685
56987.000000 1.417160 195.000000 202.000000 123.000000 -0.083541 150.000000 0.170237 174.000000 -0.147445 184.000000 -0.204797 13.000000 -0.554171 84.000000 0.391644 123.000000 -0.083541
58696.000000 1.407113 205.000000 216.000000 148.000000 -0.138196 169.000000 0.164437 186.000000 -0.177711 202.000000 -0.202978 13.000000 -0.551508 79.000000 0.469261 117.000000 -0.091084
59134.000000 1.256886 222.000000 230.000000 156.000000 -0.099183 181.000000 0.132854 199.000000 -0.209465 214.000000 -0.268601 14.000000 -0.453929 85.000000 0.435519 157.000000 -0.112428
59364.000000 1.283626 230.000000 227.000000 150.000000 -0.126177 174.000000 0.081381 196.000000 -0.243978 212.000000 -0.238678 13.000000 -0.498132 84.000000 0.382819 118.000000 -0.077684
59809.000000 1.328508 218.000000 227.000000 153.000000 -0.073086 177.000000 0.129969 195.000000 -0.214422 211.000000 -0.217950 12.000000 -0.495472 88.000000 0.463401 141.000000 -0.094576
61122.000000 1.402583 212.000000 220.000000 150.000000 -0.106503 174.000000 0.138825 189.000000 -0.186349 201.000000 -0.225693 14.000000 -0.610584 79.000000 0.468508 118.000000 -0.099185
61342.000000 1.367677 220.000000 223.000000 152.000000 -0.098228 175.000000 0.157305 197.000000 -0.233261 208.000000 -0.213874 13.000000 -0.523451 84.000000 0.460499 119.000000 -0.066144
61565.000000 1.284479 223.000000 232.000000 158.000000 -0.094761 180.000000 0.127714 206.000000 -0.251049 213.000000 -0.246519 11.000000 -0.397621 84.000000 0.423636 127.000000 -0.069463
62265.000000 1.342151 234.000000 227.000000 152.000000 -0.088072 176.000000 0.165687 202.000000 -0.245455 208.000000 -0.231442 14.000000 -0.502443 86.000000 0.444251 132.000000 -0.091393
65408.000000 1.176692 216.000000 209.000000 139.000000 -0.083274 158.000000 0.154641 181.000000 -0.198680 192.000000 -0.211015 12.000000 -0.552307 79.000000 0.447287 119.000000 -0.096472
67929.000000 1.378932 247.000000 246.000000 171.000000 -0.088306 194.000000 0.151896 220.000000 -0.239233 229.000000 -0.202055 13.000000 -0.423512 84.000000 0.431194 115.000000 -0.032488
68175.000000 1.298133 246.000000 241.000000 170.000000 -0.111443 188.000000 0.090093 211.000000 -0.240110 222.000000 -0.256973 14.000000 -0.445237 91.000000 0.380518 127.000000 -0.112803
68416.000000 1.306882 241.000000 247.000000 175.000000 -0.067054 193.000000 0.156425 223.000000 -0.199137 230.000000 -0.173541 15.000000 -0.533462 85.000000 0.456176 121.000000 -0.048997
69634.000000 1.437479 247.000000 236.000000 160.000000 -0.138038 186.000000 0.123888 207.000000 -0.222817 222.000000 -0.205452 14.000000 -0.456300 78.000000 0.474720 126.000000 -0.076722
70105.000000 1.430161 235.000000 249.000000 157.000000 -0.100938 195.000000 0.110675 224.000000 -0.216331 231.000000 -0.201755 14.000000 -0.460624 82.000000 0.543435 157.000000 -0.100938
71100.000000 1.421896 246.000000 243.000000 174.000000 -0.130174 196.000000 0.129967 212.000000 -0.204595 225.000000 -0.182133 14.000000 -0.456960 89.000000 0.456080 130.000000 -0.139028
71581.000000 1.340083 238.000000 231.000000 152.000000 -0.172914 183.000000 0.097588 205.000000 -0.233820 211.000000 -0.240278 20.000000 -0.509273 81.000000 0.439722 119.000000 -0.166254
72520.000000 0.983934 237.000000 734.000000 464.000000 -0.173571 492.000000 0.670114 514.000000 -0.383317 722.000000 -0.136444 14.000000 -0.488416 243.000000 0.727322 265.000000 -0.380120
73254.000000 0.778022 734.000000 239.000000 162.000000 -0.116129 190.000000 0.070533 213.000000 -0.238337 224.000000 -0.191439 9.000000 -0.252403 88.000000 0.351471 134.000000 -0.125987
75095.000000 0.933698 241.000000 248.000000 174.000000 -0.144292 196.000000 0.001053 219.000000 -0.236787 230.000000 -0.213685 13.000000 -0.361115 89.000000 0.338226 139.000000 -0.147225
76270.000000 1.475962 223.000000 234.000000 154.000000 -0.065422 186.000000 0.133010 206.000000 -0.224922 220.000000 -0.204389 13.000000 -0.450652 84.000000 0.457231 117.000000 -0.058181
77219.000000 1.480284 236.000000 245.000000 171.000000 -0.127147 197.000000 0.109076 211.000000 -0.210877 229.000000 -0.220141 13.000000 -0.432725 88.000000 0.476321 131.000000 -0.111175
77919.000000 1.339091 222.000000 226.000000 157.000000 -0.052868 175.000000 0.180344 197.000000 -0.192507 209.000000 -0.183650 13.000000 -0.508056 79.000000 0.454483 81.000000 0.445831
78145.000000 1.384690 226.000000 227.000000 148.000000 -0.104746 177.000000 0.144608 205.000000 -0.195766 209.000000 -0.209998 13.000000 -0.508570 81.000000 0.467060 129.000000 -0.097208
78372.000000 1.331900 227.000000 225.000000 153.000000 -0.149341 178.000000 0.129060 195.000000 -0.170816 210.000000 -0.206725 13.000000 -0.450545 81.000000 0.381600 121.000000 -0.195266
79544.000000 1.380110 241.000000 236.000000 150.000000 -0.106221 187.000000 0.112933 209.000000 -0.253352 221.000000 -0.227615 16.000000 -0.524295 86.000000 0.401314 128.000000 -0.118886
80236.000000 1.394370 222.000000 225.000000 154.000000 -0.148778 179.000000 0.111504 203.000000 -0.221240 208.000000 -0.258763 13.000000 -0.452136 80.000000 0.394996 117.000000 -0.111442
80461.000000 1.257806 225.000000 229.000000 153.000000 -0.123212 178.000000 0.130910 206.000000 -0.190876 212.000000 -0.187962 12.000000 -0.520705 81.000000 0.394472 123.000000 -0.077585
81387.000000 1.318422 235.000000 229.000000 155.000000 -0.107899 175.000000 0.129656 205.000000 -0.188761 211.000000 -0.164435 14.000000 -0.475891 91.000000 0.436080 126.000000 -0.107368
82076.000000 1.234406 227.000000 223.000000 155.000000 -0.198152 175.000000 0.040673 199.000000 -0.256382 206.000000 -0.282619 13.000000 -0.427382 79.000000 0.431333 128.000000 -0.189093
82524.000000 1.383999 225.000000 226.000000 155.000000 -0.158275 178.000000 0.106176 193.000000 -0.194796 210.000000 -0.196804 12.000000 -0.441000 82.000000 0.485518 119.000000 -0.125455
84436.000000 1.244954 225.000000 233.000000 162.000000 -0.080656 185.000000 0.100051 206.000000 -0.244102 216.000000 -0.184150 12.000000 -0.461409 83.000000 0.463623 120.000000 -0.062725
84669.000000 1.385331 233.000000 215.000000 140.000000 -0.106335 168.000000 0.163274 183.000000 -0.179296 200.000000 -0.181038 13.000000 -0.442773 79.000000 0.451707 119.000000 -0.121961
85101.000000 1.182903 217.000000 226.000000 151.000000 -0.142617 175.000000 0.071380 202.000000 -0.290941 208.000000 -0.302133 13.000000 -0.488774 84.000000 0.463905 125.000000 -0.108510
85327.000000 1.253555 226.000000 234.000000 150.000000 -0.085297 182.000000 0.169199 199.000000 -0.167807 216.000000 -0.238120 12.000000 -0.490268 86.000000 0.467554 126.000000 -0.057852
86947.000000 1.257541 228.000000 228.000000 154.000000 -0.222099 178.000000 0.046506 194.000000 -0.211645 215.000000 -0.197650 13.000000 -0.461567 81.000000 0.387292 118.000000 -0.183053
87175.000000 1.326158 228.000000 238.000000 168.000000 -0.075626 188.000000 0.138011 210.000000 -0.201111 224.000000 -0.147019 11.000000 -0.418639 80.000000 0.498320 120.000000 -0.071505
87413.000000 1.360505 238.000000 252.000000 180.000000 -0.110739 203.000000 0.119389 225.000000 -0.170922 238.000000 -0.130891 13.000000 -0.433977 83.000000 0.454268 127.000000 -0.126316
87665.000000 1.382464 252.000000 245.000000 171.000000 -0.120189 191.000000 0.112210 209.000000 -0.155125 229.000000 -0.209816 13.000000 -0.407850 83.000000 0.450770 128.000000 -0.114891
87910.000000 1.258414 245.000000 248.000000 173.000000 -0.125425 191.000000 0.083260 215.000000 -0.210000 231.000000 -0.188168 13.000000 -0.421601 89.000000 0.387273 124.000000 -0.150219
88865.000000 1.261634 221.000000 221.000000 150.000000 -0.219294 171.000000 0.094124 198.000000 -0.243164 202.000000 -0.220311 13.000000 -0.538209 81.000000 0.416396 123.000000 -0.156724
89086.000000 1.308419 221.000000 222.000000 152.000000 -0.108966 172.000000 0.155063 195.000000 -0.227084 206.000000 -0.218665 16.000000 -0.494795 82.000000 0.509984 117.000000 -0.063229
90016.000000 1.334154 242.000000 241.000000 169.000000 -0.087791 190.000000 0.113810 209.000000 -0.206080 225.000000 -0.248933 14.000000 -0.457319 89.000000 0.547429 135.000000 -0.059718
90507.000000 1.296583 250.000000 237.000000 165.000000 -0.127305 185.000000 0.092412 208.000000 -0.268967 220.000000 -0.232619 20.000000 -0.489279 84.000000 0.444046 128.000000 -0.112540
90973.000000 1.330592 229.000000 234.000000 154.000000 -0.096797 182.000000 0.159705 205.000000 -0.177207 217.000000 -0.187631 15.000000 -0.557308 85.000000 0.506330 123.000000 -0.059401
91435.000000 1.337388 228.000000 235.000000 163.000000 -0.119844 188.000000 0.089811 202.000000 -0.217698 221.000000 -0.238263 13.000000 -0.442127 85.000000 0.494390 124.000000 -0.134106
91670.000000 1.272160 235.000000 235.000000 160.000000 -0.151191 182.000000 0.105580 208.000000 -0.240627 219.000000 -0.218214 14.000000 -0.477057 86.000000 0.405955 119.000000 -0.145267
91905.000000 1.330546 235.000000 243.000000 168.000000 -0.074594 191.000000 0.133948 218.000000 -0.249202 224.000000 -0.214861 14.000000 -0.493750 84.000000 0.497770 121.000000 -0.074829
92871.000000 1.345912 229.000000 228.000000 157.000000 -0.128306 180.000000 0.130627 201.000000 -0.200408 206.000000 -0.229499 14.000000 -0.501894 85.000000 0.533984 117.000000 -0.131393
93559.000000 1.294388 228.000000 223.000000 152.000000 -0.160830 175.000000 0.099594 191.000000 -0.254984 208.000000 -0.265221 16.000000 -0.525376 85.000000 0.415376 119.000000 -0.158368
93782.000000 1.267680 223.000000 233.000000 152.000000 -0.063919 180.000000 0.184704 205.000000 -0.196221 218.000000 -0.187696 15.000000 -0.585816 84.000000 0.484107 119.000000 -0.071676
94724.000000 1.261975 228.000000 232.000000 156.000000 -0.060312 180.000000 0.188543 203.000000 -0.190846 214.000000 -0.191990 13.000000 -0.496440 84.000000 0.508295 126.000000 -0.050093
95184.000000 1.274481 228.000000 220.000000 144.000000 -0.168087 170.000000 0.123244 195.000000 -0.221411 200.000000 -0.250502 19.000000 -0.537949 79.000000 0.494779 114.000000 -0.134531
96793.000000 1.398321 239.000000 240.000000 128.000000 -0.138619 188.000000 0.135095 214.000000 -0.256489 225.000000 -0.221442 14.000000 -0.429123 91.000000 0.472540 128.000000 -0.138619
97909.000000 1.397615 212.000000 216.000000 146.000000 -0.124042 164.000000 0.147212 192.000000 -0.213226 199.000000 -0.195687 12.000000 -0.447182 80.000000 0.484262 116.000000 -0.126033
98581.000000 1.408667 231.000000 232.000000 145.000000 -0.089171 180.000000 0.136910 198.000000 -0.165143 213.000000 -0.225502 14.000000 -0.517022 91.000000 0.474342 129.000000 -0.123450
99290.000000 1.379207 233.000000 227.000000 155.000000 -0.158416 179.000000 0.070424 208.000000 -0.294279 211.000000 -0.253447 14.000000 -0.479132 85.000000 0.447605 130.000000 -0.140235
99517.000000 1.354877 227.000000 224.000000 152.000000 -0.119230 174.000000 0.102180 195.000000 -0.237695 205.000000 -0.204609 10.000000 -0.393148 85.000000 0.443200 120.000000 -0.098181
101347.000000 1.412132 229.000000 221.000000 140.000000 -0.135924 170.000000 0.096021 197.000000 -0.265670 205.000000 -0.265514 19.000000 -0.537900 85.000000 0.427396 122.000000 -0.147822
101568.000000 1.431460 221.000000 217.000000 144.000000 -0.052068 169.000000 0.159783 191.000000 -0.264495 200.000000 -0.256941 14.000000 -0.594686 81.000000 0.559434 122.000000 -0.027554
101785.000000 1.475879 217.000000 215.000000 138.000000 -0.069312 167.000000 0.182617 202.000000 -0.200235 202.000000 -0.200235 13.000000 -0.548103 84.000000 0.538402 120.000000 -0.092774
102000.000000 1.406553 215.000000 218.000000 149.000000 -0.160031 168.000000 0.134042 187.000000 -0.206083 203.000000 -0.277929 5.000000 -0.311332 81.000000 0.470065 118.000000 -0.105644
102878.000000 1.346299 219.000000 224.000000 152.000000 -0.132069 172.000000 0.123074 197.000000 -0.239170 204.000000 -0.265613 12.000000 -0.477808 89.000000 0.472945 129.000000 -0.145360
103329.000000 1.358310 227.000000 227.000000 154.000000 -0.099513 177.000000 0.171944 202.000000 -0.184514 211.000000 -0.174248 12.000000 -0.421410 88.000000 0.466775 123.000000 -0.073320
106428.000000 1.254265 217.000000 222.000000 152.000000 -0.061128 174.000000 0.226787 196.000000 -0.180125 200.000000 -0.198917 11.000000 -0.439888 84.000000 0.406038 113.000000 -0.068698
108235.000000 1.456742 216.000000 222.000000 134.000000 0.032042 167.000000 0.271554 202.000000 -0.236346 207.000000 -0.257976 14.000000 -0.711002 84.000000 0.457088 109.000000 0.242010
108457.000000 1.266867 222.000000 217.000000 150.000000 -0.092947 166.000000 0.276756 186.000000 -0.152789 204.000000 -0.138698 11.000000 -0.451505 86.000000 0.379166 105.000000 -0.070691
109580.000000 1.210847 232.000000 233.000000 156.000000 -0.162932 178.000000 0.091878 197.000000 -0.145644 217.000000 -0.118389 14.000000 -0.341064 82.000000 0.323041 130.000000 -0.118120
110512.000000 1.511395 227.000000 228.000000 156.000000 -0.142712 181.000000 0.143465 205.000000 -0.134608 212.000000 -0.116112 11.000000 -0.423417 80.000000 0.398636 120.000000 -0.081662
110740.000000 1.485784 228.000000 228.000000 159.000000 -0.156989 180.000000 0.228720 193.000000 -0.142926 214.000000 -0.175012 16.000000 -0.385909 79.000000 0.513604 114.000000 -0.179371
110968.000000 1.446726 228.000000 236.000000 156.000000 -0.128809 181.000000 0.108745 213.000000 -0.140142 219.000000 -0.225127 13.000000 -0.367224 90.000000 0.460141 126.000000 -0.081504
111204.000000 1.367992 236.000000 236.000000 151.000000 -0.250158 191.000000 0.186270 202.000000 -0.181756 222.000000 -0.139138 13.000000 -0.429908 90.000000 0.386252 129.000000 -0.195049
111440.000000 1.421003 236.000000 243.000000 167.000000 -0.117994 194.000000 0.103246 207.000000 -0.173511 228.000000 -0.165784 16.000000 -0.418215 86.000000 0.457788 139.000000 -0.079452
111683.000000 1.563102 243.000000 251.000000 145.000000 -0.155267 196.000000 0.169294 223.000000 -0.248513 233.000000 -0.127634 13.000000 -0.484059 84.000000 0.565611 123.000000 -0.138916
112196.000000 1.758736 262.000000 252.000000 176.000000 -0.168842 207.000000 0.188509 232.000000 -0.061662 233.000000 -0.140846 18.000000 -0.101281 73.000000 0.203547 113.000000 -0.231143
113146.000000 1.625347 223.000000 223.000000 152.000000 -0.226755 175.000000 0.087523 188.000000 -0.130517 203.000000 -0.276817 16.000000 -0.074247 71.000000 0.239921 116.000000 -0.244325
114550.000000 1.708261 237.000000 236.000000 162.000000 0.014714 192.000000 0.266973 214.000000 -0.226378 224.000000 -0.134090 13.000000 -0.007130 80.000000 0.323009 107.000000 -0.079514
114786.000000 1.656350 236.000000 228.000000 156.000000 -0.244748 177.000000 0.069892 203.000000 -0.300972 217.000000 -0.143261 11.000000 -0.089418 65.000000 0.246851 105.000000 -0.227663
115481.000000 1.675581 237.000000 245.000000 162.000000 -0.128338 186.000000 0.186457 209.000000 -0.140017 230.000000 -0.139688 14.000000 -0.114592 71.000000 0.333354 120.000000 -0.071789
116687.000000 1.604076 228.000000 224.000000 148.000000 -0.086347 177.000000 0.162868 201.000000 -0.251348 207.000000 -0.147007 14.000000 -0.131911 85.000000 0.183809 106.000000 -0.091536
118342.000000 1.650142 241.000000 238.000000 148.000000 -0.123213 191.000000 0.290140 201.000000 -0.235768 224.000000 -0.206535 11.000000 -0.033855 66.000000 0.228776 75.000000 0.069403
119459.000000 1.697212 212.000000 217.000000 142.000000 -0.205876 167.000000 0.182257 185.000000 -0.215391 203.000000 -0.166018 13.000000 -0.211786 61.000000 0.175959 68.000000 0.015599
119676.000000 1.719076 217.000000 239.000000 151.000000 -0.191772 189.000000 0.156221 217.000000 -0.195660 225.000000 -0.016317 15.000000 -0.077271 84.000000 0.239359 104.000000 -0.132524
121994.000000 1.569562 223.000000 232.000000 140.000000 -0.028133 174.000000 0.244705 205.000000 -0.109341 207.000000 -0.251582 5.000000 0.042321 79.000000 0.265644 109.000000 -0.140768
124754.000000 1.483401 241.000000 228.000000 135.000000 -0.172757 181.000000 0.214517 193.000000 -0.147851 213.000000 -0.278713 14.000000 -0.258526 92.000000 0.170346 109.000000 -0.189796
125416.000000 1.636316 207.000000 209.000000 132.000000 -0.242491 161.000000 0.110722 190.000000 -0.188668 194.000000 -0.268183 13.000000 -0.086959 76.000000 0.305016 112.000000 -0.149763
125834.000000 1.387258 209.000000 207.000000 133.000000 -0.094734 161.000000 0.203590 166.000000 -0.158543 190.000000 -0.160235 15.000000 -0.695423 81.000000 0.591099 113.000000 -0.074936
130335.000000 1.239672 219.000000 226.000000 151.000000 -0.150892 179.000000 0.104986 193.000000 -0.212459 211.000000 -0.271658 14.000000 -0.575972 86.000000 0.489329 122.000000 -0.164152
130561.000000 1.314815 226.000000 231.000000 159.000000 -0.090298 179.000000 0.223277 207.000000 -0.368761 215.000000 -0.198448 13.000000 -0.418491 83.000000 0.505721 120.000000 0.001378
130792.000000 1.297148 231.000000 241.000000 168.000000 -0.147177 193.000000 0.183042 207.000000 -0.178919 223.000000 -0.154121 12.000000 -0.404514 88.000000 0.515876 113.000000 -0.049357
136190.000000 1.171619 220.000000 221.000000 153.000000 -0.093244 172.000000 0.150205 195.000000 -0.214828 205.000000 -0.239453 13.000000 -0.470167 83.000000 0.429845 122.000000 -0.065642
136836.000000 1.171561 210.000000 221.000000 148.000000 -0.092258 168.000000 0.142820 192.000000 -0.207322 203.000000 -0.230254 16.000000 -0.552279 80.000000 0.472584 123.000000 -0.086849
137301.000000 1.215138 244.000000 250.000000 178.000000 -0.143166 202.000000 0.078120 228.000000 -0.265330 235.000000 -0.233967 14.000000 -0.417102 87.000000 0.452652 127.000000 -0.089042
137551.000000 1.239669 250.000000 244.000000 149.000000 -0.103905 191.000000 0.077194 219.000000 -0.227948 226.000000 -0.208575 14.000000 -0.521616 89.000000 0.396803 128.000000 -0.138291
137795.000000 1.327256 244.000000 241.000000 165.000000 -0.064292 188.000000 0.158592 203.000000 -0.126206 227.000000 -0.132479 11.000000 -0.404877 85.000000 0.479199 127.000000 -0.038824
139886.000000 1.331378 238.000000 253.000000 177.000000 -0.103920 206.000000 0.130941 226.000000 -0.203620 231.000000 -0.249310 15.000000 -0.539515 89.000000 0.533558 109.000000 0.035283
141051.000000 1.353934 230.000000 232.000000 150.000000 -0.158151 188.000000 0.130675 199.000000 -0.202475 215.000000 -0.275831 12.000000 -0.384280 80.000000 0.537851 127.000000 -0.150627
141762.000000 1.394608 249.000000 253.000000 169.000000 -0.168509 197.000000 0.073638 228.000000 -0.340329 238.000000 -0.238087 14.000000 -0.532618 89.000000 0.551316 134.000000 -0.177678
143215.000000 1.350282 231.000000 229.000000 157.000000 -0.084655 179.000000 0.256036 202.000000 -0.195689 209.000000 -0.238919 18.000000 -0.521929 82.000000 0.508214 115.000000 -0.106659
143444.000000 1.368496 229.000000 228.000000 161.000000 -0.143164 181.000000 0.119468 201.000000 -0.228353 216.000000 -0.142272 16.000000 -0.545391 84.000000 0.522445 114.000000 -0.093151
143672.000000 1.337227 228.000000 239.000000 149.000000 -0.177914 191.000000 0.146741 207.000000 -0.224576 226.000000 -0.249811 11.000000 -0.462585 89.000000 0.672602 129.000000 -0.149122
144155.000000 1.307728 244.000000 232.000000 153.000000 -0.133543 186.000000 0.158714 209.000000 -0.310801 217.000000 -0.211286 14.000000 -0.590595 84.000000 0.592761 127.000000 -0.088979
144387.000000 1.189953 232.000000 227.000000 144.000000 -0.057773 176.000000 0.288527 194.000000 -0.110219 208.000000 -0.233275 15.000000 -0.653479 95.000000 0.508746 118.000000 0.074232
144842.000000 1.347381 228.000000 228.000000 157.000000 -0.202619 177.000000 0.204155 196.000000 -0.176144 215.000000 -0.207006 13.000000 -0.509642 87.000000 0.470454 107.000000 -0.041881
145070.000000 1.343903 228.000000 227.000000 147.000000 -0.183980 180.000000 0.160535 204.000000 -0.196942 209.000000 -0.294778 14.000000 -0.570799 81.000000 0.561191 127.000000 -0.192399
145521.000000 1.428259 224.000000 241.000000 164.000000 -0.158760 184.000000 0.133842 212.000000 -0.256517 226.000000 -0.192927 13.000000 -0.560299 86.000000 0.558263 131.000000 -0.141800
146265.000000 1.271756 246.000000 241.000000 171.000000 -0.096397 194.000000 0.212100 215.000000 -0.232100 223.000000 -0.094374 12.000000 -0.405596 90.000000 0.581942 128.000000 -0.195065
146506.000000 1.309482 241.000000 242.000000 168.000000 -0.061252 194.000000 0.172886 215.000000 -0.251974 230.000000 -0.070343 14.000000 -0.463590 76.000000 0.520138 118.000000 -0.085972
148122.000000 1.333748 236.000000 240.000000 149.000000 -0.083950 189.000000 0.182632 215.000000 -0.090752 220.000000 -0.323934 15.000000 -0.579309 83.000000 0.575549 123.000000 -0.047398
148606.000000 1.423716 244.000000 238.000000 150.000000 -0.215424 184.000000 0.032022 200.000000 -0.172774 217.000000 -0.350095 13.000000 -0.455031 90.000000 0.558792 129.000000 -0.167367
149286.000000 1.244559 219.000000 206.000000 138.000000 -0.208821 160.000000 0.137996 182.000000 -0.264857 189.000000 -0.364200 13.000000 -0.555376 70.000000 0.556570 113.000000 -0.149919
150126.000000 1.236629 216.000000 232.000000 155.000000 -0.119278 179.000000 0.247524 208.000000 -0.306347 215.000000 -0.265109 14.000000 -0.520159 82.000000 0.552775 128.000000 -0.198195
151680.000000 1.200315 212.000000 215.000000 133.000000 -0.177444 166.000000 0.204468 183.000000 -0.188964 202.000000 -0.110939 17.000000 -0.600234 88.000000 0.581614 133.000000 -0.177444
151895.000000 1.206992 215.000000 215.000000 143.000000 -0.248072 169.000000 0.148027 183.000000 -0.282521 201.000000 -0.246785 13.000000 -0.443917 86.000000 0.549969 105.000000 0.004701
152987.000000 1.278182 225.000000 223.000000 150.000000 -0.245938 169.000000 0.118952 189.000000 -0.290123 206.000000 -0.306223 13.000000 -0.429170 72.000000 0.479357 94.000000 0.357523
153210.000000 1.233932 223.000000 213.000000 149.000000 -0.100844 165.000000 0.067759 183.000000 -0.180987 201.000000 -0.104733 12.000000 -0.491193 82.000000 0.543010 108.000000 -0.046267
155856.000000 1.240673 209.000000 206.000000 144.000000 -0.206896 161.000000 0.221286 183.000000 -0.213792 190.000000 -0.072507 11.000000 -0.489859 81.000000 0.470958 106.000000 -0.139701
156266.000000 1.309624 204.000000 211.000000 133.000000 -0.105767 163.000000 0.331350 185.000000 -0.394042 191.000000 -0.260499 14.000000 -0.625815 82.000000 0.478856 122.000000 -0.098400
157352.000000 1.256489 228.000000 231.000000 155.000000 -0.276302 186.000000 0.102273 204.000000 -0.299890 210.000000 -0.194419 12.000000 -0.509043 90.000000 0.460313 129.000000 -0.215441
159602.000000 1.344233 232.000000 227.000000 148.000000 -0.203841 172.000000 0.209185 195.000000 -0.180282 213.000000 -0.230735 11.000000 -0.410908 79.000000 0.602867 125.000000 -0.099907
161591.000000 1.326302 233.000000 226.000000 143.000000 -0.171644 170.000000 0.125001 203.000000 -0.242571 209.000000 -0.264906 12.000000 -0.469434 92.000000 0.519328 120.000000 -0.050390
164255.000000 1.271022 218.000000 219.000000 143.000000 -0.069453 168.000000 0.207977 190.000000 -0.227351 203.000000 -0.172978 14.000000 -0.429856 68.000000 0.437351 115.000000 -0.115973
164907.000000 1.322273 219.000000 225.000000 148.000000 -0.245924 173.000000 0.139140 204.000000 -0.269027 213.000000 -0.112679 13.000000 -0.451567 84.000000 0.494455 108.000000 -0.052678
165132.000000 1.268935 225.000000 234.000000 151.000000 -0.124074 183.000000 0.189859 201.000000 -0.234341 220.000000 -0.222867 11.000000 -0.400045 89.000000 0.520722 125.000000 -0.147037
166061.000000 1.304841 229.000000 232.000000 162.000000 -0.161659 183.000000 0.269422 199.000000 -0.232992 216.000000 -0.379606 14.000000 -0.482479 93.000000 0.440985 131.000000 -0.109703
166293.000000 1.304079 232.000000 220.000000 154.000000 -0.221394 172.000000 0.112430 196.000000 -0.251489 201.000000 -0.259593 13.000000 -0.365123 90.000000 0.437837 131.000000 -0.156615
167398.000000 1.351803 229.000000 227.000000 147.000000 -0.117604 173.000000 0.118336 207.000000 -0.237587 209.000000 -0.182697 13.000000 -0.455298 83.000000 0.498336 120.000000 -0.249109
168342.000000 1.331036 230.000000 229.000000 147.000000 -0.097962 176.000000 0.218120 204.000000 -0.313073 214.000000 -0.206192 12.000000 -0.379780 85.000000 0.574921 125.000000 -0.073732
169715.000000 1.455046 246.000000 244.000000 143.000000 -0.073918 193.000000 0.116490 223.000000 -0.233854 228.000000 -0.215828 13.000000 -0.519139 92.000000 0.548480 114.000000 -0.110456
172508.000000 1.326551 263.000000 232.000000 148.000000 0.070032 182.000000 0.287288 201.000000 -0.472227 217.000000 -0.401677 12.000000 -0.434734 86.000000 0.561724 122.000000 0.079468
173377.000000 1.300090 208.000000 214.000000 144.000000 -0.189106 168.000000 0.099043 192.000000 -0.271615 199.000000 -0.241944 19.000000 -0.547654 85.000000 0.569795 130.000000 -0.267602
173817.000000 1.471301 226.000000 236.000000 156.000000 -0.184310 185.000000 0.098761 202.000000 -0.155142 222.000000 -0.150581 13.000000 -0.548761 80.000000 0.502696 116.000000 -0.050738
174538.000000 1.337979 238.000000 245.000000 158.000000 -0.112790 193.000000 0.108432 226.000000 -0.181504 230.000000 -0.179764 18.000000 -0.566613 87.000000 0.620799 108.000000 0.069530
175032.000000 1.551051 249.000000 230.000000 161.000000 -0.125927 181.000000 0.152992 210.000000 -0.263514 215.000000 -0.219862 14.000000 -0.486709 79.000000 0.440985 112.000000 -0.039453
175262.000000 1.474669 230.000000 222.000000 148.000000 -0.208651 173.000000 0.161755 192.000000 -0.258466 211.000000 -0.196835 11.000000 -0.393168 73.000000 0.475973 118.000000 -0.090187
175934.000000 1.420890 230.000000 233.000000 153.000000 -0.166206 180.000000 0.155565 197.000000 -0.238338 221.000000 -0.003069 13.000000 -0.522542 86.000000 0.593085 137.000000 -0.135831
176407.000000 1.338872 240.000000 243.000000 166.000000 -0.133465 185.000000 0.314529 214.000000 -0.338167 225.000000 -0.285032 16.000000 -0.474983 85.000000 0.372038 119.000000 -0.134732
176889.000000 1.372947 239.000000 247.000000 179.000000 -0.179731 200.000000 0.055846 221.000000 -0.317430 228.000000 -0.330550 17.000000 -0.510189 88.000000 0.547086 110.000000 -0.010705
177368.000000 1.245187 232.000000 234.000000 158.000000 -0.204388 184.000000 0.278746 209.000000 -0.227854 217.000000 -0.137166 11.000000 -0.474327 82.000000 0.514074 109.000000 -0.037977
178064.000000 1.450799 231.000000 238.000000 165.000000 -0.113402 190.000000 0.196519 211.000000 -0.107822 216.000000 -0.252259 12.000000 -0.412272 81.000000 0.547822 122.000000 -0.070707
178770.000000 1.416550 233.000000 236.000000 150.000000 -0.161801 184.000000 0.164091 214.000000 -0.179607 222.000000 -0.173056 15.000000 -0.613936 80.000000 0.518714 127.000000 -0.094624
180151.000000 1.454233 234.000000 242.000000 175.000000 -0.199796 191.000000 0.160597 217.000000 -0.236629 227.000000 -0.107632 12.000000 -0.479262 76.000000 0.511317 121.000000 -0.091662
183865.000000 1.264872 231.000000 212.000000 140.000000 -0.136334 167.000000 0.089246 184.000000 -0.247824 195.000000 -0.258388 24.000000 -0.500033 81.000000 0.471268 121.000000 -0.135314
186559.000000 1.575664 241.000000 250.000000 174.000000 -0.109433 202.000000 0.150741 226.000000 -0.164999 233.000000 -0.163183 12.000000 -0.067424 81.000000 0.212386 119.000000 -0.118885
186809.000000 1.584356 250.000000 246.000000 172.000000 -0.124169 192.000000 0.142789 220.000000 -0.170738 228.000000 -0.151445 14.000000 -0.077039 77.000000 0.242222 111.000000 -0.145580
187293.000000 1.593421 238.000000 243.000000 156.000000 -0.096300 193.000000 0.156071 222.000000 -0.160438 228.000000 -0.150846 16.000000 -0.053552 86.000000 0.226870 129.000000 -0.139889
187786.000000 1.638274 250.000000 234.000000 158.000000 -0.139530 185.000000 0.138276 207.000000 -0.196661 217.000000 -0.153152 14.000000 -0.066509 73.000000 0.155907 120.000000 -0.152506
188020.000000 1.641093 234.000000 237.000000 169.000000 -0.155488 192.000000 0.114433 209.000000 -0.164579 221.000000 -0.127335 14.000000 -0.049911 72.000000 0.214168 122.000000 -0.188012
188712.000000 1.765864 234.000000 264.000000 193.000000 -0.108450 220.000000 0.144558 236.000000 -0.157461 248.000000 -0.089450 12.000000 -0.034338 81.000000 0.210635 116.000000 -0.138051
189246.000000 1.518561 270.000000 262.000000 152.000000 -0.261895 208.000000 0.120000 226.000000 -0.116973 246.000000 -0.129637 13.000000 -0.050371 88.000000 0.149350 129.000000 -0.238446
190277.000000 1.779515 258.000000 247.000000 132.000000 -0.399984 202.000000 0.397430 226.000000 -0.073401 228.000000 -0.061238 13.000000 0.113120 68.000000 0.180487 79.000000 -0.029748
190988.000000 1.620127 231.000000 233.000000 156.000000 -0.137758 185.000000 0.167694 198.000000 -0.151349 217.000000 -0.169389 12.000000 -0.157696 64.000000 0.271285 75.000000 0.207760
192927.000000 1.676238 231.000000 235.000000 153.000000 -0.111067 185.000000 0.294150 212.000000 -0.234705 217.000000 -0.021916 11.000000 -0.106396 79.000000 0.342711 105.000000 -0.109970
193891.000000 1.608404 238.000000 235.000000 155.000000 -0.253481 187.000000 0.164905 206.000000 -0.189468 211.000000 -0.229483 14.000000 -0.162349 92.000000 0.293639 109.000000 -0.109074
195334.000000 1.578700 238.000000 233.000000 143.000000 -0.227571 185.000000 0.174608 209.000000 -0.268385 216.000000 -0.116990 18.000000 -0.100014 84.000000 0.348984 120.000000 -0.214279
196263.000000 1.601052 231.000000 225.000000 153.000000 -0.175941 170.000000 0.172475 199.000000 -0.183323 205.000000 -0.253198 10.000000 -0.088259 71.000000 0.235049 114.000000 -0.169028
196947.000000 1.636208 232.000000 223.000000 149.000000 -0.179841 174.000000 0.159657 197.000000 -0.110062 203.000000 -0.283636 14.000000 -0.055720 79.000000 0.320689 109.000000 -0.162476
197633.000000 1.733323 238.000000 257.000000 176.000000 -0.207023 209.000000 0.141631 221.000000 -0.288448 240.000000 -0.202869 16.000000 -0.106161 78.000000 0.248997 118.000000 -0.132555
198388.000000 1.584533 246.000000 234.000000 171.000000 -0.251849 191.000000 0.152102 209.000000 -0.217177 220.000000 -0.095954 15.000000 -0.092600 77.000000 0.228747 91.000000 0.121018
201349.000000 1.215831 229.000000 209.000000 138.000000 -0.126365 165.000000 0.126989 189.000000 -0.175016 192.000000 -0.209875 11.000000 -0.371897 85.000000 0.553918 123.000000 -0.066788
202646.000000 1.265862 227.000000 224.000000 143.000000 -0.187259 170.000000 0.117020 194.000000 -0.281648 211.000000 -0.213169 14.000000 -0.327993 92.000000 0.384685 121.000000 -0.111615
204009.000000 1.376580 234.000000 240.000000 167.000000 -0.220110 184.000000 0.141661 208.000000 -0.240016 225.000000 -0.145706 12.000000 -0.457041 85.000000 0.507522 118.000000 -0.061097
205194.000000 1.298526 226.000000 226.000000 155.000000 -0.196567 176.000000 0.207461 199.000000 -0.251912 213.000000 -0.132585 11.000000 -0.432899 88.000000 0.474389 131.000000 -0.178275
205420.000000 1.242821 226.000000 221.000000 154.000000 -0.040281 173.000000 0.110643 197.000000 -0.339670 209.000000 -0.151299 12.000000 -0.574029 80.000000 0.500877 126.000000 -0.108228
207896.000000 1.239043 210.000000 207.000000 127.000000 -0.155484 159.000000 0.193810 181.000000 -0.111785 188.000000 -0.188337 9.000000 -0.469735 84.000000 0.493792 104.000000 -0.060092
208318.000000 1.282663 215.000000 226.000000 152.000000 -0.160078 175.000000 0.075251 202.000000 -0.237490 213.000000 -0.198368 17.000000 -0.430237 81.000000 0.501286 127.000000 -0.030751
208544.000000 1.266382 226.000000 228.000000 147.000000 -0.251095 168.000000 0.109970 174.000000 -0.012006 208.000000 -0.227538 15.000000 -0.519999 84.000000 0.477743 124.000000 -0.161424
208772.000000 1.333967 228.000000 242.000000 166.000000 -0.142225 191.000000 0.057744 215.000000 -0.231629 228.000000 -0.274982 22.000000 -0.537930 88.000000 0.717494 140.000000 -0.071066
209252.000000 1.306944 238.000000 250.000000 176.000000 -0.065722 201.000000 0.142836 220.000000 -0.274125 235.000000 -0.096366 13.000000 -0.312774 85.000000 0.523230 128.000000 -0.079843
210389.000000 1.313572 219.000000 227.000000 141.000000 -0.149389 159.000000 0.122947 167.000000 -0.117100 210.000000 -0.302804 11.000000 -0.379656 86.000000 0.415815 114.000000 -0.068919
211316.000000 1.263796 234.000000 229.000000 160.000000 -0.149559 178.000000 0.105628 208.000000 -0.303134 215.000000 -0.201097 15.000000 -0.488962 96.000000 0.395630 127.000000 -0.135970
212409.000000 1.241096 220.000000 219.000000 151.000000 -0.180282 168.000000 0.241240 192.000000 -0.226847 200.000000 -0.269419 12.000000 -0.412539 84.000000 0.519811 132.000000 -0.153292
213085.000000 1.280437 232.000000 241.000000 165.000000 -0.101427 193.000000 0.122695 205.000000 -0.169498 226.000000 -0.146599 11.000000 -0.404045 92.000000 0.562381 142.000000 -0.169579
214447.000000 1.407415 220.000000 237.000000 160.000000 -0.170014 192.000000 0.202367 212.000000 -0.245611 220.000000 -0.183323 13.000000 -0.512741 85.000000 0.537306 128.000000 -0.010596
214684.000000 1.269342 237.000000 239.000000 164.000000 -0.158167 190.000000 0.115141 205.000000 -0.146708 224.000000 -0.187914 13.000000 -0.507067 82.000000 0.405737 115.000000 -0.021490
216266.000000 1.238140 214.000000 225.000000 157.000000 -0.097305 175.000000 0.184937 202.000000 -0.231190 209.000000 -0.221675 20.000000 -0.567818 85.000000 0.509374 121.000000 -0.032179
216491.000000 1.256976 225.000000 234.000000 156.000000 -0.158742 182.000000 0.153434 200.000000 -0.160797 218.000000 -0.203995 16.000000 -0.583917 79.000000 0.471162 118.000000 -0.082364
217197.000000 1.110662 238.000000 238.000000 166.000000 -0.138023 185.000000 0.120424 208.000000 -0.275360 221.000000 -0.218370 11.000000 -0.346328 84.000000 0.421194 138.000000 -0.130329
217666.000000 1.209684 231.000000 233.000000 157.000000 -0.126272 180.000000 0.161973 206.000000 -0.284972 212.000000 -0.244735 13.000000 -0.476413 85.000000 0.464810 128.000000 -0.128513
218133.000000 1.162197 234.000000 222.000000 155.000000 -0.157539 173.000000 0.097648 200.000000 -0.263922 207.000000 -0.231289 14.000000 -0.537787 87.000000 0.443574 129.000000 -0.187447
218355.000000 1.275421 222.000000 221.000000 142.000000 -0.064874 173.000000 0.195989 198.000000 -0.194890 203.000000 -0.218494 12.000000 -0.431633 83.000000 0.540766 118.000000 -0.057444
218792.000000 1.278308 216.000000 230.000000 148.000000 -0.125345 181.000000 0.130283 197.000000 -0.166785 208.000000 -0.261864 13.000000 -0.499606 84.000000 0.453965 124.000000 -0.071929
219734.000000 1.361427 246.000000 249.000000 174.000000 -0.152555 193.000000 0.174105 212.000000 -0.086900 227.000000 -0.269955 13.000000 -0.486409 89.000000 0.466946 144.000000 -0.180440
221109.000000 1.389670 218.000000 228.000000 155.000000 -0.127617 173.000000 0.252526 187.000000 -0.187129 213.000000 -0.269104 12.000000 -0.540926 78.000000 0.496724 121.000000 -0.201066
221579.000000 1.406897 242.000000 242.000000 158.000000 -0.063729 193.000000 0.172793 213.000000 -0.322867 231.000000 -0.133148 13.000000 -0.571489 78.000000 0.579340 120.000000 -0.097962
222063.000000 1.281410 242.000000 237.000000 156.000000 -0.160892 187.000000 0.091646 212.000000 -0.302084 217.000000 -0.300611 16.000000 -0.408937 89.000000 0.557069 128.000000 -0.221518
223450.000000 1.398700 226.000000 251.000000 179.000000 -0.168482 198.000000 0.100782 222.000000 -0.336661 235.000000 -0.231599 13.000000 -0.547994 80.000000 0.607619 124.000000 -0.189827
224195.000000 1.316553 239.000000 237.000000 169.000000 -0.064497 189.000000 0.208403 210.000000 -0.123807 216.000000 -0.373869 11.000000 -0.236880 92.000000 0.482321 133.000000 -0.021347
228535.000000 1.294891 233.000000 223.000000 149.000000 -0.203135 175.000000 0.104843 197.000000 -0.270112 202.000000 -0.356505 15.000000 -0.580001 90.000000 0.521725 125.000000 -0.099687
231265.000000 1.272370 234.000000 225.000000 157.000000 -0.094780 180.000000 0.098936 202.000000 -0.258671 211.000000 -0.212699 13.000000 -0.430060 85.000000 0.483577 120.000000 -0.040141
231490.000000 1.095591 225.000000 212.000000 144.000000 -0.174812 165.000000 0.111175 182.000000 -0.192257 194.000000 -0.247148 12.000000 -0.449628 82.000000 0.478761 115.000000 -0.135783
232561.000000 1.278748 218.000000 210.000000 136.000000 -0.098367 163.000000 0.151868 185.000000 -0.236392 195.000000 -0.225013 14.000000 -0.501583 90.000000 0.445630 136.000000 -0.098367
232978.000000 1.200926 207.000000 197.000000 126.000000 -0.201629 148.000000 0.080595 168.000000 -0.179438 183.000000 -0.153482 22.000000 -0.584607 88.000000 0.369297 126.000000 -0.201629
233175.000000 1.301345 197.000000 199.000000 125.000000 -0.089922 149.000000 0.115688 173.000000 -0.199561 177.000000 -0.240000 12.000000 -0.469626 82.000000 0.484482 125.000000 -0.089922
234920.000000 1.270168 232.000000 233.000000 156.000000 -0.147851 180.000000 0.083244 205.000000 -0.273276 211.000000 -0.260564 13.000000 -0.461838 89.000000 0.423964 126.000000 -0.118650
236048.000000 1.376678 222.000000 237.000000 170.000000 -0.092900 191.000000 0.151255 210.000000 -0.192020 221.000000 -0.191690 13.000000 -0.585391 78.000000 0.498525 120.000000 -0.116241
236285.000000 1.334000 237.000000 240.000000 169.000000 -0.100643 189.000000 0.149796 215.000000 -0.215268 227.000000 -0.171774 15.000000 -0.527737 80.000000 0.427886 116.000000 -0.038698
236758.000000 1.247102 233.000000 242.000000 157.000000 -0.133870 189.000000 0.146897 209.000000 -0.155688 236.000000 0.161129 12.000000 -0.470047 87.000000 0.424217 130.000000 -0.074700
238375.000000 1.387586 229.000000 232.000000 162.000000 -0.137335 181.000000 0.117571 199.000000 -0.211880 219.000000 -0.193055 14.000000 -0.434954 78.000000 0.434105 128.000000 -0.099592
238607.000000 1.264373 232.000000 238.000000 156.000000 -0.087082 190.000000 0.131052 210.000000 -0.194215 221.000000 -0.200594 14.000000 -0.457728 84.000000 0.395910 125.000000 -0.093461
239801.000000 1.288133 223.000000 222.000000 152.000000 -0.125406 172.000000 0.157541 195.000000 -0.234294 206.000000 -0.209404 13.000000 -0.457368 84.000000 0.518715 126.000000 -0.109889
240248.000000 1.295534 225.000000 216.000000 141.000000 -0.105676 168.000000 0.110345 185.000000 -0.246521 201.000000 -0.238339 13.000000 -0.453338 83.000000 0.465720 121.000000 -0.120299
240903.000000 1.287931 220.000000 232.000000 158.000000 -0.171003 178.000000 0.084310 207.000000 -0.275626 212.000000 -0.296425 13.000000 -0.456176 88.000000 0.430551 131.000000 -0.074733
242271.000000 1.307306 217.000000 224.000000 148.000000 -0.080955 173.000000 0.288700 197.000000 -0.113463 204.000000 -0.245406 13.000000 -0.443368 82.000000 0.525645 125.000000 -0.040438
242715.000000 1.381896 220.000000 229.000000 141.000000 -0.170424 174.000000 0.164169 205.000000 -0.306926 213.000000 -0.125438 13.000000 -0.612964 89.000000 0.576066 112.000000 -0.145000
244368.000000 1.249889 214.000000 205.000000 132.000000 -0.041522 158.000000 0.175876 171.000000 -0.027901 191.000000 -0.140486 12.000000 -0.649044 83.000000 0.500613 132.000000 -0.041522
244573.000000 1.293918 205.000000 203.000000 126.000000 -0.181596 160.000000 0.133999 181.000000 -0.200922 185.000000 -0.261189 16.000000 -0.604013 86.000000 0.471067 126.000000 -0.181596
248476.000000 1.187869 218.000000 225.000000 149.000000 -0.074231 177.000000 0.167259 207.000000 -0.250265 212.000000 -0.237851 12.000000 -0.443291 87.000000 0.463997 119.000000 -0.095845
249862.000000 1.152663 245.000000 241.000000 167.000000 -0.139090 189.000000 0.070879 218.000000 -0.241865 224.000000 -0.282929 14.000000 -0.409719 87.000000 0.391958 134.000000 -0.131047
250328.000000 1.218841 225.000000 219.000000 141.000000 -0.094263 167.000000 0.182256 191.000000 -0.175173 201.000000 -0.196082 14.000000 -0.520831 89.000000 0.475801 132.000000 -0.039607
253069.000000 1.588559 227.000000 224.000000 151.000000 -0.151033 175.000000 0.150675 197.000000 -0.209122 208.000000 -0.223213 12.000000 -0.058307 79.000000 0.185693 107.000000 -0.148289
253293.000000 1.481411 224.000000 212.000000 142.000000 -0.133854 165.000000 0.166506 179.000000 -0.095016 196.000000 -0.112400 13.000000 -0.166316 76.000000 0.126881 110.000000 -0.159074
253727.000000 1.613778 222.000000 239.000000 157.000000 -0.137304 184.000000 0.130582 207.000000 -0.165500 224.000000 -0.144904 12.000000 -0.080485 75.000000 0.202400 124.000000 -0.154639
254956.000000 1.773862 249.000000 261.000000 191.000000 -0.119327 214.000000 0.145986 237.000000 -0.156409 241.000000 -0.158432 12.000000 -0.042845 82.000000 0.191574 111.000000 -0.140482
255465.000000 1.636929 248.000000 252.000000 178.000000 -0.088042 204.000000 0.157052 226.000000 -0.117946 231.000000 -0.150658 16.000000 -0.070420 82.000000 0.204396 115.000000 -0.182442
257157.000000 1.573589 230.000000 224.000000 153.000000 -0.129918 173.000000 0.173044 194.000000 -0.148759 208.000000 -0.100815 13.000000 -0.114952 82.000000 0.163149 111.000000 -0.176378
257857.000000 1.662942 239.000000 239.000000 165.000000 -0.133684 187.000000 0.123135 214.000000 -0.222855 222.000000 -0.203137 12.000000 0.005889 73.000000 0.201595 123.000000 -0.147399
258585.000000 1.830975 248.000000 249.000000 171.000000 -0.105547 196.000000 0.148998 213.000000 -0.142819 231.000000 -0.169403 13.000000 -0.041689 89.000000 0.211947 128.000000 -0.163696
259948.000000 1.778154 216.000000 226.000000 150.000000 -0.157523 173.000000 0.164390 198.000000 -0.183761 211.000000 -0.135016 12.000000 -0.071173 81.000000 0.171427 114.000000 -0.194967
260643.000000 1.567666 230.000000 230.000000 153.000000 -0.095812 178.000000 0.140927 205.000000 -0.122928 212.000000 -0.174354 14.000000 -0.197742 89.000000 0.224234 120.000000 -0.100216
260873.000000 1.820755 230.000000 233.000000 153.000000 -0.237758 182.000000 0.055565 207.000000 -0.281426 215.000000 -0.260925 14.000000 -0.061206 81.000000 0.242761 118.000000 -0.149104
261345.000000 1.780264 239.000000 253.000000 174.000000 -0.145423 208.000000 0.137037 218.000000 -0.156128 237.000000 -0.177380 15.000000 -0.014249 88.000000 0.249545 105.000000 -0.059388
262281.000000 1.789887 228.000000 244.000000 151.000000 -0.151018 190.000000 0.161739 210.000000 -0.141458 225.000000 -0.143871 10.000000 -0.038515 82.000000 0.206861 115.000000 -0.137337
262786.000000 1.816285 261.000000 271.000000 191.000000 -0.115488 219.000000 0.153650 245.000000 -0.066552 253.000000 -0.140800 12.000000 -0.035550 88.000000 0.182367 127.000000 -0.198997
263539.000000 1.757338 228.000000 225.000000 154.000000 -0.114514 180.000000 0.147367 196.000000 -0.187776 209.000000 -0.151647 16.000000 -0.054887 73.000000 0.133904 104.000000 -0.129405
263764.000000 1.788335 225.000000 225.000000 154.000000 -0.188649 172.000000 0.129956 188.000000 -0.164087 211.000000 -0.138494 14.000000 -0.105018 81.000000 0.191033 110.000000 -0.137367
264433.000000 1.613463 221.000000 219.000000 147.000000 -0.132397 168.000000 0.155314 185.000000 -0.136596 204.000000 -0.126721 15.000000 -0.163857 84.000000 0.139669 109.000000 -0.110721
265546.000000 1.348150 219.000000 220.000000 148.000000 -0.110846 167.000000 0.095016 195.000000 -0.218588 201.000000 -0.229889 20.000000 -0.513277 88.000000 0.404358 131.000000 -0.153886
266186.000000 1.291444 208.000000 213.000000 135.000000 -0.116709 164.000000 0.136912 188.000000 -0.219719 195.000000 -0.221474 13.000000 -0.522897 83.000000 0.371943 117.000000 -0.130926
267585.000000 1.314938 236.000000 220.000000 126.000000 -0.105890 168.000000 0.092527 183.000000 -0.189872 191.000000 -0.250108 13.000000 -0.389153 88.000000 0.471663 126.000000 -0.105890
268433.000000 1.306504 207.000000 220.000000 151.000000 -0.132585 171.000000 0.118639 194.000000 -0.235312 202.000000 -0.235985 13.000000 -0.553965 87.000000 0.455017 120.000000 -0.119983
270614.000000 1.182341 209.000000 216.000000 146.000000 -0.085828 167.000000 0.147918 184.000000 -0.185797 202.000000 -0.215280 13.000000 -0.533662 83.000000 0.424173 120.000000 -0.038338
273680.000000 1.232841 205.000000 210.000000 133.000000 -0.103556 156.000000 0.092320 184.000000 -0.283417 196.000000 -0.257101 14.000000 -0.568351 84.000000 0.448073 133.000000 -0.103556
277586.000000 1.823828 243.000000 274.000000 195.000000 -0.138731 227.000000 0.145015 240.000000 -0.123857 258.000000 -0.109875 17.000000 -0.048555 90.000000 0.138259 124.000000 -0.197274
277860.000000 1.828526 274.000000 265.000000 186.000000 -0.103012 211.000000 0.151330 234.000000 -0.168793 245.000000 -0.166630 13.000000 -0.025782 87.000000 0.150819 122.000000 -0.121911
278381.000000 1.691537 256.000000 245.000000 113.000000 -0.158685 194.000000 0.343949 210.000000 -0.088858 229.000000 -0.060615 12.000000 -0.044530 75.000000 0.123649 113.000000 -0.158685
278626.000000 1.509462 245.000000 226.000000 152.000000 -0.165972 177.000000 0.126100 193.000000 -0.172316 211.000000 -0.213708 12.000000 -0.078814 82.000000 0.128617 109.000000 -0.164392
279063.000000 1.595594 211.000000 215.000000 143.000000 -0.136444 171.000000 0.146818 191.000000 -0.175547 195.000000 -0.257741 15.000000 -0.057918 70.000000 0.221013 80.000000 0.142235
279278.000000 1.609846 215.000000 215.000000 137.000000 -0.132838 168.000000 0.142256 179.000000 -0.127147 197.000000 -0.157005 13.000000 -0.089274 78.000000 0.175815 114.000000 -0.135910
280961.000000 1.690425 242.000000 244.000000 176.000000 -0.103981 200.000000 0.149263 222.000000 -0.193650 224.000000 -0.156988 15.000000 -0.027443 80.000000 0.239623 114.000000 -0.161427
281205.000000 1.672107 244.000000 243.000000 170.000000 -0.140314 192.000000 0.139453 218.000000 -0.177504 223.000000 -0.158240 13.000000 -0.053379 82.000000 0.217400 114.000000 -0.147732
282919.000000 1.673288 242.000000 242.000000 170.000000 -0.092631 193.000000 0.153262 209.000000 -0.160157 227.000000 -0.147479 13.000000 -0.016133 78.000000 0.223398 81.000000 0.199213
283161.000000 1.647614 242.000000 237.000000 154.000000 -0.123901 185.000000 0.129060 203.000000 -0.120218 221.000000 -0.152132 13.000000 -0.062764 77.000000 0.215419 118.000000 -0.134654
283398.000000 1.577743 237.000000 232.000000 154.000000 -0.150535 181.000000 0.125985 203.000000 -0.160693 215.000000 -0.180754 12.000000 -0.116131 73.000000 0.089949 80.000000 0.071797
284101.000000 1.658775 236.000000 241.000000 154.000000 -0.183947 187.000000 0.119203 209.000000 -0.197739 225.000000 -0.172896 15.000000 -0.053669 80.000000 0.172381 121.000000 -0.178462
286465.000000 1.697323 243.000000 234.000000 139.000000 -0.094905 181.000000 0.142101 209.000000 -0.176253 216.000000 -0.155704 15.000000 -0.088570 84.000000 0.173811 121.000000 -0.121129
286936.000000 1.577053 237.000000 227.000000 152.000000 -0.097851 177.000000 0.171772 197.000000 -0.141239 212.000000 -0.146760 12.000000 -0.131522 82.000000 0.176632 114.000000 -0.123444
288087.000000 1.478732 222.000000 220.000000 147.000000 -0.116363 168.000000 0.172100 195.000000 -0.178463 203.000000 -0.130078 13.000000 -0.132145 83.000000 0.166083 107.000000 -0.100922
289475.000000 1.646352 237.000000 245.000000 171.000000 -0.110878 196.000000 0.173637 217.000000 -0.138381 227.000000 -0.151954 15.000000 -0.058223 82.000000 0.249111 114.000000 -0.134481
289720.000000 1.573908 245.000000 228.000000 157.000000 -0.192459 179.000000 0.118497 207.000000 -0.186913 212.000000 -0.185628 13.000000 -0.084335 70.000000 0.145615 111.000000 -0.169936
289948.000000 1.521642 228.000000 224.000000 152.000000 -0.145518 172.000000 0.131676 195.000000 -0.171334 205.000000 -0.193686 15.000000 -0.075709 76.000000 0.132080 115.000000 -0.149546
290172.000000 1.615200 224.000000 239.000000 167.000000 -0.112320 187.000000 0.154104 215.000000 -0.175814 222.000000 -0.166235 15.000000 -0.047135 79.000000 0.215782 116.000000 -0.121475
292209.000000 1.300235 207.000000 201.000000 127.000000 -0.120565 148.000000 0.139812 172.000000 -0.190095 182.000000 -0.247336 12.000000 -0.485235 77.000000 0.479341 119.000000 -0.088558
294601.000000 1.353667 218.000000 228.000000 149.000000 -0.188591 175.000000 0.091896 198.000000 -0.239373 212.000000 -0.212928 14.000000 -0.490973 85.000000 0.448462 133.000000 -0.147933
294829.000000 1.314110 228.000000 229.000000 144.000000 -0.106345 175.000000 0.136570 198.000000 -0.188791 214.000000 -0.211927 13.000000 -0.494730 91.000000 0.469360 125.000000 -0.125655
298497.000000 1.332664 219.000000 218.000000 150.000000 -0.146819 167.000000 0.102070 192.000000 -0.217131 197.000000 -0.238292 14.000000 -0.574453 82.000000 0.469339 122.000000 -0.158669
298715.000000 1.372757 218.000000 232.000000 157.000000 -0.102302 181.000000 0.134877 200.000000 -0.190800 214.000000 -0.223450 14.000000 -0.495159 86.000000 0.514652 157.000000 -0.102302
301947.000000 1.342931 236.000000 235.000000 159.000000 -0.109293 184.000000 0.131724 207.000000 -0.232634 213.000000 -0.231161 13.000000 -0.510361 87.000000 0.461332 132.000000 -0.093933
304503.000000 1.200452 227.000000 221.000000 147.000000 -0.123134 172.000000 0.161613 188.000000 -0.169093 206.000000 -0.189611 13.000000 -0.525443 85.000000 0.452538 123.000000 -0.064811
306630.000000 1.360517 246.000000 246.000000 178.000000 -0.158196 196.000000 0.133684 223.000000 -0.198586 228.000000 -0.207740 12.000000 -0.491097 79.000000 0.535548 134.000000 -0.119547
307572.000000 1.363146 233.000000 235.000000 160.000000 -0.115983 182.000000 0.111712 205.000000 -0.213962 216.000000 -0.228147 14.000000 -0.495428 84.000000 0.471879 120.000000 -0.105498
309242.000000 1.366457 238.000000 228.000000 155.000000 -0.150108 180.000000 0.124170 194.000000 -0.197914 214.000000 -0.199074 13.000000 -0.430488 84.000000 0.433383 128.000000 -0.126832
309470.000000 1.279578 228.000000 229.000000 159.000000 -0.117429 180.000000 0.154390 197.000000 -0.165030 211.000000 -0.207398 12.000000 -0.473825 83.000000 0.455078 119.000000 -0.086881
309928.000000 1.312932 229.000000 243.000000 167.000000 -0.093715 190.000000 0.105424 213.000000 -0.235187 225.000000 -0.206113 15.000000 -0.536206 88.000000 0.487617 130.000000 -0.096395
313190.000000 1.295519 232.000000 224.000000 151.000000 -0.129185 174.000000 0.122854 201.000000 -0.277148 210.000000 -0.224515 14.000000 -0.518337 87.000000 0.474233 127.000000 -0.105611
313852.000000 1.375957 220.000000 229.000000 158.000000 -0.131549 177.000000 0.096506 201.000000 -0.224327 215.000000 -0.234375 12.000000 -0.496190 81.000000 0.509737 128.000000 -0.094730
317597.000000 1.352787 239.000000 239.000000 173.000000 -0.132822 189.000000 0.138965 205.000000 -0.152759 223.000000 -0.178418 13.000000 -0.448781 86.000000 0.459686 132.000000 -0.111033
318286.000000 1.161332 219.000000 221.000000 138.000000 -0.171612 170.000000 0.152477 198.000000 -0.251771 203.000000 -0.253683 15.000000 -0.577868 83.000000 0.394358 142.000000 -0.136895
320844.000000 1.348794 253.000000 259.000000 184.000000 -0.120719 207.000000 0.123982 228.000000 -0.200345 243.000000 -0.157052 15.000000 -0.462523 93.000000 0.452786 126.000000 -0.074986
324411.000000 1.234701 222.000000 218.000000 150.000000 -0.142447 167.000000 0.091049 193.000000 -0.277431 200.000000 -0.252071 13.000000 -0.500942 83.000000 0.475923 122.000000 -0.132100
325094.000000 1.420771 244.000000 257.000000 183.000000 -0.149236 206.000000 0.072145 227.000000 -0.172809 242.000000 -0.173890 14.000000 -0.541798 86.000000 0.542540 123.000000 -0.164172
327239.000000 1.147882 245.000000 241.000000 170.000000 -0.086817 190.000000 0.128355 206.000000 -0.194720 224.000000 -0.188981 11.000000 -0.469783 87.000000 0.470891 128.000000 -0.066206
329388.000000 1.294749 242.000000 261.000000 185.000000 -0.139341 207.000000 0.122134 229.000000 -0.210718 245.000000 -0.191598 13.000000 -0.489279 87.000000 0.509421 131.000000 -0.127067
329904.000000 1.299656 255.000000 249.000000 178.000000 -0.120988 200.000000 0.106411 217.000000 -0.187195 234.000000 -0.202603 15.000000 -0.497820 88.000000 0.449969 126.000000 -0.104327
330390.000000 1.261165 237.000000 232.000000 151.000000 -0.110705 183.000000 0.131851 209.000000 -0.245298 217.000000 -0.237932 14.000000 -0.462347 86.000000 0.459516 122.000000 -0.095201
330622.000000 1.282145 232.000000 228.000000 158.000000 -0.124794 179.000000 0.137352 196.000000 -0.170061 212.000000 -0.252397 12.000000 -0.479846 83.000000 0.478370 126.000000 -0.098667
330850.000000 1.293152 228.000000 220.000000 152.000000 -0.150532 172.000000 0.141773 194.000000 -0.255107 206.000000 -0.239511 14.000000 -0.531942 78.000000 0.502007 117.000000 -0.121457
332536.000000 1.303390 255.000000 230.000000 158.000000 -0.160563 182.000000 0.094703 206.000000 -0.271974 211.000000 -0.236157 12.000000 -0.405951 83.000000 0.459171 121.000000 -0.142587
333939.000000 1.269704 237.000000 231.000000 161.000000 -0.156003 178.000000 0.150361 201.000000 -0.227194 212.000000 -0.288417 13.000000 -0.471425 88.000000 0.503337 128.000000 -0.202948
335093.000000 1.410785 230.000000 232.000000 159.000000 -0.114701 184.000000 0.119766 197.000000 -0.178447 217.000000 -0.224953 14.000000 -0.519607 81.000000 0.517132 119.000000 -0.117430
336550.000000 1.448934 269.000000 249.000000 172.000000 -0.072633 196.000000 0.136553 225.000000 -0.186739 229.000000 -0.227022 12.000000 -0.471631 88.000000 0.467777 125.000000 -0.114810
337257.000000 1.403119 226.000000 220.000000 151.000000 -0.126627 173.000000 0.153982 188.000000 -0.229656 203.000000 -0.182448 14.000000 -0.603668 83.000000 0.490049 127.000000 -0.122223
337477.000000 1.311391 220.000000 216.000000 145.000000 -0.141283 168.000000 0.138450 181.000000 -0.162445 197.000000 -0.261755 13.000000 -0.501227 83.000000 0.530123 125.000000 -0.134245
338591.000000 1.234530 229.000000 237.000000 156.000000 -0.118213 183.000000 0.136600 200.000000 -0.138118 219.000000 -0.174530 12.000000 -0.494215 86.000000 0.476251 128.000000 -0.110752
338828.000000 1.393637 237.000000 256.000000 184.000000 -0.159343 205.000000 0.075940 225.000000 -0.207695 238.000000 -0.215734 20.000000 -0.538086 89.000000 0.540708 125.000000 -0.121865
341267.000000 1.276690 246.000000 225.000000 153.000000 -0.142413 175.000000 0.112211 190.000000 -0.180171 209.000000 -0.247677 13.000000 -0.441649 84.000000 0.422883 124.000000 -0.119733
341929.000000 1.374701 222.000000 238.000000 169.000000 -0.112790 186.000000 0.099027 215.000000 -0.268513 218.000000 -0.230848 13.000000 -0.514671 85.000000 0.529640 122.000000 -0.151096
343652.000000 1.405667 246.000000 240.000000 168.000000 -0.128463 192.000000 0.115893 215.000000 -0.236851 223.000000 -0.204359 14.000000 -0.503549 78.000000 0.470657 118.000000 -0.111394
344800.000000 1.337819 233.000000 254.000000 178.000000 -0.104359 196.000000 0.073054 200.000000 0.050609 239.000000 -0.188828 15.000000 -0.545128 94.000000 0.519591 127.000000 -0.110895
345549.000000 1.318101 247.000000 237.000000 166.000000 -0.066598 186.000000 0.116975 201.000000 -0.142979 219.000000 -0.211725 13.000000 -0.459971 88.000000 0.408652 122.000000 -0.153684
346258.000000 1.368372 237.000000 244.000000 152.000000 -0.091990 197.000000 0.073811 220.000000 -0.222082 227.000000 -0.212897 13.000000 -0.510153 83.000000 0.541665 132.000000 -0.091880
347461.000000 1.367777 234.000000 240.000000 171.000000 -0.136521 187.000000 0.102460 210.000000 -0.227304 222.000000 -0.207491 14.000000 -0.505875 91.000000 0.483342 129.000000 -0.099811
347701.000000 1.383247 240.000000 229.000000 156.000000 -0.142854 181.000000 0.095641 201.000000 -0.258307 213.000000 -0.205955 14.000000 -0.462818 83.000000 0.461774 133.000000 -0.111412
348149.000000 1.361442 219.000000 228.000000 159.000000 -0.116521 179.000000 0.093447 199.000000 -0.225297 209.000000 -0.211363 15.000000 -0.512305 81.000000 0.568857 130.000000 -0.134623
348377.000000 1.435673 228.000000 248.000000 178.000000 -0.159845 201.000000 0.115375 217.000000 -0.214705 228.000000 -0.246962 18.000000 -0.612148 81.000000 0.558572 120.000000 -0.145705
350590.000000 1.648965 226.000000 241.000000 169.000000 -0.091048 190.000000 0.148404 209.000000 -0.151157 224.000000 -0.194983 16.000000 -0.101365 82.000000 0.225233 122.000000 -0.134041
350831.000000 1.813465 241.000000 262.000000 177.000000 -0.126726 208.000000 0.149042 233.000000 -0.172588 240.000000 -0.164956 12.000000 -0.030342 81.000000 0.262259 112.000000 -0.122976
354306.000000 1.880927 246.000000 268.000000 196.000000 -0.126141 219.000000 0.131759 235.000000 -0.126943 253.000000 -0.121504 14.000000 -0.010421 81.000000 0.258372 126.000000 -0.173510
354574.000000 1.864326 268.000000 272.000000 202.000000 -0.118779 226.000000 0.162665 248.000000 -0.143433 254.000000 -0.130219 14.000000 -0.068716 77.000000 0.223166 121.000000 -0.168118
354846.000000 1.766053 272.000000 262.000000 187.000000 -0.122915 213.000000 0.145250 229.000000 -0.133791 248.000000 -0.135090 14.000000 -0.053964 81.000000 0.245141 124.000000 -0.146176
355108.000000 1.714379 262.000000 246.000000 172.000000 -0.114028 191.000000 0.120018 212.000000 -0.205580 230.000000 -0.178857 12.000000 -0.077283 77.000000 0.194422 119.000000 -0.163732
355598.000000 1.753382 244.000000 240.000000 150.000000 -0.140577 188.000000 0.127244 215.000000 -0.217914 221.000000 -0.194435 14.000000 -0.056820 78.000000 0.209466 126.000000 -0.156360
358844.000000 1.625411 246.000000 223.000000 152.000000 -0.145814 174.000000 0.128496 201.000000 -0.196519 206.000000 -0.199936 13.000000 -0.045387 80.000000 0.180349 115.000000 -0.132161
360015.000000 1.642307 242.000000 241.000000 120.000000 -0.119984 186.000000 0.112025 210.000000 -0.175939 222.000000 -0.168603 11.000000 -0.120309 80.000000 0.207057 120.000000 -0.119984
360741.000000 1.666872 241.000000 245.000000 174.000000 -0.148540 199.000000 0.111052 220.000000 -0.191113 224.000000 -0.177508 14.000000 -0.073943 84.000000 0.238591 114.000000 -0.121240
362972.000000 1.545486 233.000000 225.000000 152.000000 -0.127679 174.000000 0.143667 191.000000 -0.121112 210.000000 -0.133196 11.000000 -0.141519 78.000000 0.177622 108.000000 -0.152474
363197.000000 1.665595 225.000000 239.000000 155.000000 -0.119089 186.000000 0.116911 211.000000 -0.189293 224.000000 -0.170954 15.000000 -0.060142 77.000000 0.228121 109.000000 -0.154481
363436.000000 1.693938 239.000000 237.000000 149.000000 -0.123808 187.000000 0.147447 210.000000 -0.170092 222.000000 -0.122285 14.000000 -0.055874 78.000000 0.257746 118.000000 -0.152537
363907.000000 1.583871 234.000000 238.000000 120.000000 -0.188152 183.000000 0.119515 206.000000 -0.177223 223.000000 -0.161441 14.000000 -0.111052 76.000000 0.171739 120.000000 -0.188152
364384.000000 1.659720 239.000000 249.000000 174.000000 -0.107978 199.000000 0.119670 220.000000 -0.220613 233.000000 -0.146914 12.000000 -0.041675 80.000000 0.254672 123.000000 -0.162147
365098.000000 1.679703 232.000000 229.000000 152.000000 -0.114642 175.000000 0.148556 202.000000 -0.167351 211.000000 -0.124247 15.000000 -0.160704 84.000000 0.227464 117.000000 -0.147353
366277.000000 1.837679 231.000000 235.000000 152.000000 -0.181098 184.000000 0.119184 201.000000 -0.157273 218.000000 -0.194830 13.000000 -0.011005 81.000000 0.208981 132.000000 -0.214325
369225.000000 1.279737 232.000000 223.000000 154.000000 -0.163636 175.000000 0.108199 199.000000 -0.258916 204.000000 -0.257914 12.000000 -0.470434 86.000000 0.471210 139.000000 -0.109778
369877.000000 1.280877 206.000000 210.000000 143.000000 -0.122476 166.000000 0.125974 183.000000 -0.228759 195.000000 -0.214653 14.000000 -0.585220 82.000000 0.512052 120.000000 -0.125659
370087.000000 1.299549 210.000000 230.000000 157.000000 -0.158100 178.000000 0.080441 198.000000 -0.265641 213.000000 -0.256487 17.000000 -0.580905 83.000000 0.503155 120.000000 -0.083117
371046.000000 1.346455 256.000000 251.000000 176.000000 -0.191064 197.000000 0.055283 224.000000 -0.287569 231.000000 -0.216550 14.000000 -0.472936 89.000000 0.473537 147.000000 -0.167023
371760.000000 1.384582 222.000000 240.000000 172.000000 -0.178496 189.000000 0.034357 212.000000 -0.261145 235.000000 0.485754 19.000000 -0.612910 84.000000 0.586803 121.000000 -0.114376
372493.000000 1.402207 250.000000 255.000000 179.000000 -0.182603 202.000000 0.081929 227.000000 -0.235234 235.000000 -0.240391 26.000000 -0.502213 88.000000 0.546548 124.000000 -0.020628
375735.000000 1.458668 248.000000 230.000000 163.000000 -0.125534 181.000000 0.106254 200.000000 -0.179074 211.000000 -0.204293 14.000000 -0.515893 86.000000 0.455205 121.000000 -0.087461
376622.000000 1.327353 217.000000 221.000000 151.000000 -0.126328 172.000000 0.114799 200.000000 -0.255937 203.000000 -0.223618 13.000000 -0.504685 87.000000 0.483418 138.000000 -0.099715
377067.000000 1.324800 224.000000 232.000000 156.000000 -0.145014 182.000000 0.123294 204.000000 -0.272520 218.000000 -0.204463 14.000000 -0.512082 93.000000 0.447320 133.000000 -0.110094
380335.000000 1.400393 229.000000 221.000000 151.000000 -0.106895 173.000000 0.121209 186.000000 -0.164402 208.000000 -0.195372 13.000000 -0.471065 84.000000 0.471273 120.000000 -0.117052
380556.000000 1.309566 221.000000 220.000000 150.000000 -0.187837 174.000000 0.057930 191.000000 -0.229137 206.000000 -0.218215 12.000000 -0.456264 84.000000 0.466193 141.000000 -0.207617
387560.000000 1.383305 230.000000 229.000000 152.000000 -0.139957 180.000000 0.056282 207.000000 -0.245205 213.000000 -0.241851 13.000000 -0.437556 83.000000 0.431267 124.000000 -0.125568
389178.000000 1.323997 218.000000 220.000000 154.000000 -0.151407 175.000000 0.149266 197.000000 -0.239339 204.000000 -0.203618 14.000000 -0.527180 85.000000 0.489233 120.000000 -0.097224
389841.000000 1.292733 223.000000 234.000000 161.000000 -0.078043 180.000000 0.111392 207.000000 -0.242399 217.000000 -0.221411 13.000000 -0.488380 89.000000 0.489406 137.000000 -0.067574
391447.000000 1.273155 222.000000 218.000000 149.000000 -0.165078 171.000000 0.096066 185.000000 -0.226802 202.000000 -0.244372 14.000000 -0.510356 85.000000 0.437603 122.000000 -0.128809
392585.000000 1.328478 235.000000 228.000000 146.000000 -0.123528 171.000000 0.113633 189.000000 -0.184329 207.000000 -0.250909 14.000000 -0.540598 88.000000 0.509104 134.000000 -0.121726
395548.000000 1.341032 233.000000 247.000000 177.000000 -0.159247 197.000000 0.079576 220.000000 -0.239736 233.000000 -0.156978 13.000000 -0.450709 82.000000 0.532853 128.000000 -0.082694
396545.000000 1.582035 250.000000 260.000000 183.000000 -0.043982 202.000000 0.205235 235.000000 -0.206583 242.000000 -0.138949 12.000000 -0.163546 87.000000 0.253413 120.000000 -0.092088
397808.000000 1.635255 244.000000 233.000000 154.000000 -0.205362 186.000000 0.084153 198.000000 -0.149155 215.000000 -0.228278 12.000000 -0.062221 73.000000 0.120506 116.000000 -0.182068
398041.000000 1.653069 233.000000 230.000000 153.000000 -0.130141 176.000000 0.131896 198.000000 -0.152980 214.000000 -0.182117 11.000000 -0.111037 68.000000 0.191330 114.000000 -0.112038
398271.000000 1.744150 230.000000 247.000000 169.000000 -0.082587 192.000000 0.143213 220.000000 -0.192068 226.000000 -0.182631 13.000000 -0.067871 78.000000 0.211548 117.000000 -0.171569
399544.000000 1.718446 241.000000 244.000000 166.000000 -0.091301 191.000000 0.184091 219.000000 -0.167228 226.000000 -0.177682 13.000000 -0.052933 77.000000 0.211019 111.000000 -0.130326
400706.000000 1.882474 224.000000 240.000000 167.000000 -0.069465 190.000000 0.239483 217.000000 -0.124136 225.000000 -0.199387 15.000000 0.049999 82.000000 0.361489 126.000000 -0.119637
400946.000000 1.701114 240.000000 250.000000 182.000000 -0.120375 200.000000 0.133983 224.000000 -0.176160 232.000000 -0.118261 15.000000 -0.036848 62.000000 0.332808 69.000000 0.066773
401445.000000 1.766708 249.000000 257.000000 178.000000 -0.168120 204.000000 0.180689 224.000000 -0.182429 240.000000 -0.209324 17.000000 -0.173574 86.000000 0.411801 106.000000 -0.037446
402654.000000 1.873480 237.000000 240.000000 144.000000 -0.066708 196.000000 0.122429 219.000000 -0.329185 222.000000 -0.187540 13.000000 -0.079060 75.000000 0.169954 109.000000 -0.138308
402894.000000 1.882835 240.000000 246.000000 150.000000 -0.105846 195.000000 0.106991 213.000000 -0.146831 229.000000 -0.136455 11.000000 -0.088295 75.000000 0.217695 104.000000 -0.051411
403615.000000 1.918056 241.000000 247.000000 162.000000 -0.190487 201.000000 0.172491 222.000000 -0.265941 231.000000 -0.163810 13.000000 -0.032930 80.000000 0.225753 120.000000 -0.170062
403862.000000 1.955657 247.000000 241.000000 170.000000 -0.115468 194.000000 0.099546 211.000000 -0.146160 225.000000 -0.147258 17.000000 -0.147116 65.000000 0.306193 73.000000 0.128514
404809.000000 1.823308 232.000000 231.000000 161.000000 -0.145940 182.000000 0.290112 191.000000 -0.110610 215.000000 -0.270265 15.000000 -0.215721 99.000000 0.425831 116.000000 -0.369530
405040.000000 1.909674 231.000000 239.000000 122.000000 0.118636 145.000000 0.021786 177.000000 -0.581552 226.000000 -0.631048 13.000000 -0.266911 78.000000 0.636617 122.000000 0.118636
405279.000000 1.719360 239.000000 248.000000 140.000000 -0.104451 160.000000 0.291474 168.000000 0.047602 231.000000 -0.028496 15.000000 -0.547426 86.000000 0.280063 96.000000 0.066520
405767.000000 2.024752 240.000000 236.000000 167.000000 -0.035564 188.000000 0.080283 201.000000 -0.084907 228.000000 0.096285 14.000000 -0.221926 88.000000 0.230676 119.000000 -0.155311
406915.000000 1.989938 231.000000 246.000000 169.000000 -0.157914 192.000000 0.132636 210.000000 -0.119528 227.000000 -0.176221 13.000000 -0.194107 87.000000 0.211524 125.000000 -0.148695
407416.000000 1.938979 255.000000 245.000000 132.000000 -0.227725 192.000000 0.114233 211.000000 -0.136379 226.000000 -0.201912 15.000000 -0.119030 79.000000 0.100017 113.000000 -0.209402
407661.000000 2.039654 245.000000 248.000000 181.000000 -0.200814 199.000000 0.133324 217.000000 -0.207884 232.000000 -0.180219 15.000000 -0.018088 85.000000 0.178870 127.000000 -0.190267
409099.000000 1.843103 223.000000 230.000000 156.000000 -0.253447 183.000000 0.123871 194.000000 -0.185502 214.000000 -0.261773 16.000000 -0.128244 81.000000 0.163605 111.000000 -0.154576
409329.000000 1.814184 230.000000 239.000000 170.000000 -0.160658 186.000000 0.242727 203.000000 -0.163887 221.000000 -0.272742 12.000000 -0.224250 96.000000 0.175469 120.000000 -0.087681
409568.000000 1.901663 239.000000 234.000000 149.000000 -0.169700 181.000000 0.161129 199.000000 -0.215048 220.000000 -0.138936 13.000000 -0.132992 80.000000 0.242824 117.000000 -0.173807
409802.000000 1.846533 234.000000 242.000000 170.000000 -0.106694 188.000000 0.105515 215.000000 -0.240315 226.000000 -0.172116 12.000000 -0.131007 87.000000 0.294841 128.000000 -0.148903
410281.000000 1.923542 237.000000 229.000000 160.000000 -0.266035 182.000000 0.108966 203.000000 -0.231145 215.000000 -0.133920 12.000000 -0.030485 82.000000 0.353354 110.000000 -0.175109
411472.000000 1.822324 253.000000 254.000000 176.000000 -0.174138 206.000000 0.105626 217.000000 -0.100173 238.000000 -0.206003 12.000000 0.017558 84.000000 0.302397 120.000000 -0.168731
412454.000000 1.840126 239.000000 228.000000 151.000000 -0.184278 181.000000 0.087526 202.000000 -0.254200 208.000000 -0.209763 16.000000 -0.098308 80.000000 0.199233 122.000000 -0.199295
412907.000000 1.854498 225.000000 230.000000 160.000000 -0.150455 180.000000 0.186033 197.000000 -0.153026 214.000000 -0.249190 14.000000 -0.148715 77.000000 0.225815 90.000000 0.116818
413365.000000 1.837070 228.000000 233.000000 150.000000 -0.172007 181.000000 0.077681 201.000000 -0.205108 215.000000 -0.211551 15.000000 -0.051770 82.000000 0.112523 112.000000 -0.165205
413838.000000 1.913072 240.000000 256.000000 183.000000 -0.053667 202.000000 0.180298 224.000000 -0.164984 241.000000 -0.068042 13.000000 -0.014404 94.000000 0.230879 128.000000 -0.138605
415535.000000 1.939434 229.000000 238.000000 155.000000 -0.097759 186.000000 0.139199 207.000000 -0.223322 223.000000 -0.171755 13.000000 -0.026963 72.000000 0.169935 115.000000 -0.152618
416022.000000 1.851225 249.000000 246.000000 165.000000 -0.178744 191.000000 0.085079 215.000000 -0.254372 228.000000 -0.199293 14.000000 -0.091675 75.000000 0.167554 123.000000 -0.149043
416757.000000 1.924779 241.000000 248.000000 174.000000 -0.208386 200.000000 0.112084 234.000000 -0.202242 239.000000 -0.066020 14.000000 -0.015690 80.000000 0.204296 113.000000 -0.183088
417005.000000 1.941113 248.000000 236.000000 154.000000 -0.187010 186.000000 0.085670 203.000000 -0.111867 220.000000 -0.166851 10.000000 -0.178651 85.000000 0.118432 115.000000 -0.186225
417241.000000 1.942334 236.000000 235.000000 162.000000 -0.119862 188.000000 0.147585 205.000000 -0.142822 222.000000 -0.143545 13.000000 -0.087979 75.000000 0.260045 117.000000 -0.138967
417476.000000 1.870578 235.000000 236.000000 158.000000 -0.127146 188.000000 0.110721 202.000000 -0.163148 220.000000 -0.178729 12.000000 -0.069186 80.000000 0.193841 106.000000 -0.105938
418212.000000 2.028276 256.000000 255.000000 180.000000 -0.499294 203.000000 -0.218904 221.000000 -0.424796 239.000000 -0.365908 15.000000 0.212806 87.000000 0.379687 112.000000 -0.073324
418705.000000 1.822979 238.000000 231.000000 154.000000 -0.106692 178.000000 0.126114 205.000000 -0.199859 216.000000 -0.163278 14.000000 -0.080109 88.000000 0.211412 131.000000 -0.096395
419804.000000 1.414110 221.000000 224.000000 152.000000 -0.074153 170.000000 0.138621 191.000000 -0.223307 204.000000 -0.235314 14.000000 -0.527521 86.000000 0.428025 129.000000 -0.110423
421467.000000 1.277526 236.000000 233.000000 161.000000 -0.146065 184.000000 0.251034 196.000000 -0.134827 215.000000 -0.234969 14.000000 -0.782739 86.000000 0.599296 116.000000 0.075392
422362.000000 1.381487 222.000000 236.000000 154.000000 -0.117193 182.000000 0.124311 201.000000 -0.213935 219.000000 -0.240376 14.000000 -0.578766 91.000000 0.498762 127.000000 -0.094247
423296.000000 1.372196 227.000000 223.000000 151.000000 -0.120359 176.000000 0.148653 198.000000 -0.254387 208.000000 -0.215312 14.000000 -0.580061 80.000000 0.487482 120.000000 -0.113337
424686.000000 1.298620 238.000000 250.000000 178.000000 -0.073355 202.000000 0.116457 219.000000 -0.176129 234.000000 -0.186459 10.000000 -0.454733 88.000000 0.509830 143.000000 -0.052694
425424.000000 1.341457 245.000000 236.000000 168.000000 -0.159342 185.000000 0.067665 209.000000 -0.240002 216.000000 -0.244343 21.000000 -0.548964 88.000000 0.457023 128.000000 -0.138309
427787.000000 1.369936 242.000000 239.000000 173.000000 -0.133308 191.000000 0.088448 212.000000 -0.231130 220.000000 -0.248105 13.000000 -0.481538 77.000000 0.493652 134.000000 -0.090265
428259.000000 1.385407 233.000000 239.000000 167.000000 -0.147945 188.000000 0.103026 210.000000 -0.200579 221.000000 -0.212630 15.000000 -0.592259 85.000000 0.456549 127.000000 -0.087350
430678.000000 1.433811 240.000000 238.000000 160.000000 -0.209073 187.000000 0.075236 213.000000 -0.235986 219.000000 -0.228399 16.000000 -0.557818 86.000000 0.438780 138.000000 -0.119669
432553.000000 1.404078 215.000000 224.000000 130.000000 -0.138746 172.000000 0.092180 190.000000 -0.229214 209.000000 -0.250625 12.000000 -0.518963 82.000000 0.466724 130.000000 -0.138746
434237.000000 1.462010 243.000000 221.000000 152.000000 -0.146189 174.000000 0.076743 196.000000 -0.255076 202.000000 -0.299043 14.000000 -0.541895 85.000000 0.480172 122.000000 -0.138449
434675.000000 1.453808 217.000000 220.000000 150.000000 -0.108603 168.000000 0.130847 191.000000 -0.249139 204.000000 -0.205646 13.000000 -0.517478 79.000000 0.516129 120.000000 -0.061834
435358.000000 1.375373 234.000000 236.000000 154.000000 -0.132428 181.000000 0.095047 205.000000 -0.226865 220.000000 -0.227853 12.000000 -0.478327 87.000000 0.488633 136.000000 -0.130549
437284.000000 1.412992 240.000000 254.000000 181.000000 -0.093261 205.000000 0.099215 223.000000 -0.192383 237.000000 -0.172303 12.000000 -0.463231 85.000000 0.528229 129.000000 -0.094656
440737.000000 1.486208 232.000000 241.000000 158.000000 -0.109464 191.000000 0.111601 207.000000 -0.187348 225.000000 -0.205171 15.000000 -0.537255 83.000000 0.503529 123.000000 -0.101502
442434.000000 1.412179 242.000000 251.000000 179.000000 -0.080532 198.000000 0.143151 223.000000 -0.198524 235.000000 -0.204605 15.000000 -0.571678 89.000000 0.514670 129.000000 -0.064906
444374.000000 1.491145 251.000000 259.000000 190.000000 -0.158886 206.000000 0.083293 225.000000 -0.180234 240.000000 -0.216285 15.000000 -0.468149 88.000000 0.520864 133.000000 -0.150281
444633.000000 1.512537 259.000000 255.000000 187.000000 -0.188559 207.000000 0.055124 230.000000 -0.237632 237.000000 -0.201205 15.000000 -0.514250 90.000000 0.512522 137.000000 -0.129169
445353.000000 1.475769 229.000000 226.000000 155.000000 -0.164439 178.000000 0.119198 202.000000 -0.252102 212.000000 -0.243042 13.000000 -0.528605 82.000000 0.500375 120.000000 -0.118106
446475.000000 1.359653 223.000000 234.000000 140.000000 -0.045517 182.000000 0.113308 209.000000 -0.255563 217.000000 -0.242037 14.000000 -0.548702 89.000000 0.536752 126.000000 -0.091786
447182.000000 1.407521 228.000000 223.000000 153.000000 -0.162662 172.000000 0.083872 189.000000 -0.185266 206.000000 -0.220469 10.000000 -0.372526 84.000000 0.440453 121.000000 -0.156582
447862.000000 1.476632 226.000000 230.000000 157.000000 -0.172273 177.000000 0.025047 195.000000 -0.242382 215.000000 -0.231176 13.000000 -0.455673 86.000000 0.451458 128.000000 -0.118166
448574.000000 1.483366 249.000000 257.000000 183.000000 -0.109244 202.000000 0.116884 220.000000 -0.127052 240.000000 -0.172039 14.000000 -0.484096 93.000000 0.466280 135.000000 -0.088462
449789.000000 1.514751 240.000000 228.000000 157.000000 -0.175549 180.000000 0.074732 205.000000 -0.255785 210.000000 -0.239499 19.000000 -0.478964 84.000000 0.443511 120.000000 -0.123090
450252.000000 1.505459 235.000000 244.000000 169.000000 -0.087821 192.000000 0.121098 215.000000 -0.231927 230.000000 -0.198273 13.000000 -0.461328 89.000000 0.452700 132.000000 -0.080391
452403.000000 1.359393 233.000000 239.000000 154.000000 -0.146019 184.000000 0.077744 218.000000 -0.253200 224.000000 -0.237542 12.000000 -0.444525 87.000000 0.423591 122.000000 -0.086803
452881.000000 1.457050 239.000000 248.000000 175.000000 -0.104042 197.000000 0.114157 223.000000 -0.255345 230.000000 -0.225706 15.000000 -0.520977 89.000000 0.469917 136.000000 -0.097037
454282.000000 1.391867 230.000000 239.000000 166.000000 -0.061127 189.000000 0.122681 205.000000 -0.202945 222.000000 -0.231333 13.000000 -0.546752 86.000000 0.429234 122.000000 -0.069546
454521.000000 1.480015 239.000000 245.000000 168.000000 -0.117476 195.000000 0.115407 215.000000 -0.196646 229.000000 -0.223746 14.000000 -0.527684 87.000000 0.497192 130.000000 -0.093541
455009.000000 1.412037 243.000000 244.000000 159.000000 -0.127226 188.000000 0.058934 214.000000 -0.256598 226.000000 -0.208320 10.000000 -0.450723 86.000000 0.429462 127.000000 -0.143373
455978.000000 1.387401 235.000000 232.000000 155.000000 -0.120283 178.000000 0.114687 205.000000 -0.229076 218.000000 -0.184232 14.000000 -0.553101 82.000000 0.441116 118.000000 -0.070752
456672.000000 1.428026 234.000000 232.000000 155.000000 -0.174922 179.000000 0.075987 196.000000 -0.229734 215.000000 -0.253920 12.000000 -0.444624 84.000000 0.437274 125.000000 -0.128401
458811.000000 1.460252 236.000000 243.000000 170.000000 -0.118416 188.000000 0.104905 212.000000 -0.210001 223.000000 -0.224814 13.000000 -0.472523 87.000000 0.451385 129.000000 -0.090688
460008.000000 1.382747 239.000000 233.000000 160.000000 -0.110205 182.000000 0.072805 198.000000 -0.171739 214.000000 -0.240766 12.000000 -0.426107 90.000000 0.443798 131.000000 -0.086692
460923.000000 1.427212 233.000000 242.000000 169.000000 -0.155926 190.000000 0.066629 208.000000 -0.215502 224.000000 -0.239450 12.000000 -0.439921 82.000000 0.496129 119.000000 -0.075267
463750.000000 1.341032 241.000000 247.000000 147.000000 -0.132618 194.000000 0.075690 222.000000 -0.276550 229.000000 -0.259653 14.000000 -0.505567 87.000000 0.463057 147.000000 -0.132618
464718.000000 1.399045 230.000000 227.000000 154.000000 -0.212871 176.000000 0.104966 192.000000 -0.146209 210.000000 -0.199000 13.000000 -0.544575 85.000000 0.423997 117.000000 -0.144125
467328.000000 1.439813 226.000000 231.000000 154.000000 -0.162477 180.000000 0.098182 203.000000 -0.230423 215.000000 -0.207478 14.000000 -0.579810 86.000000 0.427243 120.000000 -0.105298
467559.000000 1.507506 231.000000 238.000000 167.000000 -0.092618 184.000000 0.107145 217.000000 -0.251160 224.000000 -0.189309 13.000000 -0.486036 88.000000 0.488917 138.000000 -0.094029
468547.000000 1.532087 250.000000 251.000000 179.000000 -0.135829 199.000000 0.093121 227.000000 -0.232037 233.000000 -0.203981 24.000000 -0.551202 85.000000 0.512936 128.000000 -0.114230
469270.000000 1.441911 231.000000 235.000000 165.000000 -0.059531 189.000000 0.110765 201.000000 -0.151867 218.000000 -0.209278 12.000000 -0.527980 81.000000 0.484121 125.000000 -0.041317
470486.000000 1.489056 255.000000 251.000000 180.000000 -0.108351 203.000000 0.107134 220.000000 -0.201862 234.000000 -0.207365 13.000000 -0.438468 90.000000 0.503478 129.000000 -0.106359
470737.000000 1.460880 251.000000 241.000000 172.000000 -0.163510 193.000000 0.083748 210.000000 -0.189825 227.000000 -0.193758 13.000000 -0.451705 90.000000 0.413152 132.000000 -0.124858
470978.000000 1.512902 241.000000 233.000000 163.000000 -0.105814 185.000000 0.148606 202.000000 -0.150688 218.000000 -0.198588 13.000000 -0.537459 84.000000 0.442446 124.000000 -0.106034
471696.000000 1.470631 246.000000 245.000000 172.000000 -0.146878 193.000000 0.074737 214.000000 -0.241863 230.000000 -0.188964 11.000000 -0.440873 80.000000 0.489316 129.000000 -0.116375
476100.000000 1.361666 240.000000 247.000000 176.000000 -0.065596 194.000000 0.135110 210.000000 -0.160280 228.000000 -0.207755 15.000000 -0.551970 86.000000 0.474172 127.000000 -0.061551
477348.000000 1.483875 247.000000 244.000000 175.000000 -0.130015 193.000000 0.102351 216.000000 -0.209076 223.000000 -0.207680 15.000000 -0.489824 86.000000 0.493876 129.000000 -0.089513
478047.000000 1.461221 224.000000 239.000000 170.000000 -0.130630 191.000000 0.078697 209.000000 -0.191710 226.000000 -0.169564 13.000000 -0.466116 83.000000 0.490968 128.000000 -0.097981
478286.000000 1.457207 239.000000 253.000000 182.000000 -0.144657 204.000000 0.088933 221.000000 -0.220628 237.000000 -0.235534 12.000000 -0.392621 90.000000 0.497456 139.000000 -0.116476
478539.000000 1.427852 253.000000 247.000000 167.000000 -0.081819 191.000000 0.059201 208.000000 -0.197320 230.000000 -0.208417 13.000000 -0.495675 88.000000 0.430470 125.000000 -0.107728
479038.000000 1.494904 252.000000 256.000000 180.000000 -0.150405 203.000000 0.076257 224.000000 -0.240516 240.000000 -0.262617 15.000000 -0.450803 93.000000 0.521126 150.000000 -0.117493
480736.000000 1.526666 251.000000 255.000000 181.000000 -0.156048 202.000000 0.086868 217.000000 -0.216316 242.000000 -0.160657 12.000000 -0.445857 88.000000 0.457274 129.000000 -0.095063
480991.000000 1.588105 255.000000 256.000000 183.000000 -0.154638 204.000000 0.047353 230.000000 -0.326721 236.000000 -0.331878 8.000000 -0.389873 92.000000 0.708384 128.000000 -0.008904
481733.000000 1.519149 239.000000 246.000000 175.000000 -0.123664 194.000000 0.086068 211.000000 -0.172960 228.000000 -0.241659 15.000000 -0.540366 81.000000 0.566391 123.000000 -0.070281
485739.000000 1.804355 255.000000 266.000000 190.000000 -0.103214 214.000000 0.159890 237.000000 -0.152025 259.000000 0.244541 16.000000 -0.070486 83.000000 0.189411 121.000000 -0.185138
487262.000000 1.850575 264.000000 258.000000 177.000000 -0.159436 204.000000 0.128637 231.000000 -0.222020 240.000000 -0.180594 14.000000 -0.070225 84.000000 0.153572 120.000000 -0.163965
488036.000000 1.836595 258.000000 252.000000 175.000000 -0.075331 203.000000 0.187694 228.000000 -0.137291 235.000000 -0.127556 14.000000 -0.064486 84.000000 0.162949 114.000000 -0.142066
489031.000000 1.672355 258.000000 258.000000 185.000000 -0.125044 206.000000 0.125017 224.000000 -0.179702 239.000000 -0.186066 14.000000 -0.046406 84.000000 0.192341 121.000000 -0.110482
490029.000000 1.922227 246.000000 247.000000 173.000000 -0.097426 196.000000 0.171741 219.000000 -0.160987 231.000000 -0.139137 12.000000 -0.094779 82.000000 0.264355 120.000000 -0.139153
490276.000000 1.914074 247.000000 249.000000 179.000000 -0.090802 199.000000 0.112240 213.000000 -0.108105 234.000000 -0.169907 15.000000 -0.085879 79.000000 0.258150 114.000000 -0.130204
491534.000000 1.832069 265.000000 263.000000 175.000000 -0.137007 210.000000 0.160802 225.000000 -0.205329 245.000000 -0.136615 14.000000 -0.164906 91.000000 0.239434 125.000000 -0.165220
492324.000000 1.846208 255.000000 237.000000 160.000000 -0.219184 188.000000 0.114248 203.000000 -0.126882 221.000000 -0.181005 13.000000 -0.079576 71.000000 0.198402 80.000000 0.128041
494001.000000 1.795297 254.000000 253.000000 178.000000 -0.144244 197.000000 0.216885 223.000000 -0.222129 240.000000 -0.084450 6.000000 0.001911 80.000000 0.276519 116.000000 -0.129137
496619.000000 1.689531 238.000000 233.000000 152.000000 -0.126865 185.000000 0.224449 201.000000 -0.142319 217.000000 -0.102037 14.000000 -0.017287 76.000000 0.271192 122.000000 -0.187713
498016.000000 1.750391 247.000000 242.000000 166.000000 -0.196409 185.000000 0.140222 214.000000 -0.247804 224.000000 -0.196644 13.000000 -0.059828 80.000000 0.225249 122.000000 -0.283620
499228.000000 1.726477 231.000000 237.000000 162.000000 -0.197178 187.000000 0.150472 210.000000 -0.069731 216.000000 -0.246487 16.000000 -0.134904 64.000000 0.268510 114.000000 -0.140613
504414.000000 1.710328 230.000000 238.000000 144.000000 -0.170597 183.000000 0.129543 206.000000 -0.144329 222.000000 -0.153654 15.000000 -0.060456 80.000000 0.155125 118.000000 -0.177400
504652.000000 1.710769 238.000000 232.000000 151.000000 -0.103200 179.000000 0.153289 201.000000 -0.188496 216.000000 -0.149859 14.000000 -0.093511 89.000000 0.186381 124.000000 -0.143169
505112.000000 1.331540 228.000000 223.000000 151.000000 -0.110218 175.000000 0.123778 192.000000 -0.213902 203.000000 -0.206284 12.000000 -0.533350 90.000000 0.462382 130.000000 -0.126740
506003.000000 1.271991 221.000000 227.000000 149.000000 -0.078181 183.000000 0.111788 199.000000 -0.231864 213.000000 -0.163903 9.000000 -0.424341 88.000000 0.470909 120.000000 -0.026771
508805.000000 1.298059 227.000000 230.000000 150.000000 -0.091408 173.000000 0.136493 194.000000 -0.207943 211.000000 -0.232240 13.000000 -0.509811 90.000000 0.488965 138.000000 -0.117476
512262.000000 1.422822 232.000000 228.000000 158.000000 -0.125238 178.000000 0.112742 195.000000 -0.157056 211.000000 -0.225003 14.000000 -0.556017 83.000000 0.491022 124.000000 -0.093935
513928.000000 1.426143 251.000000 244.000000 176.000000 -0.145911 195.000000 0.097820 212.000000 -0.193312 230.000000 -0.207449 15.000000 -0.536978 89.000000 0.397177 138.000000 -0.089075
514172.000000 1.386672 244.000000 229.000000 157.000000 -0.146096 179.000000 0.067085 200.000000 -0.200438 210.000000 -0.240956 13.000000 -0.471227 81.000000 0.432052 123.000000 -0.134357
515911.000000 1.394248 260.000000 252.000000 177.000000 -0.080688 200.000000 0.077086 222.000000 -0.231565 234.000000 -0.213368 15.000000 -0.561521 86.000000 0.473545 132.000000 -0.136611
516399.000000 1.354544 236.000000 234.000000 159.000000 -0.109638 186.000000 0.127587 209.000000 -0.206272 215.000000 -0.224972 15.000000 -0.604532 89.000000 0.450186 134.000000 -0.077664
516633.000000 1.428444 234.000000 240.000000 171.000000 -0.139622 192.000000 0.103953 210.000000 -0.195406 222.000000 -0.209450 18.000000 -0.510036 79.000000 0.476955 122.000000 -0.086882
518401.000000 1.397700 251.000000 250.000000 178.000000 -0.114860 201.000000 0.102634 219.000000 -0.189732 233.000000 -0.191659 14.000000 -0.486015 86.000000 0.467635 121.000000 -0.063306
518898.000000 1.378654 247.000000 241.000000 168.000000 -0.143964 190.000000 0.105157 221.000000 -0.243934 225.000000 -0.236348 14.000000 -0.525201 82.000000 0.412934 153.000000 -0.104090
519139.000000 1.283354 241.000000 243.000000 171.000000 -0.069844 194.000000 0.111942 210.000000 -0.200548 228.000000 -0.192504 13.000000 -0.542165 81.000000 0.432569 123.000000 -0.037290
519382.000000 1.356556 243.000000 252.000000 175.000000 -0.093858 198.000000 0.074543 217.000000 -0.180252 235.000000 -0.194407 14.000000 -0.473645 89.000000 0.481102 146.000000 -0.107697
519634.000000 1.260121 252.000000 262.000000 188.000000 -0.143434 210.000000 0.086975 233.000000 -0.190784 244.000000 -0.206411 14.000000 -0.507827 90.000000 0.470436 136.000000 -0.101583
519896.000000 1.386974 262.000000 250.000000 177.000000 -0.127429 194.000000 0.094968 225.000000 -0.222759 233.000000 -0.210564 12.000000 -0.416269 86.000000 0.419891 136.000000 -0.131601
521848.000000 1.369341 253.000000 262.000000 188.000000 -0.176710 210.000000 0.091801 232.000000 -0.212305 245.000000 -0.165268 14.000000 -0.465252 90.000000 0.459431 128.000000 -0.087150
523128.000000 1.440818 237.000000 235.000000 147.000000 -0.138495 184.000000 0.126287 198.000000 -0.171865 221.000000 -0.186238 13.000000 -0.390467 89.000000 0.435644 137.000000 -0.109874
524058.000000 1.434140 234.000000 241.000000 148.000000 -0.158937 184.000000 0.067914 207.000000 -0.227684 222.000000 -0.244783 13.000000 -0.458570 90.000000 0.431817 132.000000 -0.155175
524545.000000 1.492805 246.000000 242.000000 150.000000 -0.148914 193.000000 0.110631 206.000000 -0.093383 224.000000 -0.209667 13.000000 -0.438999 86.000000 0.441771 125.000000 -0.152317
525271.000000 1.374167 239.000000 226.000000 153.000000 -0.095331 177.000000 0.132367 194.000000 -0.182130 204.000000 -0.253556 15.000000 -0.545644 81.000000 0.481737 124.000000 -0.085424
526756.000000 1.504714 262.000000 253.000000 184.000000 -0.162304 204.000000 0.076645 228.000000 -0.241580 243.000000 -0.143069 14.000000 -0.492526 87.000000 0.448512 130.000000 -0.084985
527774.000000 1.833915 270.000000 280.000000 200.000000 -0.084014 230.000000 0.115922 247.000000 -0.156302 263.000000 -0.159986 14.000000 -0.061993 80.000000 0.221893 131.000000 -0.130474
528054.000000 1.793587 280.000000 281.000000 206.000000 -0.111865 227.000000 0.143683 254.000000 -0.169954 265.000000 -0.139262 12.000000 -0.020646 88.000000 0.211584 125.000000 -0.119388
528604.000000 1.634607 269.000000 247.000000 176.000000 -0.129813 193.000000 0.156001 211.000000 -0.100378 229.000000 -0.119358 15.000000 -0.118559 72.000000 0.161052 125.000000 -0.155408
528851.000000 1.686220 247.000000 255.000000 179.000000 -0.119967 203.000000 0.155237 226.000000 -0.163399 237.000000 -0.151818 15.000000 -0.055693 83.000000 0.213509 123.000000 -0.136865
529354.000000 1.696147 248.000000 235.000000 156.000000 -0.139560 186.000000 0.141303 203.000000 -0.138838 219.000000 -0.188336 14.000000 -0.072582 83.000000 0.161429 118.000000 -0.152585
529589.000000 1.642135 235.000000 229.000000 153.000000 -0.144776 183.000000 0.172715 201.000000 -0.125814 213.000000 -0.121865 14.000000 -0.127756 82.000000 0.137917 113.000000 -0.131469
529818.000000 1.795579 229.000000 253.000000 181.000000 -0.176455 201.000000 0.137087 224.000000 -0.156724 236.000000 -0.135299 12.000000 -0.018700 76.000000 0.235752 120.000000 -0.167193
530071.000000 1.749575 253.000000 286.000000 210.000000 -0.058136 232.000000 0.224875 261.000000 -0.146395 269.000000 -0.139609 14.000000 -0.048012 81.000000 0.243728 149.000000 -0.134501
531451.000000 1.718924 267.000000 242.000000 173.000000 -0.107809 195.000000 0.166705 207.000000 -0.047904 223.000000 -0.100160 12.000000 -0.051737 75.000000 0.200897 114.000000 -0.117476
531693.000000 1.784042 242.000000 240.000000 168.000000 -0.215501 188.000000 0.037948 216.000000 -0.222946 221.000000 -0.200016 15.000000 -0.056834 76.000000 0.108451 113.000000 -0.237368
533796.000000 1.718698 302.000000 271.000000 206.000000 -0.210406 226.000000 0.063669 249.000000 -0.220544 256.000000 -0.143757 16.000000 -0.052822 82.000000 0.228231 123.000000 -0.135813
534809.000000 1.623983 248.000000 248.000000 173.000000 -0.068023 197.000000 0.141459 212.000000 -0.156098 231.000000 -0.194014 14.000000 -0.144983 83.000000 0.170989 143.000000 -0.107411
535815.000000 1.726550 252.000000 265.000000 196.000000 -0.164155 218.000000 0.149215 242.000000 -0.169529 249.000000 -0.120500 13.000000 -0.096897 85.000000 0.196820 115.000000 -0.095204
536876.000000 1.781393 256.000000 266.000000 186.000000 -0.125612 212.000000 0.142709 230.000000 -0.123938 252.000000 -0.124046 14.000000 -0.025991 86.000000 0.225152 120.000000 -0.160034
537911.000000 1.817695 244.000000 244.000000 172.000000 -0.130753 192.000000 0.168293 214.000000 -0.112617 226.000000 -0.134954 14.000000 -0.060395 78.000000 0.177535 88.000000 0.077206
541668.000000 1.484009 256.000000 243.000000 169.000000 -0.123668 190.000000 0.082116 207.000000 -0.232980 225.000000 -0.248762 15.000000 -0.426587 90.000000 0.383242 130.000000 -0.114076
543054.000000 1.458934 224.000000 237.000000 156.000000 -0.116535 185.000000 0.064311 200.000000 -0.213448 218.000000 -0.221283 15.000000 -0.512523 83.000000 0.446442 125.000000 -0.120281
544753.000000 1.305985 225.000000 229.000000 159.000000 -0.111267 178.000000 0.114314 204.000000 -0.235577 213.000000 -0.205766 13.000000 -0.526854 87.000000 0.489480 126.000000 -0.063290
545692.000000 1.403435 240.000000 242.000000 167.000000 -0.095064 187.000000 0.078918 210.000000 -0.235973 223.000000 -0.204311 13.000000 -0.434056 85.000000 0.470600 132.000000 -0.074939
547876.000000 1.356786 251.000000 255.000000 182.000000 -0.170407 199.000000 0.073306 232.000000 -0.258746 239.000000 -0.201943 15.000000 -0.487809 91.000000 0.469387 136.000000 -0.113947
549352.000000 1.452395 250.000000 259.000000 184.000000 -0.166131 210.000000 0.092256 228.000000 -0.176146 243.000000 -0.182479 14.000000 -0.498261 85.000000 0.511287 122.000000 -0.059638
552876.000000 1.432158 245.000000 237.000000 155.000000 -0.111300 184.000000 0.113872 207.000000 -0.270110 220.000000 -0.230987 14.000000 -0.474221 83.000000 0.424730 123.000000 -0.109404
555310.000000 1.428575 240.000000 236.000000 170.000000 -0.116549 187.000000 0.107008 213.000000 -0.227162 219.000000 -0.201818 11.000000 -0.430093 85.000000 0.434703 127.000000 -0.072053
555546.000000 1.346115 236.000000 246.000000 179.000000 -0.120595 196.000000 0.078589 212.000000 -0.178058 231.000000 -0.209126 13.000000 -0.479291 83.000000 0.479719 125.000000 -0.068856
556038.000000 1.402104 246.000000 250.000000 174.000000 -0.077556 197.000000 0.107539 221.000000 -0.203166 234.000000 -0.203056 15.000000 -0.544008 84.000000 0.493719 132.000000 -0.046491
559978.000000 1.538638 241.000000 234.000000 164.000000 -0.206785 186.000000 0.012997 208.000000 -0.239514 215.000000 -0.322053 14.000000 -0.500752 86.000000 0.432601 153.000000 -0.178384
563308.000000 1.350783 249.000000 255.000000 178.000000 -0.142055 200.000000 0.102131 225.000000 -0.238842 240.000000 -0.173592 13.000000 -0.448136 91.000000 0.450721 126.000000 -0.107131
565020.000000 1.329500 246.000000 253.000000 181.000000 -0.118433 197.000000 0.135047 224.000000 -0.238307 236.000000 -0.181833 15.000000 -0.501471 89.000000 0.444863 131.000000 -0.088919
566018.000000 1.337051 236.000000 236.000000 156.000000 -0.129624 189.000000 0.095123 210.000000 -0.224122 219.000000 -0.220719 17.000000 -0.557527 81.000000 0.469356 124.000000 -0.077086
570984.000000 1.473368 242.000000 261.000000 183.000000 -0.135530 209.000000 0.098559 236.000000 -0.259640 244.000000 -0.195895 11.000000 -0.438764 83.000000 0.538554 127.000000 -0.145563
571245.000000 1.414514 261.000000 272.000000 185.000000 -0.157651 218.000000 0.102648 250.000000 -0.165738 257.000000 -0.181897 14.000000 -0.489359 87.000000 0.549637 131.000000 -0.122478
571517.000000 1.650736 272.000000 257.000000 175.000000 -0.120815 204.000000 0.135264 227.000000 -0.174062 240.000000 -0.141397 11.000000 -0.162728 78.000000 0.154733 119.000000 -0.144092
573015.000000 1.736264 234.000000 242.000000 154.000000 -0.145221 189.000000 0.157367 207.000000 -0.130767 223.000000 -0.163196 14.000000 -0.044897 80.000000 0.188226 114.000000 -0.154877
575805.000000 1.621202 271.000000 256.000000 178.000000 -0.124076 201.000000 0.115675 224.000000 -0.189841 240.000000 -0.204934 11.000000 -0.193486 86.000000 0.185608 125.000000 -0.145582
576800.000000 1.614612 237.000000 226.000000 152.000000 -0.151347 177.000000 0.119356 199.000000 -0.183136 210.000000 -0.168277 11.000000 -0.194887 86.000000 0.121429 116.000000 -0.167395
577026.000000 1.692601 226.000000 227.000000 157.000000 -0.133404 180.000000 0.142756 204.000000 -0.211444 213.000000 -0.171743 12.000000 -0.024281 77.000000 0.235157 121.000000 -0.143433
577253.000000 1.679182 227.000000 231.000000 156.000000 -0.135594 181.000000 0.123353 203.000000 -0.174030 217.000000 -0.140160 12.000000 -0.038154 77.000000 0.213354 111.000000 -0.124325
578012.000000 1.770111 279.000000 284.000000 206.000000 -0.103731 231.000000 0.146020 258.000000 -0.149810 265.000000 -0.136753 14.000000 -0.102741 87.000000 0.184027 132.000000 -0.184171
579320.000000 2.089563 255.000000 283.000000 210.000000 -0.210986 236.000000 -0.034685 260.000000 -0.226031 266.000000 -0.167206 17.000000 -0.105155 88.000000 0.339374 108.000000 0.039310
579872.000000 1.901398 269.000000 261.000000 187.000000 -0.219233 207.000000 0.101737 229.000000 -0.159188 242.000000 -0.173059 15.000000 -0.006737 91.000000 0.213027 127.000000 -0.135595
581342.000000 1.784783 227.000000 235.000000 160.000000 -0.105424 185.000000 0.174529 201.000000 -0.098087 216.000000 -0.131079 13.000000 -0.188243 81.000000 0.168699 109.000000 -0.140566
583138.000000 1.684670 255.000000 259.000000 187.000000 -0.080047 207.000000 0.170579 230.000000 -0.126271 244.000000 -0.140423 13.000000 -0.060785 81.000000 0.194635 108.000000 -0.102401
583906.000000 1.634778 246.000000 243.000000 174.000000 -0.119185 194.000000 0.165987 221.000000 -0.183088 225.000000 -0.142100 11.000000 -0.159565 80.000000 0.191233 119.000000 -0.155973
584149.000000 1.650393 243.000000 256.000000 179.000000 -0.123905 203.000000 0.116443 232.000000 -0.190878 237.000000 -0.201646 12.000000 -0.019027 77.000000 0.225770 130.000000 -0.141144
585179.000000 1.599653 248.000000 242.000000 168.000000 -0.115269 193.000000 0.152787 214.000000 -0.145018 222.000000 -0.170880 17.000000 -0.126114 85.000000 0.171321 123.000000 -0.124529
585421.000000 1.664087 242.000000 236.000000 155.000000 -0.103386 186.000000 0.132855 208.000000 -0.191988 219.000000 -0.199402 16.000000 -0.050803 78.000000 0.232128 116.000000 -0.133355
585657.000000 1.612559 236.000000 237.000000 168.000000 -0.115329 189.000000 0.162195 207.000000 -0.146896 221.000000 -0.162573 15.000000 -0.053602 76.000000 0.206881 113.000000 -0.123698
586122.000000 1.623484 228.000000 240.000000 162.000000 -0.070640 186.000000 0.171556 203.000000 -0.141518 226.000000 -0.117353 13.000000 -0.125248 78.000000 0.181974 117.000000 -0.129448
586612.000000 1.679277 250.000000 261.000000 183.000000 -0.093763 206.000000 0.154436 221.000000 -0.149136 245.000000 -0.155169 14.000000 -0.035912 81.000000 0.253776 128.000000 -0.130675
587373.000000 1.745154 253.000000 248.000000 174.000000 -0.145654 197.000000 0.146132 227.000000 -0.168841 230.000000 -0.186099 13.000000 -0.066240 77.000000 0.237318 122.000000 -0.167569
588349.000000 1.755673 243.000000 249.000000 175.000000 -0.114717 198.000000 0.150046 219.000000 -0.197477 229.000000 -0.157633 14.000000 -0.066334 84.000000 0.207491 125.000000 -0.154372
589091.000000 1.724858 245.000000 253.000000 174.000000 -0.073324 200.000000 0.198321 221.000000 -0.153544 235.000000 -0.124093 13.000000 -0.037224 80.000000 0.189908 129.000000 -0.145250
592691.000000 1.729159 228.000000 231.000000 145.000000 -0.109562 177.000000 0.176975 203.000000 -0.189390 217.000000 -0.123871 15.000000 -0.079368 81.000000 0.192853 113.000000 -0.125407
593440.000000 1.728670 272.000000 275.000000 198.000000 -0.122633 220.000000 0.149217 238.000000 -0.118292 257.000000 -0.128448 14.000000 -0.098071 87.000000 0.163305 129.000000 -0.117601
594274.000000 1.712650 265.000000 247.000000 175.000000 -0.138715 196.000000 0.168042 213.000000 -0.126361 230.000000 -0.183746 13.000000 -0.091990 76.000000 0.150454 123.000000 -0.137336
595026.000000 1.692526 257.000000 249.000000 173.000000 -0.147585 194.000000 0.100816 226.000000 -0.214449 231.000000 -0.165938 16.000000 -0.048397 80.000000 0.196932 140.000000 -0.172507
595275.000000 1.677851 249.000000 247.000000 152.000000 -0.168368 191.000000 0.156365 222.000000 -0.152995 228.000000 -0.133339 12.000000 -0.079892 77.000000 0.173947 121.000000 -0.205328
595762.000000 1.669795 240.000000 235.000000 154.000000 -0.117710 184.000000 0.144549 202.000000 -0.153757 217.000000 -0.201985 17.000000 -0.072039 88.000000 0.185940 124.000000 -0.146065
596223.000000 1.653327 226.000000 225.000000 147.000000 -0.139358 173.000000 0.167270 201.000000 -0.192148 208.000000 -0.178637 13.000000 -0.086910 83.000000 0.184879 114.000000 -0.139264
597699.000000 1.682182 258.000000 273.000000 194.000000 -0.136771 222.000000 0.164166 239.000000 -0.098748 255.000000 -0.132288 16.000000 -0.066893 84.000000 0.209079 124.000000 -0.134480
597972.000000 1.727495 273.000000 270.000000 196.000000 -0.098025 219.000000 0.141239 240.000000 -0.155593 252.000000 -0.123712 15.000000 -0.058084 93.000000 0.200100 132.000000 -0.183681
598503.000000 1.684436 261.000000 236.000000 167.000000 -0.108587 185.000000 0.118843 207.000000 -0.195280 220.000000 -0.186926 16.000000 -0.088479 71.000000 0.124296 109.000000 -0.135988
598983.000000 1.721408 244.000000 247.000000 175.000000 -0.089594 199.000000 0.151910 222.000000 -0.148166 229.000000 -0.168213 17.000000 -0.072183 83.000000 0.199811 126.000000 -0.118371
599734.000000 1.714624 252.000000 258.000000 184.000000 -0.059436 204.000000 0.158808 224.000000 -0.179530 239.000000 -0.152446 12.000000 -0.118919 89.000000 0.192976 128.000000 -0.143982
599992.000000 1.771893 258.000000 257.000000 180.000000 -0.117177 202.000000 0.120879 228.000000 -0.214498 244.000000 -0.113400 8.000000 -0.176837 88.000000 0.219041 128.000000 -0.178668
600249.000000 1.730313 257.000000 256.000000 172.000000 -0.095221 203.000000 0.146331 230.000000 -0.161461 235.000000 -0.175739 13.000000 -0.032601 84.000000 0.231538 122.000000 -0.124749
600988.000000 1.710827 246.000000 247.000000 173.000000 -0.109576 197.000000 0.155172 214.000000 -0.126833 230.000000 -0.163789 12.000000 -0.066587 82.000000 0.207049 116.000000 -0.168481
601482.000000 1.693232 247.000000 248.000000 172.000000 -0.135360 195.000000 0.120361 210.000000 -0.160125 231.000000 -0.126756 16.000000 -0.109231 81.000000 0.151391 112.000000 -0.170504
603946.000000 1.779874 255.000000 261.000000 181.000000 -0.153792 209.000000 0.167399 226.000000 -0.148980 243.000000 -0.173665 14.000000 -0.054294 84.000000 0.228794 126.000000 -0.134732
605417.000000 1.655672 233.000000 235.000000 156.000000 -0.148527 183.000000 0.162571 203.000000 -0.143181 217.000000 -0.193431 15.000000 -0.122729 75.000000 0.144295 117.000000 -0.173104
605652.000000 1.699705 235.000000 243.000000 169.000000 -0.100626 189.000000 0.166835 207.000000 -0.133951 229.000000 -0.129345 15.000000 -0.042739 81.000000 0.230004 118.000000 -0.118697
605895.000000 1.752815 243.000000 253.000000 175.000000 -0.098804 199.000000 0.179062 217.000000 -0.097491 237.000000 -0.124452 13.000000 -0.057185 89.000000 0.221797 105.000000 -0.055129
606148.000000 1.737381 253.000000 248.000000 171.000000 -0.145362 197.000000 0.115500 216.000000 -0.196551 233.000000 -0.156674 11.000000 -0.022635 83.000000 0.175078 119.000000 -0.167432
606649.000000 1.705626 253.000000 255.000000 175.000000 -0.106739 206.000000 0.147462 230.000000 -0.172129 237.000000 -0.175592 14.000000 -0.047726 92.000000 0.231680 127.000000 -0.137238
607150.000000 1.734122 246.000000 229.000000 156.000000 -0.138463 179.000000 0.156349 208.000000 -0.198605 213.000000 -0.187258 14.000000 -0.049358 78.000000 0.167022 116.000000 -0.175720
607379.000000 1.644233 229.000000 234.000000 164.000000 -0.134810 185.000000 0.159672 209.000000 -0.137666 214.000000 -0.134655 16.000000 -0.096988 82.000000 0.123719 114.000000 -0.190968
607613.000000 1.751819 234.000000 247.000000 174.000000 -0.101379 196.000000 0.165236 219.000000 -0.174278 228.000000 -0.192977 13.000000 -0.051675 77.000000 0.241979 120.000000 -0.162896
609113.000000 1.728303 250.000000 241.000000 169.000000 -0.156301 191.000000 0.096034 208.000000 -0.177618 225.000000 -0.203932 12.000000 -0.054001 77.000000 0.178213 118.000000 -0.169702
610090.000000 1.674027 254.000000 245.000000 172.000000 -0.128668 192.000000 0.106426 222.000000 -0.184464 229.000000 -0.193071 16.000000 -0.109328 83.000000 0.180579 119.000000 -0.150721
610598.000000 1.781188 263.000000 271.000000 196.000000 -0.129923 219.000000 0.133571 246.000000 -0.178841 249.000000 -0.155407 15.000000 -0.091681 91.000000 0.214150 126.000000 -0.146161
611849.000000 1.730300 239.000000 232.000000 151.000000 -0.155735 184.000000 0.121194 202.000000 -0.171485 214.000000 -0.174763 12.000000 -0.053541 83.000000 0.155643 113.000000 -0.153904
613097.000000 1.727945 247.000000 249.000000 177.000000 -0.079966 197.000000 0.182290 216.000000 -0.119718 231.000000 -0.164263 17.000000 -0.095362 83.000000 0.191649 122.000000 -0.160593
614551.000000 1.656815 242.000000 241.000000 165.000000 -0.099514 189.000000 0.149606 215.000000 -0.198249 222.000000 -0.190802 14.000000 -0.081493 81.000000 0.170939 120.000000 -0.185688
616245.000000 1.699343 232.000000 239.000000 170.000000 -0.131661 188.000000 0.147727 211.000000 -0.158180 223.000000 -0.175297 14.000000 -0.038572 80.000000 0.246100 126.000000 -0.119983
619655.000000 1.753505 247.000000 243.000000 170.000000 -0.074765 191.000000 0.182900 206.000000 -0.121192 227.000000 -0.111911 13.000000 -0.043077 78.000000 0.225735 127.000000 -0.104329
619898.000000 1.808342 243.000000 239.000000 156.000000 -0.171663 189.000000 0.126378 216.000000 -0.215724 224.000000 -0.148420 16.000000 -0.028681 75.000000 0.131209 102.000000 -0.138840
620379.000000 1.798528 242.000000 242.000000 170.000000 -0.096863 193.000000 0.158528 212.000000 -0.108827 225.000000 -0.159267 12.000000 -0.064482 80.000000 0.189296 110.000000 -0.111034
620621.000000 1.748036 242.000000 252.000000 182.000000 -0.115626 198.000000 0.130691 227.000000 -0.198087 233.000000 -0.200971 14.000000 -0.057090 85.000000 0.197820 126.000000 -0.103355
620873.000000 1.622003 252.000000 249.000000 173.000000 -0.087148 198.000000 0.136284 220.000000 -0.188007 233.000000 -0.139324 15.000000 -0.132731 78.000000 0.133960 115.000000 -0.130113
621122.000000 1.736836 249.000000 250.000000 172.000000 -0.070892 196.000000 0.139987 215.000000 -0.185108 234.000000 -0.198415 12.000000 -0.089433 87.000000 0.163355 129.000000 -0.119040
622123.000000 1.701174 239.000000 229.000000 156.000000 -0.113591 177.000000 0.159277 194.000000 -0.113201 213.000000 -0.118122 14.000000 -0.078136 82.000000 0.124088 110.000000 -0.167242
623500.000000 1.426194 227.000000 238.000000 154.000000 -0.163434 182.000000 0.030924 199.000000 -0.252132 220.000000 -0.296020 11.000000 -0.403728 91.000000 0.450097 137.000000 -0.209216
623976.000000 1.536596 238.000000 249.000000 174.000000 -0.135690 197.000000 0.069357 217.000000 -0.214953 233.000000 -0.175314 14.000000 -0.594658 84.000000 0.557520 122.000000 -0.117492
624472.000000 0.881632 247.000000 237.000000 131.000000 -0.067680 182.000000 0.239828 193.000000 0.138997 221.000000 -0.108559 13.000000 -0.931816 89.000000 0.372036 106.000000 0.042616
624932.000000 1.379826 223.000000 222.000000 142.000000 -0.107411 172.000000 0.196382 196.000000 -0.315061 204.000000 -0.258195 13.000000 -0.518733 81.000000 0.454247 142.000000 -0.107411
625633.000000 1.426204 242.000000 232.000000 150.000000 -0.137416 176.000000 0.073636 193.000000 -0.228479 217.000000 -0.276880 15.000000 -0.506302 85.000000 0.364200 121.000000 -0.118889
626573.000000 1.420252 242.000000 233.000000 147.000000 -0.142020 187.000000 0.106853 211.000000 -0.178132 215.000000 -0.285498 11.000000 -0.453415 85.000000 0.467839 121.000000 -0.103431
627030.000000 1.546833 224.000000 231.000000 150.000000 -0.229625 186.000000 0.034260 200.000000 -0.249956 217.000000 -0.113419 13.000000 -0.450331 88.000000 0.488842 122.000000 -0.166332
627997.000000 1.377589 237.000000 244.000000 171.000000 -0.061035 187.000000 0.099356 214.000000 -0.277322 231.000000 -0.248936 5.000000 -0.112114 95.000000 0.493448 141.000000 -0.079953
628482.000000 1.436848 241.000000 226.000000 147.000000 -0.112995 173.000000 0.129261 202.000000 -0.298496 208.000000 -0.306317 15.000000 -0.532040 86.000000 0.562913 122.000000 -0.090204
630613.000000 1.398808 254.000000 227.000000 151.000000 -0.171615 179.000000 0.195377 194.000000 -0.249122 212.000000 -0.266645 18.000000 -0.498262 81.000000 0.448761 123.000000 -0.135392
630840.000000 1.309671 227.000000 228.000000 156.000000 -0.170108 180.000000 0.119250 192.000000 -0.083697 215.000000 -0.210123 14.000000 -0.467132 82.000000 0.421331 119.000000 -0.150406
635869.000000 1.085536 228.000000 244.000000 131.000000 -0.044293 153.000000 0.183918 172.000000 -0.021115 224.000000 -0.147758 19.000000 -0.855687 90.000000 0.815457 103.000000 0.194311
636373.000000 1.243746 260.000000 250.000000 176.000000 -0.106226 194.000000 0.042913 221.000000 -0.187180 235.000000 -0.095658 14.000000 -0.235658 85.000000 0.370612 141.000000 -0.087368
636623.000000 1.247509 250.000000 259.000000 187.000000 -0.082915 206.000000 0.065752 222.000000 -0.152196 240.000000 -0.176224 14.000000 -0.248932 93.000000 0.323198 127.000000 -0.058777
636882.000000 1.464859 259.000000 254.000000 171.000000 -0.053697 199.000000 0.043478 222.000000 -0.283919 239.000000 -0.313716 12.000000 -0.224107 90.000000 0.321584 113.000000 -0.032258
637813.000000 1.675111 221.000000 282.000000 194.000000 -0.165769 236.000000 0.150673 247.000000 -0.054954 264.000000 -0.101931 13.000000 -0.425498 82.000000 0.590285 128.000000 -0.154699
638393.000000 1.669925 298.000000 297.000000 215.000000 -0.133637 244.000000 0.166049 271.000000 -0.151692 282.000000 -0.141942 11.000000 -0.078477 87.000000 0.186334 126.000000 -0.116096
638690.000000 1.596006 297.000000 287.000000 210.000000 -0.124640 235.000000 0.146019 262.000000 -0.175861 274.000000 -0.132788 13.000000 -0.051331 84.000000 0.201990 131.000000 -0.121225
640466.000000 1.458525 261.000000 268.000000 189.000000 -0.112337 216.000000 0.137303 232.000000 -0.146427 251.000000 -0.123385 14.000000 -0.038043 85.000000 0.182224 129.000000 -0.200063
641842.000000 1.542543 255.000000 256.000000 182.000000 -0.127991 208.000000 0.165082 229.000000 -0.177349 235.000000 -0.181612 11.000000 -0.057205 76.000000 0.244222 120.000000 -0.129293
642359.000000 1.569471 261.000000 256.000000 181.000000 -0.116848 202.000000 0.125219 225.000000 -0.175739 238.000000 -0.189531 14.000000 -0.055935 84.000000 0.168688 122.000000 -0.135372
642615.000000 1.523198 256.000000 266.000000 178.000000 -0.104327 210.000000 0.153948 237.000000 -0.185959 244.000000 -0.142903 17.000000 -0.094795 89.000000 0.204206 123.000000 -0.165812
643671.000000 1.636915 248.000000 258.000000 179.000000 -0.088008 210.000000 0.163825 233.000000 -0.151958 241.000000 -0.131346 15.000000 -0.065217 83.000000 0.205392 125.000000 -0.085595
643929.000000 1.639485 258.000000 255.000000 181.000000 -0.145452 204.000000 0.151585 220.000000 -0.115422 240.000000 -0.088698 14.000000 -0.078147 89.000000 0.192324 124.000000 -0.159730
644433.000000 1.629498 249.000000 233.000000 154.000000 -0.145093 180.000000 0.131645 203.000000 -0.135629 218.000000 -0.122604 14.000000 -0.077084 71.000000 0.122461 112.000000 -0.169874
646452.000000 1.666440 227.000000 243.000000 167.000000 -0.130768 188.000000 0.127353 206.000000 -0.118337 223.000000 -0.188917 12.000000 -0.038906 82.000000 0.158758 122.000000 -0.131304
647200.000000 1.651489 254.000000 249.000000 175.000000 -0.107714 196.000000 0.142255 215.000000 -0.147180 232.000000 -0.176015 14.000000 -0.061819 83.000000 0.183763 130.000000 -0.114943
649141.000000 1.695143 277.000000 273.000000 199.000000 -0.174138 218.000000 0.088777 248.000000 -0.194423 254.000000 -0.148562 15.000000 -0.036316 80.000000 0.222886 119.000000 -0.116190
