38488.000000 1.916551 226.000000 364.000000 251.000000 0.159359 290.000000 0.345944 319.000000 0.059862 342.000000 0.108654 22.000000 0.177290 27.000000 0.549077 82.000000 -0.932489
84716.000000 1.171289 288.000000 289.000000 190.000000 0.039056 218.000000 0.330406 266.000000 0.031614 278.000000 0.419858 21.000000 -0.575042 171.000000 0.123587 179.000000 0.024480
96450.000000 1.536726 285.000000 295.000000 191.000000 0.051567 235.000000 0.356411 261.000000 0.025360 270.000000 0.022320 25.000000 -0.557100 119.000000 0.114921 149.000000 -0.002821
104592.000000 1.410047 293.000000 305.000000 199.000000 0.101676 226.000000 0.295784 239.000000 0.141661 280.000000 0.055063 23.000000 -0.745249 173.000000 0.142772 199.000000 0.101676
122260.000000 1.425534 300.000000 297.000000 203.000000 0.135752 237.000000 0.308057 260.000000 -0.000970 276.000000 0.056695 23.000000 -0.926596 177.000000 0.186566 191.000000 0.147649
126043.000000 1.483922 346.000000 309.000000 213.000000 0.180378 238.000000 0.341742 246.000000 0.165722 283.000000 0.043292 19.000000 -1.169622 131.000000 0.128091 159.000000 0.038920
126650.000000 1.498793 298.000000 292.000000 194.000000 0.155155 217.000000 0.352287 229.000000 0.169732 273.000000 -0.055033 22.000000 -0.940832 169.000000 0.191504 184.000000 0.075923
126942.000000 1.570657 292.000000 213.000000 107.000000 0.033448 133.000000 0.161913 139.000000 -0.027852 192.000000 0.122680 17.000000 -1.018685 96.000000 0.125486 115.000000 0.037994
127155.000000 1.813196 213.000000 317.000000 219.000000 0.121960 244.000000 0.368072 268.000000 0.137273 283.000000 0.076787 23.000000 -0.991351 182.000000 0.163511 195.000000 0.074451
130000.000000 1.927258 203.000000 320.000000 224.000000 -0.023901 247.000000 0.366727 282.000000 0.075505 294.000000 0.015676 3.000000 1.030485 182.000000 0.181551 195.000000 0.135329
146759.000000 1.514185 253.000000 255.000000 147.000000 0.106974 182.000000 0.348682 219.000000 0.028369 241.000000 -0.004451 23.000000 -1.050910 137.000000 0.202852 147.000000 0.106974
149460.000000 1.431567 244.000000 247.000000 161.000000 0.138589 183.000000 0.284468 190.000000 0.141912 228.000000 -0.023385 16.000000 -1.085911 109.000000 0.183980 130.000000 0.061943
150198.000000 1.493793 245.000000 245.000000 150.000000 0.132572 181.000000 0.380957 212.000000 -0.025940 233.000000 0.002195 25.000000 -0.784734 123.000000 0.186709 131.000000 0.105079
150443.000000 1.416821 245.000000 240.000000 143.000000 0.081019 171.000000 0.394516 184.000000 0.202055 224.000000 -0.088699 18.000000 -1.104825 118.000000 0.197933 143.000000 0.081019
151654.000000 1.512696 239.000000 246.000000 151.000000 0.060360 178.000000 0.384183 192.000000 0.210923 224.000000 0.013699 25.000000 -0.825423 144.000000 0.163198 153.000000 0.068197
151900.000000 1.527554 246.000000 240.000000 147.000000 0.066397 173.000000 0.411787 201.000000 0.048337 222.000000 -0.041425 17.000000 -1.024657 109.000000 0.233794 119.000000 0.151350
152140.000000 1.591804 240.000000 238.000000 133.000000 0.085863 174.000000 0.358495 203.000000 -0.019310 217.000000 -0.041364 22.000000 -1.015612 118.000000 0.165690 133.000000 0.085863
152863.000000 1.522368 248.000000 241.000000 147.000000 0.055456 169.000000 0.346035 204.000000 -0.064469 224.000000 -0.105973 22.000000 -0.907757 108.000000 0.156366 123.000000 0.063936
153104.000000 1.487177 241.000000 239.000000 146.000000 0.073855 172.000000 0.330046 182.000000 0.155296 221.000000 -0.023308 13.000000 -0.895801 114.000000 0.200470 122.000000 0.058793
153343.000000 1.519498 239.000000 238.000000 143.000000 0.047243 170.000000 0.361415 200.000000 -0.003053 219.000000 -0.046489 22.000000 -0.995941 109.000000 0.210924 143.000000 0.047243
153581.000000 1.542664 238.000000 249.000000 151.000000 0.048072 181.000000 0.400188 188.000000 0.134970 228.000000 -0.007521 22.000000 -1.098075 108.000000 0.162742 131.000000 0.111676
154553.000000 1.482369 245.000000 250.000000 150.000000 0.032431 181.000000 0.322542 212.000000 -0.081081 230.000000 -0.035644 23.000000 -0.954120 119.000000 0.221365 150.000000 0.032431
154803.000000 1.505360 250.000000 242.000000 145.000000 0.039310 174.000000 0.371394 189.000000 0.138636 231.000000 0.292618 22.000000 -1.016961 117.000000 0.195408 126.000000 0.090925
155291.000000 1.466320 246.000000 246.000000 145.000000 0.046583 176.000000 0.354059 188.000000 0.136944 226.000000 -0.094654 22.000000 -0.941017 117.000000 0.214702 123.000000 0.066349
157489.000000 1.396758 241.000000 247.000000 140.000000 0.101552 176.000000 0.353305 187.000000 0.126095 227.000000 -0.047760 22.000000 -0.944121 128.000000 0.214499 140.000000 0.101552
158715.000000 1.416203 257.000000 255.000000 142.000000 0.069246 183.000000 0.339984 226.000000 0.007727 234.000000 0.039326 12.000000 -0.913311 125.000000 0.172585 142.000000 0.069246
159473.000000 1.380644 249.000000 256.000000 155.000000 -0.036801 198.000000 0.233796 224.000000 -0.025986 230.000000 -0.050202 21.000000 -0.981268 114.000000 0.145266 136.000000 0.112679
160483.000000 1.295018 253.000000 257.000000 153.000000 0.016410 182.000000 0.318430 194.000000 0.165138 240.000000 -0.150580 11.000000 -0.757053 118.000000 0.162995 136.000000 0.110878
160740.000000 1.340815 257.000000 250.000000 145.000000 0.017383 186.000000 0.318434 198.000000 0.212164 234.000000 -0.056018 21.000000 -0.965548 114.000000 0.164717 145.000000 0.017383
161674.000000 1.428714 188.000000 276.000000 171.000000 0.073527 206.000000 0.268011 243.000000 0.007150 251.000000 -0.029764 25.000000 -0.720298 161.000000 0.146976 174.000000 0.074263
162202.000000 1.381991 252.000000 249.000000 160.000000 0.073024 179.000000 0.288540 199.000000 0.172366 224.000000 -0.031645 25.000000 -0.644387 118.000000 0.169391 127.000000 0.123480
162698.000000 1.353387 247.000000 249.000000 144.000000 0.052288 182.000000 0.303524 218.000000 0.001689 235.000000 -0.062777 16.000000 -1.084186 107.000000 0.154374 144.000000 0.052288
165003.000000 1.259999 259.000000 259.000000 171.000000 0.053182 191.000000 0.274952 197.000000 0.159497 239.000000 -0.047773 9.000000 -0.635221 116.000000 0.160864 144.000000 0.030221
165518.000000 1.226441 256.000000 265.000000 175.000000 0.085690 196.000000 0.304937 228.000000 -0.016176 248.000000 -0.072166 18.000000 -0.950065 130.000000 0.158902 153.000000 0.092445
165783.000000 1.316486 265.000000 171.000000 75.000000 -0.208873 116.000000 0.182773 126.000000 0.175877 155.000000 0.020484 23.000000 -0.913295 100.000000 0.135610 109.000000 0.156771
167068.000000 1.315062 262.000000 267.000000 176.000000 0.052007 200.000000 0.316052 208.000000 0.156867 244.000000 -0.106269 16.000000 -1.156161 122.000000 0.206004 129.000000 0.045846
167601.000000 1.381411 266.000000 270.000000 186.000000 0.132275 205.000000 0.343592 215.000000 0.243466 245.000000 -0.011942 18.000000 -1.133651 123.000000 0.198401 142.000000 0.150016
175644.000000 1.474734 262.000000 252.000000 144.000000 0.055455 184.000000 0.383370 196.000000 0.255784 231.000000 -0.025973 21.000000 -0.955971 127.000000 0.258575 144.000000 0.055455
176155.000000 1.542102 259.000000 259.000000 159.000000 0.062899 189.000000 0.344624 205.000000 0.172665 233.000000 -0.045596 22.000000 -0.957163 150.000000 0.194356 159.000000 0.062899
176662.000000 1.533637 248.000000 280.000000 187.000000 -0.050766 207.000000 0.435283 236.000000 0.106976 260.000000 -0.008683 25.000000 -0.531032 154.000000 0.170094 166.000000 0.079107
177201.000000 1.401738 259.000000 257.000000 141.000000 0.042684 201.000000 0.278997 218.000000 -0.084185 232.000000 -0.006974 24.000000 -0.966820 123.000000 0.198074 141.000000 0.042684
188274.000000 1.358510 250.000000 253.000000 164.000000 0.107540 183.000000 0.291694 216.000000 -0.026835 232.000000 0.016143 21.000000 -1.001457 135.000000 0.149183 143.000000 0.068478
193221.000000 1.572269 251.000000 225.000000 128.000000 0.127128 148.000000 0.255139 180.000000 0.060922 201.000000 0.023602 20.000000 -1.067055 134.000000 0.191141 180.000000 0.060922
193719.000000 1.531663 273.000000 255.000000 151.000000 0.057634 188.000000 0.325596 200.000000 0.216551 232.000000 -0.033669 23.000000 -0.924672 115.000000 0.149106 123.000000 0.095391
194237.000000 1.600532 263.000000 259.000000 169.000000 0.112789 190.000000 0.314466 203.000000 0.179420 239.000000 -0.065691 20.000000 -1.112099 126.000000 0.187915 134.000000 0.093621
194496.000000 1.585390 259.000000 260.000000 172.000000 0.110989 192.000000 0.338717 222.000000 0.007132 242.000000 -0.066567 24.000000 -0.811635 119.000000 0.130142 126.000000 0.084374
194756.000000 1.552789 260.000000 263.000000 159.000000 0.114810 193.000000 0.316049 230.000000 0.000501 251.000000 0.078134 20.000000 -1.095127 126.000000 0.156346 159.000000 0.114810
197150.000000 1.593544 269.000000 273.000000 182.000000 0.062902 204.000000 0.326506 216.000000 0.222226 253.000000 -0.051789 19.000000 -1.101346 108.000000 0.122916 124.000000 0.032775
201995.000000 1.540693 279.000000 279.000000 190.000000 0.050236 210.000000 0.281207 227.000000 0.164403 257.000000 -0.025175 4.000000 0.474125 111.000000 0.146255 151.000000 0.079894
203401.000000 1.553074 285.000000 285.000000 184.000000 0.096614 232.000000 0.265595 251.000000 0.001176 268.000000 -0.097899 23.000000 -0.944214 169.000000 0.131676 184.000000 0.096614
207611.000000 1.586712 275.000000 279.000000 184.000000 0.079450 210.000000 0.293245 224.000000 0.233857 257.000000 -0.010158 23.000000 -0.868100 162.000000 0.123166 185.000000 0.082788
209552.000000 1.730252 555.000000 279.000000 175.000000 0.063451 205.000000 0.241209 220.000000 0.074468 260.000000 -0.018258 22.000000 -1.093262 166.000000 0.125661 186.000000 0.054548
210383.000000 1.706413 552.000000 278.000000 186.000000 0.081112 208.000000 0.286191 219.000000 0.121723 258.000000 0.024607 19.000000 -1.111033 163.000000 0.145439 186.000000 0.081112
212567.000000 1.662114 268.000000 266.000000 145.000000 0.082085 194.000000 0.284122 212.000000 0.136583 241.000000 0.013917 24.000000 -0.813074 130.000000 0.133855 147.000000 0.071035
214744.000000 1.621739 275.000000 280.000000 181.000000 0.076424 211.000000 0.302772 252.000000 0.007429 259.000000 0.003809 26.000000 -0.611632 111.000000 0.125423 127.000000 0.065344
215586.000000 1.678857 283.000000 277.000000 190.000000 0.063228 212.000000 0.291080 221.000000 0.082194 258.000000 -0.025970 22.000000 -1.060190 111.000000 0.155393 144.000000 0.073763
218860.000000 1.581802 266.000000 277.000000 185.000000 0.080564 210.000000 0.279811 221.000000 0.126677 256.000000 0.014593 20.000000 -1.053651 164.000000 0.148385 185.000000 0.080564
219137.000000 1.582068 277.000000 275.000000 185.000000 0.100282 209.000000 0.245674 217.000000 0.072052 251.000000 0.008825 18.000000 -1.105048 163.000000 0.175548 170.000000 0.091866
221065.000000 1.584295 282.000000 266.000000 174.000000 0.089184 198.000000 0.355736 231.000000 0.003419 240.000000 0.015160 18.000000 -0.990279 133.000000 0.114624 149.000000 0.061379
221331.000000 1.542511 266.000000 280.000000 185.000000 0.077898 212.000000 0.333526 219.000000 0.161348 258.000000 -0.020295 25.000000 -0.789368 162.000000 0.125217 185.000000 0.077898
222426.000000 1.496663 268.000000 273.000000 181.000000 0.082870 203.000000 0.323968 212.000000 0.198042 254.000000 -0.066015 22.000000 -0.877584 162.000000 0.146255 171.000000 0.098764
223793.000000 1.497964 271.000000 275.000000 182.000000 0.072212 206.000000 0.340394 222.000000 0.266710 252.000000 -0.037301 23.000000 -0.798868 164.000000 0.121678 185.000000 0.082119
225166.000000 1.548697 270.000000 276.000000 177.000000 0.073792 207.000000 0.339029 222.000000 0.248010 254.000000 -0.009826 22.000000 -0.928638 162.000000 0.127991 179.000000 0.078383
226272.000000 1.605262 270.000000 192.000000 70.000000 -0.196961 122.000000 0.079449 140.000000 -0.006115 172.000000 0.061976 23.000000 -0.796352 91.000000 0.242648 117.000000 0.038352
227053.000000 1.617633 589.000000 272.000000 187.000000 0.063951 220.000000 0.220987 241.000000 0.018401 248.000000 -0.026693 24.000000 -0.913198 108.000000 0.101241 121.000000 0.079860
227866.000000 1.609107 272.000000 260.000000 177.000000 0.110502 211.000000 0.263935 221.000000 0.056537 238.000000 0.014893 19.000000 -0.978403 124.000000 0.130753 134.000000 0.064278
229495.000000 1.630517 276.000000 276.000000 180.000000 0.077697 205.000000 0.319123 219.000000 0.233888 252.000000 -0.008760 22.000000 -0.958276 108.000000 0.138685 134.000000 0.034672
233625.000000 1.652658 263.000000 281.000000 181.000000 0.077916 212.000000 0.359340 250.000000 0.021518 260.000000 0.013995 23.000000 -0.821684 116.000000 0.134420 140.000000 0.036708
234753.000000 1.383699 287.000000 197.000000 69.000000 -0.097085 125.000000 0.159967 134.000000 0.062461 178.000000 0.012212 24.000000 -0.775643 92.000000 0.306081 110.000000 0.119654
234950.000000 1.566097 197.000000 307.000000 212.000000 0.080126 233.000000 0.398981 244.000000 0.284687 285.000000 -0.056582 17.000000 -0.875972 168.000000 0.116254 180.000000 0.016739
235257.000000 1.358056 307.000000 279.000000 186.000000 0.020156 223.000000 0.415406 251.000000 0.089685 258.000000 0.105327 24.000000 -1.027714 133.000000 0.236128 147.000000 -0.005878
242075.000000 1.443309 297.000000 309.000000 203.000000 0.016035 236.000000 0.243371 246.000000 0.058904 288.000000 -0.007932 21.000000 -0.753666 120.000000 0.158339 137.000000 0.024484
242384.000000 1.508040 309.000000 302.000000 204.000000 0.035234 227.000000 0.264107 259.000000 -0.067853 288.000000 -0.086286 23.000000 -0.413040 143.000000 0.108949 151.000000 -0.085345
242686.000000 1.487991 302.000000 310.000000 212.000000 0.045815 237.000000 0.252430 256.000000 0.175691 291.000000 -0.039873 12.000000 -0.715396 119.000000 0.151145 133.000000 0.073575
242996.000000 1.516271 310.000000 317.000000 219.000000 0.108638 244.000000 0.295252 254.000000 0.078215 302.000000 -0.089592 6.000000 -0.204812 123.000000 0.145409 168.000000 0.035016
243313.000000 1.492664 317.000000 306.000000 217.000000 0.084577 252.000000 0.276693 274.000000 0.094985 281.000000 0.041537 17.000000 -0.961317 118.000000 0.150833 132.000000 0.034156
245173.000000 1.515625 309.000000 300.000000 212.000000 0.076255 248.000000 0.322962 270.000000 -0.042855 278.000000 0.050170 22.000000 -0.812714 178.000000 0.163996 189.000000 0.084922
245473.000000 1.483649 300.000000 312.000000 214.000000 0.054154 231.000000 0.245079 249.000000 0.123511 290.000000 -0.007789 23.000000 -0.975346 118.000000 0.169075 129.000000 0.051443
245785.000000 1.477070 312.000000 307.000000 211.000000 0.030817 253.000000 0.342665 277.000000 0.073479 282.000000 -0.034829 24.000000 -0.796724 166.000000 0.165675 188.000000 0.026757
248481.000000 1.490374 293.000000 304.000000 214.000000 0.109703 234.000000 0.358887 241.000000 0.195972 283.000000 -0.011695 23.000000 -0.873748 132.000000 0.175127 149.000000 -0.000908
249097.000000 1.538983 312.000000 312.000000 201.000000 0.017508 238.000000 0.334029 266.000000 0.010519 289.000000 -0.033417 21.000000 -0.988133 128.000000 0.141788 146.000000 0.027648
249721.000000 1.542162 312.000000 323.000000 219.000000 0.039436 248.000000 0.304844 271.000000 0.055940 300.000000 -0.019795 13.000000 -0.988653 132.000000 0.152148 150.000000 0.027601
250998.000000 1.570235 320.000000 318.000000 217.000000 0.050066 247.000000 0.332555 259.000000 0.155534 299.000000 -0.041631 6.000000 -0.139389 135.000000 0.166254 150.000000 0.025627
251946.000000 1.546519 317.000000 308.000000 200.000000 -0.013041 233.000000 0.333870 269.000000 -0.068653 285.000000 0.042994 24.000000 -0.855047 118.000000 0.205425 152.000000 -0.049325
253169.000000 1.384502 295.000000 201.000000 76.000000 -0.222725 131.000000 0.166269 148.000000 0.071424 183.000000 0.079717 23.000000 -1.008756 111.000000 0.191082 129.000000 0.125235
253370.000000 1.710328 201.000000 347.000000 249.000000 -0.009059 277.000000 0.328261 287.000000 0.174908 320.000000 -0.032851 16.000000 -0.967431 37.000000 0.124479 82.000000 -0.223954
254020.000000 1.508421 303.000000 310.000000 212.000000 0.040581 238.000000 0.341725 274.000000 0.013355 286.000000 -0.003026 24.000000 -0.636735 143.000000 0.113733 158.000000 0.019140
254954.000000 1.514030 309.000000 323.000000 218.000000 0.074058 245.000000 0.268041 260.000000 0.113278 302.000000 -0.001049 23.000000 -0.804495 136.000000 0.092917 158.000000 0.041819
256549.000000 1.454748 316.000000 318.000000 223.000000 0.075643 266.000000 0.193681 283.000000 0.005076 291.000000 0.028996 23.000000 -0.841177 125.000000 0.109499 163.000000 -0.001396
257184.000000 1.378669 317.000000 308.000000 199.000000 0.093231 232.000000 0.265173 244.000000 0.129484 289.000000 -0.034813 21.000000 -0.797226 173.000000 0.111536 181.000000 0.045737
258118.000000 1.428995 312.000000 313.000000 208.000000 0.055285 237.000000 0.277809 250.000000 0.133687 291.000000 0.051130 22.000000 -0.728184 117.000000 0.101960 133.000000 0.035911
259366.000000 1.351625 308.000000 317.000000 223.000000 0.079388 248.000000 0.297773 278.000000 -0.006444 293.000000 0.015139 23.000000 -0.690804 189.000000 0.111506 223.000000 0.079388
260899.000000 1.332472 300.000000 223.000000 112.000000 0.022037 134.000000 0.191410 159.000000 0.052556 200.000000 0.078339 23.000000 -0.653357 129.000000 0.183918 159.000000 0.052556
261481.000000 1.272758 359.000000 300.000000 198.000000 0.013402 224.000000 0.261113 239.000000 0.136599 272.000000 0.042589 21.000000 -0.887963 126.000000 0.129485 148.000000 -0.065248
359278.000000 1.885564 179.000000 388.000000 291.000000 0.189546 319.000000 0.388964 329.000000 0.329748 360.000000 0.097162 20.000000 -0.221880 38.000000 0.198480 83.000000 -0.618651
389821.000000 1.500185 284.000000 286.000000 184.000000 0.168339 223.000000 0.355970 229.000000 0.270014 265.000000 0.098433 24.000000 -0.737730 166.000000 0.162259 184.000000 0.168339
422265.000000 1.298167 285.000000 242.000000 49.000000 -0.059626 156.000000 0.252741 201.000000 0.050530 217.000000 0.094840 18.000000 -0.769357 130.000000 0.141283 155.000000 0.229559
430422.000000 1.541004 276.000000 230.000000 45.000000 -0.046348 141.000000 0.258197 169.000000 0.132476 211.000000 0.086396 22.000000 -0.843073 135.000000 0.242399 139.000000 0.236176
445793.000000 1.506567 271.000000 296.000000 198.000000 0.126944 223.000000 0.389781 235.000000 0.388811 270.000000 0.038434 24.000000 -0.889924 175.000000 0.138480 182.000000 0.104045
531798.000000 1.987271 182.000000 410.000000 300.000000 0.065565 339.000000 0.325927 353.000000 0.320787 388.000000 0.005032 21.000000 -0.115879 203.000000 0.120674 204.000000 0.110344
627591.000000 2.126459 176.000000 257.000000 159.000000 0.176333 183.000000 0.395064 186.000000 0.319312 235.000000 -0.157380 18.000000 -1.321223 112.000000 0.216005 135.000000 0.145079
649429.000000 2.184137 202.000000 315.000000 215.000000 0.113811 246.000000 0.426789 278.000000 0.057981 298.000000 0.003452 24.000000 -0.899031 42.000000 0.135452 55.000000 0.111753
