46.000000 1.992097 46.000000 163.000000 64.000000 -0.255860 142.000000 0.044734 131.000000 -0.064027 138.000000 -0.016285 15.000000 -0.191789 89.000000 0.031421 128.000000 -0.100453
209.000000 1.928608 163.000000 275.000000 120.000000 -0.176160 226.000000 0.161726 248.000000 -0.072147 259.000000 -0.084970 14.000000 1.118217 20.000000 0.512245 67.000000 -0.815859
1378.000000 1.721890 196.000000 202.000000 134.000000 -0.148807 181.000000 0.319455 162.000000 -0.001503 169.000000 0.037479 14.000000 1.084415 20.000000 0.753053 75.000000 -0.941208
3201.000000 1.643808 270.000000 213.000000 146.000000 -0.142339 192.000000 0.223618 175.000000 0.078304 182.000000 0.063898 18.000000 -0.142070 89.000000 0.188523 120.000000 -0.175144
3886.000000 1.736799 472.000000 213.000000 144.000000 -0.092149 192.000000 0.576093 189.000000 0.395545 196.000000 0.861172 13.000000 -0.127731 87.000000 0.201675 114.000000 -0.144312
4565.000000 1.614563 299.000000 202.000000 134.000000 -0.078714 181.000000 0.721805 181.000000 0.721805 188.000000 1.253983 12.000000 -0.116580 81.000000 0.190532 110.000000 -0.119969
5899.000000 1.749778 330.000000 207.000000 123.000000 -0.161003 186.000000 0.374136 160.000000 -0.053495 167.000000 -0.012367 11.000000 -0.103060 96.000000 0.131049 100.000000 0.060281
6579.000000 1.775911 273.000000 197.000000 128.000000 -0.178103 155.000000 0.123826 173.000000 -0.153839 179.000000 -0.185109 11.000000 0.022636 82.000000 0.352070 114.000000 -0.247194
6776.000000 2.396160 197.000000 167.000000 118.000000 -0.049829 144.000000 0.103054 130.000000 -0.286461 137.000000 -0.071460 16.000000 -0.281316 95.000000 0.076269 118.000000 -0.049829
7750.000000 1.508994 202.000000 201.000000 122.000000 -0.168747 154.000000 0.018104 171.000000 -0.155738 186.000000 -0.284627 13.000000 -0.196899 87.000000 0.142492 126.000000 -0.183387
7951.000000 1.487663 201.000000 196.000000 128.000000 -0.109782 145.000000 -0.003136 162.000000 -0.168638 181.000000 -0.114939 15.000000 -0.277494 90.000000 0.234201 112.000000 -0.076208
8147.000000 1.915798 196.000000 384.000000 312.000000 -0.001143 332.000000 0.155785 344.000000 0.029986 369.000000 0.103969 16.000000 -0.212462 170.000000 1.776365 241.000000 -0.948184
9087.000000 1.966346 164.000000 208.000000 136.000000 -0.106847 165.000000 0.255188 175.000000 0.139670 191.000000 0.063745 18.000000 0.650814 20.000000 0.443290 71.000000 -0.992774
9472.000000 1.474659 177.000000 178.000000 102.000000 -0.157697 129.000000 0.075424 151.000000 -0.139436 157.000000 -0.122211 13.000000 -0.200483 81.000000 0.099293 104.000000 -0.137963
9824.000000 2.005815 174.000000 210.000000 56.000000 -0.808199 166.000000 0.155784 178.000000 0.022303 195.000000 0.021143 20.000000 0.741175 20.000000 0.741175 76.000000 -0.960425
11155.000000 1.947651 181.000000 169.000000 121.000000 -0.039292 148.000000 0.182319 139.000000 0.112493 146.000000 0.127445 16.000000 -0.245829 89.000000 0.113670 107.000000 -0.050155
11324.000000 1.532303 169.000000 203.000000 136.000000 -0.115736 155.000000 0.122256 177.000000 -0.103575 187.000000 -0.098938 14.000000 1.056864 20.000000 0.836723 74.000000 -0.741004
11888.000000 1.973245 190.000000 386.000000 321.000000 -0.056942 347.000000 0.257351 365.000000 0.083401 369.000000 0.090674 18.000000 -0.258434 167.000000 1.616349 209.000000 -0.543604
12894.000000 1.748811 213.000000 206.000000 140.000000 -0.106724 162.000000 0.088887 179.000000 -0.058871 193.000000 -0.106583 17.000000 -0.163134 89.000000 0.123589 105.000000 -0.170518
13486.000000 1.687462 191.000000 185.000000 119.000000 -0.144593 140.000000 0.060754 145.000000 0.024046 169.000000 -0.133337 13.000000 -0.045799 81.000000 0.263935 108.000000 -0.105472
14046.000000 1.573840 195.000000 203.000000 133.000000 -0.088509 151.000000 0.087070 170.000000 -0.061207 187.000000 -0.105470 16.000000 -0.189513 90.000000 0.178011 118.000000 -0.102930
14449.000000 1.841016 200.000000 174.000000 117.000000 -0.062711 153.000000 0.206879 144.000000 0.063697 151.000000 0.175124 15.000000 -0.203198 90.000000 0.142287 117.000000 -0.062711
14845.000000 1.675005 222.000000 191.000000 117.000000 -0.073901 144.000000 0.078451 160.000000 -0.123433 176.000000 -0.153324 13.000000 -0.085262 83.000000 0.299911 117.000000 -0.073901
15036.000000 1.560468 191.000000 199.000000 142.000000 -0.053839 178.000000 0.827665 175.000000 0.633135 182.000000 1.126021 15.000000 -0.195394 85.000000 0.078229 142.000000 -0.053839
15628.000000 1.419077 196.000000 204.000000 136.000000 -0.083479 183.000000 0.191240 178.000000 -0.042019 185.000000 0.225425 13.000000 -0.173870 86.000000 0.141740 117.000000 -0.112839
16033.000000 1.686070 201.000000 208.000000 136.000000 -0.103478 161.000000 0.133965 186.000000 -0.084953 192.000000 -0.131506 14.000000 -0.153335 83.000000 0.226837 121.000000 -0.094042
16241.000000 1.615108 208.000000 437.000000 312.000000 -0.111739 380.000000 0.205221 409.000000 -0.003587 415.000000 -0.106894 12.000000 -0.153481 181.000000 1.388447 254.000000 -0.712914
18110.000000 1.493308 193.000000 196.000000 108.000000 -0.095943 147.000000 0.101818 174.000000 -0.122540 180.000000 -0.119280 14.000000 -0.195893 77.000000 0.141458 114.000000 -0.142478
18306.000000 1.847632 196.000000 214.000000 149.000000 -0.131054 174.000000 0.121189 194.000000 -0.101805 196.000000 -0.152416 16.000000 -0.173652 91.000000 0.123730 115.000000 -0.080739
19538.000000 1.507084 204.000000 189.000000 109.000000 -0.200972 168.000000 0.638591 172.000000 1.008904 179.000000 1.674201 12.000000 -0.225454 88.000000 0.062539 113.000000 -0.111129
19919.000000 1.872713 192.000000 186.000000 112.000000 -0.162116 139.000000 0.049466 156.000000 -0.119108 172.000000 -0.126175 14.000000 -0.014246 74.000000 0.260563 76.000000 0.194623
20105.000000 1.568668 186.000000 186.000000 120.000000 -0.124872 145.000000 0.103029 162.000000 -0.095307 167.000000 -0.097015 14.000000 -0.126598 80.000000 0.140660 106.000000 -0.146581
20291.000000 2.311324 186.000000 164.000000 106.000000 -0.092555 143.000000 0.095141 134.000000 -0.007618 141.000000 0.050408 15.000000 -0.295245 91.000000 -0.025094 106.000000 -0.092555
20721.000000 1.594075 266.000000 211.000000 136.000000 -0.096819 160.000000 0.098132 177.000000 -0.085568 194.000000 -0.140663 12.000000 -0.150079 93.000000 0.215707 123.000000 -0.113041
20932.000000 2.036609 211.000000 174.000000 126.000000 -0.130094 153.000000 0.129074 139.000000 -0.048355 146.000000 0.014465 16.000000 -0.216806 86.000000 0.009514 111.000000 -0.063793
21359.000000 1.625740 253.000000 201.000000 133.000000 -0.091617 158.000000 0.086531 177.000000 -0.118297 183.000000 -0.115991 15.000000 -0.060326 86.000000 0.282617 133.000000 -0.091617
21560.000000 1.361424 201.000000 389.000000 286.000000 -0.139546 341.000000 0.197319 357.000000 0.077962 371.000000 0.033449 16.000000 -0.253435 171.000000 1.564875 240.000000 -0.762712
22148.000000 1.440471 199.000000 192.000000 116.000000 -0.126753 149.000000 0.102181 164.000000 -0.071769 170.000000 -0.115985 17.000000 -0.146552 83.000000 0.235035 116.000000 -0.126753
22738.000000 1.605974 243.000000 206.000000 129.000000 -0.109405 163.000000 0.076098 185.000000 -0.126422 189.000000 -0.122895 12.000000 -0.145907 87.000000 0.258370 129.000000 -0.109405
22944.000000 1.501273 206.000000 439.000000 305.000000 -0.177666 390.000000 0.220957 402.000000 0.067650 425.000000 -0.010534 15.000000 -0.172254 186.000000 1.476144 259.000000 -0.758765
23383.000000 1.549828 439.000000 208.000000 135.000000 -0.154385 164.000000 0.128983 188.000000 -0.157820 194.000000 -0.133622 13.000000 -0.109766 89.000000 0.271430 123.000000 -0.125042
23786.000000 1.635111 195.000000 216.000000 128.000000 -0.174840 172.000000 0.194878 184.000000 0.066680 210.000000 0.371758 13.000000 1.156883 20.000000 0.654783 39.000000 -0.494340
24002.000000 1.660473 216.000000 203.000000 138.000000 -0.107242 160.000000 0.073133 176.000000 -0.117996 188.000000 -0.147918 9.000000 0.021069 82.000000 0.291019 115.000000 -0.134781
24205.000000 1.490468 203.000000 207.000000 136.000000 -0.068292 186.000000 0.934703 188.000000 1.107242 195.000000 1.516882 14.000000 -0.164861 76.000000 0.129026 110.000000 -0.172399
24855.000000 1.549528 287.000000 381.000000 323.000000 -0.138682 360.000000 0.158214 360.000000 0.158214 367.000000 0.675958 13.000000 -0.119799 214.000000 1.862083 238.000000 -0.541381
25513.000000 1.594203 277.000000 203.000000 132.000000 -0.114313 155.000000 0.046630 168.000000 -0.073370 185.000000 -0.138651 15.000000 -0.103726 89.000000 0.210361 118.000000 -0.126945
25716.000000 2.057541 203.000000 405.000000 315.000000 -0.061517 360.000000 0.229091 383.000000 -0.018839 388.000000 -0.017977 15.000000 -0.262066 160.000000 1.767570 229.000000 -0.773698
26121.000000 1.554530 405.000000 200.000000 130.000000 -0.109262 153.000000 0.061222 174.000000 -0.126741 188.000000 -0.105661 13.000000 -0.084247 87.000000 0.280361 115.000000 -0.120908
26321.000000 1.397866 200.000000 403.000000 301.000000 -0.160292 356.000000 0.162180 373.000000 0.007694 387.000000 -0.000817 12.000000 -0.171758 185.000000 1.491128 247.000000 -0.702631
26916.000000 1.443916 192.000000 481.000000 401.000000 0.036256 425.000000 0.137964 438.000000 0.069814 462.000000 -0.040390 13.000000 -0.128811 204.000000 1.446193 276.000000 -0.669305
27397.000000 1.482558 481.000000 236.000000 144.000000 -0.126212 178.000000 -0.003547 193.000000 -0.082120 219.000000 -0.141946 18.000000 -0.088632 94.000000 0.317432 130.000000 -0.147623
28314.000000 1.499388 296.000000 195.000000 144.000000 -0.041289 174.000000 0.224010 160.000000 -0.019251 167.000000 0.061033 14.000000 -0.067868 89.000000 0.196127 121.000000 -0.134297
28963.000000 1.624325 454.000000 384.000000 260.000000 -0.704609 363.000000 0.332678 353.000000 0.058870 360.000000 0.281895 12.000000 -0.071554 209.000000 2.051175 229.000000 -0.476036
29780.000000 1.587195 201.000000 205.000000 115.000000 -0.170836 160.000000 0.062568 172.000000 -0.102950 189.000000 -0.106979 16.000000 -0.156412 88.000000 0.224182 119.000000 -0.147686
30190.000000 1.589485 205.000000 210.000000 141.000000 -0.129246 164.000000 0.043434 177.000000 -0.123730 195.000000 -0.126535 13.000000 -0.119856 81.000000 0.254750 112.000000 -0.145280
32317.000000 1.675751 238.000000 199.000000 132.000000 -0.101992 149.000000 0.054465 169.000000 -0.140819 185.000000 -0.127368 13.000000 -0.073545 82.000000 0.306034 120.000000 -0.136850
32516.000000 1.511911 199.000000 205.000000 139.000000 -0.129685 184.000000 0.568824 180.000000 0.228826 187.000000 0.758684 15.000000 -0.153103 82.000000 0.164642 112.000000 -0.158539
33130.000000 1.478764 203.000000 187.000000 114.000000 -0.153531 140.000000 0.050941 156.000000 -0.122789 172.000000 -0.112381 13.000000 -0.142931 80.000000 0.221864 104.000000 -0.170692
33317.000000 1.671649 187.000000 205.000000 141.000000 -0.136048 157.000000 0.029749 176.000000 -0.128510 191.000000 -0.133948 13.000000 -0.110106 78.000000 0.264314 114.000000 -0.134293
33522.000000 1.631334 205.000000 216.000000 142.000000 -0.113697 163.000000 0.066803 185.000000 -0.120112 202.000000 -0.119421 13.000000 -0.132569 83.000000 0.240301 111.000000 -0.133209
34405.000000 1.560252 277.000000 207.000000 123.000000 -0.102083 161.000000 0.072278 184.000000 -0.106514 185.000000 -0.101703 13.000000 -0.113949 88.000000 0.240173 123.000000 -0.102083
35021.000000 1.577179 247.000000 201.000000 134.000000 -0.116583 157.000000 0.062761 170.000000 -0.098822 185.000000 -0.138789 17.000000 -0.156707 84.000000 0.270957 118.000000 -0.127177
35632.000000 1.607977 246.000000 209.000000 140.000000 -0.119044 163.000000 0.061676 185.000000 -0.156382 191.000000 -0.187746 14.000000 -0.093903 91.000000 0.287213 128.000000 -0.107381
35841.000000 1.626362 209.000000 183.000000 132.000000 -0.070157 156.000000 0.251990 159.000000 0.086269 162.000000 0.212774 14.000000 -0.145143 85.000000 0.225799 114.000000 -0.162837
36024.000000 1.615974 183.000000 223.000000 146.000000 -0.171535 180.000000 0.429342 186.000000 0.081364 210.000000 0.040535 13.000000 1.462729 20.000000 1.394891 45.000000 -0.461268
36247.000000 1.748481 223.000000 403.000000 246.000000 -0.222538 285.000000 0.181806 311.000000 -0.160893 380.000000 -0.102087 15.000000 -0.088258 204.000000 1.534530 223.000000 -0.201960
37044.000000 1.606599 228.000000 195.000000 123.000000 -0.150925 149.000000 0.044027 167.000000 -0.135612 181.000000 -0.134875 15.000000 -0.092303 89.000000 0.319452 124.000000 -0.136269
37239.000000 1.519341 195.000000 191.000000 110.000000 -0.172480 141.000000 0.025249 161.000000 -0.151052 176.000000 -0.125330 13.000000 -0.160551 68.000000 0.180012 111.000000 -0.168326
37430.000000 1.641741 191.000000 182.000000 113.000000 -0.165473 141.000000 0.067347 153.000000 -0.093202 166.000000 -0.083045 13.000000 -0.126379 79.000000 0.254217 117.000000 -0.105113
37810.000000 1.708719 198.000000 230.000000 148.000000 -0.155797 209.000000 0.094214 208.000000 0.058995 215.000000 0.534747 11.000000 -0.203068 80.000000 0.180879 113.000000 -0.207318
38534.000000 1.638790 327.000000 190.000000 136.000000 -0.066522 169.000000 0.161157 158.000000 0.009762 165.000000 0.118774 14.000000 -0.093971 87.000000 0.254919 115.000000 -0.096209
39186.000000 1.553701 290.000000 196.000000 133.000000 -0.126819 175.000000 0.147989 169.000000 -0.121336 176.000000 0.187895 14.000000 -0.114984 84.000000 0.225484 144.000000 0.002522
39790.000000 1.663365 237.000000 217.000000 137.000000 -0.132898 168.000000 0.055736 190.000000 -0.156270 209.000000 -0.002133 16.000000 -0.122499 80.000000 0.280782 119.000000 -0.146880
40007.000000 1.856800 217.000000 183.000000 131.000000 -0.095988 162.000000 0.291820 153.000000 -0.030562 160.000000 0.175676 14.000000 -0.168278 84.000000 0.132302 131.000000 -0.095988
41593.000000 1.606785 172.000000 311.000000 253.000000 -0.077401 274.000000 0.083446 291.000000 -0.075284 295.000000 -0.113637 20.000000 0.637837 20.000000 0.637837 57.000000 -0.514875
41904.000000 1.635015 311.000000 191.000000 136.000000 -0.067664 170.000000 0.141521 158.000000 0.103511 165.000000 0.112022 15.000000 -0.133150 83.000000 0.215049 113.000000 -0.105687
42569.000000 1.664001 284.000000 217.000000 139.000000 -0.113416 196.000000 0.357260 194.000000 0.217793 201.000000 0.688374 12.000000 -0.092159 84.000000 0.243591 120.000000 -0.143119
43245.000000 1.710191 302.000000 204.000000 139.000000 -0.082569 183.000000 0.304154 174.000000 0.069531 181.000000 0.224484 12.000000 -0.111895 86.000000 0.174014 114.000000 -0.126692
43908.000000 1.655912 281.000000 192.000000 110.000000 -0.142148 171.000000 0.500770 173.000000 0.655708 180.000000 1.165645 13.000000 -0.126971 83.000000 0.253794 110.000000 -0.142148
45226.000000 1.593640 470.000000 207.000000 139.000000 -0.091583 186.000000 0.452395 182.000000 0.182708 189.000000 0.626894 14.000000 -0.065168 85.000000 0.206962 117.000000 -0.152821
45855.000000 1.497464 250.000000 211.000000 141.000000 -0.077476 162.000000 0.101550 186.000000 -0.114282 194.000000 0.197286 16.000000 -0.050030 86.000000 0.287119 120.000000 -0.093965
47147.000000 1.596288 269.000000 202.000000 122.000000 -0.126050 156.000000 0.027601 159.000000 0.009435 184.000000 -0.133278 13.000000 -0.081064 83.000000 0.252427 125.000000 -0.106803
47769.000000 1.616428 256.000000 202.000000 139.000000 -0.119813 157.000000 0.056364 170.000000 -0.071174 183.000000 -0.127192 13.000000 -0.099764 85.000000 0.299513 120.000000 -0.125236
47971.000000 1.676334 202.000000 161.000000 120.000000 -0.114530 140.000000 0.046974 130.000000 -0.044577 137.000000 -0.023418 17.000000 -0.276001 81.000000 0.157272 124.000000 -0.071928
48373.000000 1.650450 241.000000 205.000000 117.000000 -0.126130 154.000000 0.022273 175.000000 -0.146177 190.000000 -0.121303 12.000000 -0.111322 81.000000 0.289840 117.000000 -0.126130
49020.000000 1.568839 442.000000 219.000000 147.000000 -0.126284 167.000000 0.095864 188.000000 -0.136720 204.000000 -0.140606 12.000000 -0.112807 91.000000 0.316567 136.000000 -0.111707
49239.000000 1.518529 219.000000 175.000000 112.000000 -0.161191 154.000000 -0.008383 139.000000 -0.082052 146.000000 -0.096111 15.000000 -0.202019 85.000000 0.178887 112.000000 -0.161191
49655.000000 1.707897 241.000000 209.000000 142.000000 -0.130766 161.000000 0.057478 180.000000 -0.168620 196.000000 -0.112725 13.000000 -0.111993 85.000000 0.497196 128.000000 -0.183069
49864.000000 1.660424 209.000000 458.000000 393.000000 -0.040533 409.000000 0.105829 435.000000 -0.083091 443.000000 -0.059220 13.000000 -0.151865 184.000000 1.578715 257.000000 -0.658383
50322.000000 1.619462 458.000000 199.000000 131.000000 -0.102162 172.000000 0.073305 168.000000 0.037552 175.000000 0.028321 18.000000 -0.107371 87.000000 0.272051 119.000000 -0.141473
52331.000000 1.675581 423.000000 211.000000 135.000000 -0.119859 164.000000 0.083792 185.000000 -0.108732 195.000000 0.214732 15.000000 -0.078964 83.000000 0.292806 122.000000 -0.143949
52977.000000 1.660388 292.000000 225.000000 184.000000 0.010895 204.000000 0.882571 199.000000 0.535644 206.000000 1.003448 15.000000 -0.104768 91.000000 0.220123 124.000000 -0.165768
54463.000000 1.447160 203.000000 175.000000 133.000000 -0.098807 154.000000 0.151585 157.000000 0.313795 164.000000 0.828028 13.000000 -0.189330 81.000000 0.247978 112.000000 -0.143902
54864.000000 1.695503 226.000000 219.000000 149.000000 -0.136789 171.000000 0.045125 188.000000 -0.146601 207.000000 -0.126271 13.000000 -0.080844 81.000000 0.336176 117.000000 -0.134470
55083.000000 1.497384 219.000000 487.000000 331.000000 -0.117140 378.000000 0.088451 386.000000 0.056555 473.000000 -0.095453 12.000000 -0.138557 192.000000 1.568259 232.000000 -0.514168
56932.000000 1.596630 302.000000 197.000000 103.000000 -0.095689 176.000000 0.741366 172.000000 0.488043 179.000000 0.944877 16.000000 -0.142413 78.000000 0.231363 103.000000 -0.095689
58877.000000 1.580670 268.000000 199.000000 131.000000 -0.103525 153.000000 0.048433 171.000000 -0.130251 179.000000 0.038589 14.000000 -0.095301 82.000000 0.283466 114.000000 -0.106345
59222.000000 1.806647 146.000000 282.000000 215.000000 -0.019248 233.000000 0.108308 253.000000 -0.068841 265.000000 -0.074376 12.000000 1.243685 20.000000 0.557446 47.000000 -0.510690
59504.000000 1.594106 282.000000 211.000000 132.000000 -0.123183 163.000000 0.089636 184.000000 -0.149642 189.000000 -0.160707 13.000000 -0.088591 86.000000 0.290657 123.000000 -0.135205
61619.000000 1.946101 213.000000 478.000000 411.000000 -0.032584 430.000000 0.114656 447.000000 -0.086097 466.000000 -0.069843 15.000000 -0.217473 167.000000 1.614675 240.000000 -0.686333
62097.000000 1.521129 478.000000 224.000000 153.000000 -0.146957 175.000000 0.072387 195.000000 -0.130855 210.000000 -0.152878 14.000000 -0.080516 91.000000 0.315721 130.000000 -0.122241
62321.000000 1.897998 224.000000 428.000000 361.000000 -0.010472 382.000000 0.159826 400.000000 -0.059246 412.000000 -0.055154 15.000000 -0.275951 164.000000 1.818777 218.000000 -0.598037
62749.000000 1.515191 428.000000 204.000000 135.000000 -0.132104 158.000000 0.061628 182.000000 -0.118855 186.000000 -0.140563 14.000000 -0.072300 87.000000 0.312820 122.000000 -0.123342
62953.000000 1.682276 204.000000 164.000000 103.000000 -0.089563 143.000000 0.027164 130.000000 -0.085563 137.000000 -0.099074 17.000000 -0.289480 81.000000 0.176034 109.000000 -0.110299
63364.000000 1.537212 247.000000 198.000000 120.000000 -0.113433 149.000000 0.061179 168.000000 -0.116376 183.000000 -0.139026 14.000000 -0.094982 84.000000 0.341756 120.000000 -0.113433
63562.000000 1.540285 198.000000 418.000000 321.000000 -0.211179 372.000000 0.157646 382.000000 0.026910 402.000000 0.009702 13.000000 -0.147537 193.000000 1.624968 264.000000 -0.728434
63980.000000 1.665408 418.000000 211.000000 129.000000 -0.177069 164.000000 0.056363 180.000000 -0.128419 197.000000 -0.147429 12.000000 -0.044499 85.000000 0.325501 129.000000 -0.177069
64191.000000 1.564703 211.000000 210.000000 137.000000 -0.102269 189.000000 0.184689 185.000000 0.029735 192.000000 0.429031 14.000000 -0.125563 85.000000 0.209393 167.000000 0.048325
64854.000000 1.468230 453.000000 203.000000 118.000000 -0.076330 160.000000 0.077336 169.000000 -0.095125 188.000000 -0.014907 12.000000 -0.138288 88.000000 0.297353 122.000000 -0.066455
65449.000000 1.465456 231.000000 185.000000 111.000000 -0.079185 147.000000 0.093498 159.000000 -0.067303 173.000000 -0.127869 12.000000 -0.097993 81.000000 0.294921 111.000000 -0.079185
65634.000000 1.408762 185.000000 191.000000 113.000000 -0.155627 170.000000 0.235954 170.000000 0.235954 177.000000 0.759558 11.000000 -0.124985 81.000000 0.205045 113.000000 -0.155627
66218.000000 1.398481 200.000000 200.000000 129.000000 -0.118554 146.000000 0.042214 157.000000 0.007810 184.000000 -0.186597 12.000000 -0.145219 95.000000 0.628137 114.000000 -0.078039
66792.000000 1.644011 200.000000 184.000000 117.000000 -0.099923 135.000000 0.053637 146.000000 -0.040688 168.000000 -0.141566 13.000000 -0.030048 81.000000 0.343056 111.000000 -0.095989
66976.000000 1.463073 184.000000 192.000000 113.000000 -0.136439 143.000000 0.058121 158.000000 -0.113180 177.000000 -0.136394 15.000000 -0.236518 78.000000 0.201854 113.000000 -0.136439
67168.000000 1.825315 192.000000 167.000000 113.000000 -0.052710 146.000000 0.137667 147.000000 0.187746 154.000000 0.689501 14.000000 -0.225905 84.000000 0.080489 113.000000 -0.052710
67560.000000 1.921396 225.000000 187.000000 109.000000 -0.091880 142.000000 0.063482 164.000000 -0.079277 170.000000 -0.187600 13.000000 0.025848 81.000000 0.361395 109.000000 -0.091880
67747.000000 1.527261 187.000000 184.000000 113.000000 -0.131909 139.000000 0.028464 155.000000 -0.163638 168.000000 -0.131852 14.000000 -0.191469 69.000000 0.136258 100.000000 -0.125390
67931.000000 1.545452 184.000000 202.000000 132.000000 -0.110847 155.000000 0.045297 176.000000 -0.138121 186.000000 -0.120002 15.000000 -0.132306 82.000000 0.212773 111.000000 -0.103904
68133.000000 1.504025 202.000000 209.000000 141.000000 -0.139496 162.000000 0.036710 186.000000 -0.158668 194.000000 -0.139359 17.000000 -0.124846 83.000000 0.213575 112.000000 -0.118429
68342.000000 1.550594 209.000000 214.000000 147.000000 -0.125268 169.000000 0.058762 179.000000 -0.099920 196.000000 0.001273 16.000000 -0.165001 86.000000 0.176486 122.000000 -0.156021
68979.000000 1.594923 257.000000 213.000000 141.000000 -0.146786 163.000000 0.059688 185.000000 -0.117101 196.000000 -0.164467 16.000000 -0.091393 90.000000 0.293734 126.000000 -0.101346
69617.000000 1.523306 269.000000 198.000000 133.000000 -0.149767 153.000000 0.030874 170.000000 -0.140114 181.000000 -0.198327 13.000000 -0.086616 82.000000 0.263447 134.000000 -0.155127
70230.000000 1.519873 265.000000 214.000000 139.000000 -0.150877 165.000000 0.066945 182.000000 -0.150263 198.000000 -0.168367 15.000000 -0.076868 87.000000 0.283573 127.000000 -0.142459
70882.000000 1.614463 275.000000 206.000000 122.000000 -0.135671 162.000000 0.071523 178.000000 -0.110799 179.000000 -0.116018 12.000000 -0.065835 88.000000 0.251004 117.000000 -0.128099
71510.000000 1.613075 264.000000 204.000000 47.000000 -0.125278 157.000000 0.075798 175.000000 -0.100849 182.000000 -0.128027 13.000000 -0.053885 80.000000 0.256773 170.000000 -0.051946
72126.000000 1.603595 412.000000 196.000000 122.000000 -0.112148 148.000000 0.069922 166.000000 -0.077443 182.000000 0.205033 11.000000 -0.089369 82.000000 0.256849 122.000000 -0.112148
72755.000000 1.374909 268.000000 214.000000 146.000000 -0.166017 167.000000 0.036114 194.000000 -0.209152 198.000000 -0.231033 17.000000 -0.075937 94.000000 0.298233 130.000000 -0.124309
72969.000000 1.741788 214.000000 167.000000 111.000000 -0.090080 146.000000 0.132519 145.000000 0.107895 152.000000 0.541533 16.000000 -0.274920 89.000000 0.146661 113.000000 -0.083843
73377.000000 1.180329 241.000000 3213.000000 2985.000000 -0.053865 3023.000000 0.846413 3051.000000 -0.142352 3193.000000 -0.103901 13.000000 -0.031693 1596.000000 1.283714 1665.000000 -0.633320
76590.000000 1.229028 3213.000000 204.000000 110.000000 -0.100185 157.000000 0.056068 170.000000 -0.086345 187.000000 -0.116268 17.000000 -0.136898 80.000000 0.194735 110.000000 -0.100185
77869.000000 1.510520 260.000000 205.000000 138.000000 -0.132699 158.000000 0.070734 175.000000 -0.142008 190.000000 -0.116146 16.000000 -0.095468 87.000000 0.282697 116.000000 -0.083763
78464.000000 1.691206 390.000000 182.000000 45.000000 -0.088399 137.000000 0.056239 152.000000 -0.135783 169.000000 -0.123386 15.000000 -0.076630 85.000000 0.326741 124.000000 -0.167663
78646.000000 1.481693 182.000000 194.000000 126.000000 -0.120909 149.000000 0.051879 164.000000 -0.128638 178.000000 -0.095412 13.000000 -0.159184 77.000000 0.226146 108.000000 -0.119749
79042.000000 1.543636 202.000000 220.000000 150.000000 -0.132432 173.000000 0.100470 191.000000 -0.093088 206.000000 -0.104499 14.000000 -0.140925 88.000000 0.241393 125.000000 -0.146898
79262.000000 1.522678 220.000000 210.000000 134.000000 -0.145672 189.000000 0.247160 180.000000 0.104684 187.000000 0.211627 15.000000 -0.120756 80.000000 0.126863 107.000000 -0.223354
80525.000000 1.478259 241.000000 197.000000 121.000000 -0.139154 148.000000 0.049780 161.000000 -0.053120 181.000000 -0.156864 16.000000 -0.080754 83.000000 0.303540 124.000000 -0.105173
81108.000000 1.646778 195.000000 202.000000 128.000000 -0.150831 152.000000 0.050045 179.000000 -0.120126 184.000000 -0.112134 17.000000 -0.085605 81.000000 0.314220 128.000000 -0.150831
81310.000000 1.522537 202.000000 199.000000 124.000000 -0.108136 148.000000 0.053745 170.000000 -0.137679 182.000000 -0.176362 17.000000 -0.134969 83.000000 0.221517 113.000000 -0.120314
81509.000000 1.957621 199.000000 385.000000 294.000000 -0.171395 340.000000 0.188572 362.000000 -0.012823 366.000000 -0.009767 16.000000 -0.246487 168.000000 1.562633 246.000000 -0.724953
81894.000000 1.598056 385.000000 184.000000 107.000000 -0.133258 135.000000 0.079968 156.000000 -0.212240 173.000000 -0.228731 17.000000 -0.049232 76.000000 0.308183 107.000000 -0.133258
82078.000000 1.367397 184.000000 196.000000 129.000000 -0.132931 148.000000 0.108716 159.000000 -0.045673 182.000000 -0.164811 14.000000 -0.166961 89.000000 0.189435 112.000000 -0.094859
82274.000000 1.719829 196.000000 166.000000 121.000000 -0.159921 145.000000 0.229984 145.000000 0.229984 152.000000 0.677069 14.000000 -0.222539 85.000000 0.130173 98.000000 -0.073778
82647.000000 1.701348 207.000000 182.000000 113.000000 -0.208949 132.000000 0.058575 153.000000 -0.124685 171.000000 -0.172959 13.000000 -0.010785 83.000000 0.292225 114.000000 -0.163902
82829.000000 1.363357 182.000000 176.000000 99.000000 -0.095344 130.000000 0.058279 146.000000 -0.130154 168.000000 -0.153399 11.000000 -0.065185 76.000000 0.184045 99.000000 -0.095344
83005.000000 1.762369 176.000000 395.000000 323.000000 -0.092036 344.000000 0.189279 369.000000 -0.022601 377.000000 -0.018981 10.000000 -0.157005 165.000000 1.645141 239.000000 -0.758084
83400.000000 1.581223 395.000000 206.000000 135.000000 -0.127321 159.000000 0.038118 181.000000 -0.164814 192.000000 -0.156224 15.000000 -0.044105 92.000000 0.247211 124.000000 -0.130204
83606.000000 1.481096 206.000000 198.000000 128.000000 -0.136116 150.000000 0.019182 168.000000 -0.106693 182.000000 -0.121630 15.000000 -0.153372 81.000000 0.151330 114.000000 -0.129015
83804.000000 1.546882 198.000000 198.000000 122.000000 -0.128352 157.000000 0.072322 188.000000 -0.200265 192.000000 0.082446 15.000000 -0.145813 85.000000 0.219409 122.000000 -0.128352
84002.000000 1.615738 198.000000 192.000000 108.000000 -0.119103 144.000000 0.038936 160.000000 -0.121691 178.000000 -0.140266 8.000000 -0.070249 72.000000 0.221415 114.000000 -0.127553
84194.000000 1.511646 192.000000 202.000000 129.000000 -0.154718 157.000000 0.019420 173.000000 -0.125643 185.000000 -0.126270 14.000000 -0.080516 78.000000 0.195644 115.000000 -0.134906
84814.000000 1.526755 257.000000 198.000000 128.000000 -0.160327 149.000000 0.052681 171.000000 -0.131771 186.000000 -0.216852 15.000000 -0.105924 84.000000 0.285221 132.000000 -0.105924
85012.000000 1.682537 198.000000 158.000000 109.000000 -0.113887 137.000000 0.124387 122.000000 -0.084155 129.000000 -0.071820 13.000000 -0.230364 77.000000 0.169121 99.000000 -0.129529
85401.000000 1.629329 231.000000 204.000000 138.000000 -0.146271 161.000000 0.021270 177.000000 -0.184326 191.000000 -0.149153 14.000000 -0.050137 88.000000 0.321128 126.000000 -0.137369
85810.000000 1.569059 205.000000 207.000000 119.000000 -0.143593 155.000000 0.034481 179.000000 -0.131586 190.000000 -0.103436 13.000000 -0.135221 83.000000 0.231001 119.000000 -0.143593
86225.000000 1.504123 208.000000 212.000000 140.000000 -0.138961 166.000000 0.061541 184.000000 -0.089618 191.000000 -0.128490 14.000000 -0.110530 81.000000 0.203153 112.000000 -0.152439
86884.000000 1.484762 290.000000 200.000000 138.000000 -0.087475 179.000000 0.696913 177.000000 0.538072 184.000000 1.135674 13.000000 -0.099502 83.000000 0.246521 115.000000 -0.106644
87694.000000 1.830440 205.000000 173.000000 131.000000 -0.086284 152.000000 0.164313 132.000000 -0.090750 139.000000 -0.116863 15.000000 -0.226850 89.000000 0.090344 111.000000 -0.093448
88107.000000 1.573216 240.000000 202.000000 131.000000 -0.139484 155.000000 0.022821 175.000000 -0.152289 186.000000 -0.125659 15.000000 -0.082096 88.000000 0.302414 131.000000 -0.139484
88714.000000 1.632482 211.000000 215.000000 145.000000 -0.175890 167.000000 0.038482 184.000000 -0.120704 199.000000 -0.156207 19.000000 -0.133789 82.000000 0.321353 129.000000 -0.121016
88929.000000 1.546722 215.000000 437.000000 327.000000 -0.187916 390.000000 0.156914 418.000000 -0.006674 422.000000 -0.038414 14.000000 -0.131992 200.000000 1.549602 242.000000 -0.497669
89366.000000 1.591727 437.000000 201.000000 107.000000 -0.153791 156.000000 0.036849 175.000000 -0.130407 177.000000 -0.172366 14.000000 -0.082302 72.000000 0.273637 107.000000 -0.153791
89996.000000 1.561301 276.000000 216.000000 131.000000 -0.132601 168.000000 0.085174 181.000000 -0.103586 190.000000 -0.158695 6.000000 0.131395 91.000000 0.256803 131.000000 -0.132601
90631.000000 1.581957 255.000000 203.000000 134.000000 -0.144088 157.000000 0.008560 163.000000 -0.015028 187.000000 -0.141614 14.000000 -0.088231 86.000000 0.283498 118.000000 -0.166831
90834.000000 1.464311 203.000000 171.000000 109.000000 -0.134559 150.000000 0.109264 153.000000 0.273966 160.000000 0.753889 10.000000 -0.197694 80.000000 0.198435 112.000000 -0.138274
91224.000000 1.678901 219.000000 202.000000 117.000000 -0.117116 153.000000 0.034501 180.000000 -0.139683 183.000000 -0.119824 16.000000 -0.087008 80.000000 0.341895 120.000000 -0.149106
91426.000000 1.422823 202.000000 204.000000 141.000000 -0.148854 161.000000 0.029705 184.000000 -0.133384 189.000000 -0.128980 17.000000 -0.138431 83.000000 0.233311 113.000000 -0.128241
91630.000000 1.535737 204.000000 214.000000 151.000000 -0.173305 167.000000 0.021286 184.000000 -0.112898 198.000000 -0.119011 14.000000 -0.124998 82.000000 0.261415 112.000000 -0.121013
91844.000000 1.631082 214.000000 210.000000 142.000000 -0.173713 168.000000 0.017553 178.000000 -0.143574 196.000000 -0.147823 17.000000 -0.152837 85.000000 0.247072 114.000000 -0.130060
92054.000000 1.595326 210.000000 397.000000 352.000000 -0.138011 376.000000 0.270343 375.000000 0.209841 382.000000 0.711896 14.000000 -0.094063 222.000000 1.992825 242.000000 -0.440012
92723.000000 1.475644 272.000000 211.000000 146.000000 -0.132647 190.000000 0.443871 189.000000 0.364796 196.000000 0.943041 13.000000 -0.086785 88.000000 0.231884 119.000000 -0.133117
93348.000000 1.616005 414.000000 195.000000 129.000000 -0.118210 153.000000 0.057730 169.000000 -0.111534 180.000000 -0.173964 14.000000 -0.086659 86.000000 0.286446 118.000000 -0.123508
93543.000000 1.973668 195.000000 153.000000 109.000000 -0.090140 132.000000 0.100188 128.000000 -0.051991 135.000000 0.196582 15.000000 -0.297272 78.000000 0.090754 115.000000 -0.113636
93924.000000 1.616348 228.000000 206.000000 132.000000 -0.152944 158.000000 -0.000405 180.000000 -0.184810 193.000000 -0.158713 15.000000 -0.053842 87.000000 0.335299 132.000000 -0.152944
94130.000000 1.438842 206.000000 192.000000 116.000000 -0.192902 162.000000 0.103398 158.000000 0.084385 165.000000 0.050828 14.000000 -0.137725 89.000000 0.142852 116.000000 -0.192902
94537.000000 1.811880 215.000000 196.000000 115.000000 -0.162852 150.000000 0.036898 175.000000 -0.122429 181.000000 -0.089860 16.000000 -0.059391 79.000000 0.317538 115.000000 -0.162852
94733.000000 1.524591 196.000000 201.000000 45.000000 -0.159422 154.000000 0.051677 175.000000 -0.129137 184.000000 0.263513 18.000000 -0.164311 82.000000 0.196017 160.000000 0.027147
95950.000000 1.579876 233.000000 203.000000 122.000000 -0.133857 154.000000 0.021786 181.000000 -0.149530 186.000000 -0.149703 14.000000 -0.069952 82.000000 0.348478 138.000000 -0.167336
96153.000000 1.461221 203.000000 185.000000 114.000000 -0.138822 164.000000 0.222605 153.000000 0.017447 160.000000 0.128405 15.000000 -0.170441 83.000000 0.182538 114.000000 -0.138822
96572.000000 1.680362 234.000000 216.000000 134.000000 -0.202534 163.000000 0.052292 181.000000 -0.106015 200.000000 -0.139369 21.000000 -0.125031 89.000000 0.320693 134.000000 -0.202534
96788.000000 1.649454 216.000000 215.000000 139.000000 -0.115829 194.000000 0.446729 202.000000 1.060740 209.000000 1.749190 15.000000 -0.140029 84.000000 0.184782 120.000000 -0.148400
98748.000000 1.540390 268.000000 206.000000 133.000000 -0.138214 157.000000 0.035813 184.000000 -0.160095 189.000000 -0.162195 12.000000 -0.071321 87.000000 0.275311 126.000000 -0.161270
99560.000000 1.523779 205.000000 179.000000 134.000000 -0.120940 158.000000 0.191678 144.000000 -0.022037 151.000000 0.045220 14.000000 -0.190515 78.000000 0.185926 103.000000 -0.150500
99964.000000 1.682822 225.000000 199.000000 124.000000 -0.143843 154.000000 0.013525 167.000000 -0.113433 185.000000 -0.130064 13.000000 -0.097508 77.000000 0.320452 112.000000 -0.164909
100163.000000 1.561646 199.000000 173.000000 99.000000 -0.155720 152.000000 0.225610 158.000000 0.564403 165.000000 1.112992 15.000000 -0.249060 74.000000 0.176004 99.000000 -0.155720
100568.000000 1.656708 232.000000 219.000000 152.000000 -0.142727 168.000000 0.062852 190.000000 -0.155082 204.000000 -0.123405 15.000000 -0.095456 85.000000 0.322024 115.000000 -0.139041
100787.000000 1.496626 219.000000 461.000000 384.000000 -0.007399 412.000000 0.150249 434.000000 -0.052165 445.000000 -0.059359 15.000000 -0.069030 195.000000 1.559673 211.000000 0.934941
101248.000000 1.590562 461.000000 207.000000 143.000000 -0.150014 159.000000 0.006898 179.000000 -0.129653 186.000000 -0.190249 12.000000 -0.047165 82.000000 0.322853 121.000000 -0.196412
101870.000000 1.656443 258.000000 209.000000 140.000000 -0.142193 165.000000 0.050408 186.000000 -0.131349 192.000000 -0.193104 13.000000 -0.090456 84.000000 0.296913 122.000000 -0.119026
102688.000000 1.460467 200.000000 405.000000 312.000000 -0.172681 358.000000 0.184626 368.000000 0.012699 390.000000 -0.023555 15.000000 -0.258575 177.000000 1.713749 244.000000 -0.733716
103292.000000 1.540067 199.000000 205.000000 131.000000 -0.147236 161.000000 0.057480 179.000000 -0.125887 185.000000 -0.112878 15.000000 -0.173648 85.000000 0.238029 107.000000 -0.136250
104132.000000 1.841899 199.000000 156.000000 104.000000 -0.128668 135.000000 0.018072 138.000000 0.148072 145.000000 0.722398 14.000000 -0.270374 78.000000 0.132430 104.000000 -0.128668
104532.000000 1.548491 244.000000 208.000000 144.000000 -0.137397 164.000000 0.052273 180.000000 -0.162338 192.000000 -0.165504 11.000000 -0.099001 86.000000 0.316991 127.000000 -0.088995
104740.000000 1.426564 208.000000 198.000000 134.000000 -0.185314 177.000000 0.150171 183.000000 0.464763 190.000000 1.069512 16.000000 -0.171491 89.000000 0.107321 114.000000 -0.194968
105374.000000 1.505722 208.000000 219.000000 151.000000 -0.101394 198.000000 0.904127 201.000000 1.120772 208.000000 1.480710 14.000000 -0.193588 83.000000 0.178151 114.000000 -0.148934
106047.000000 1.498418 302.000000 198.000000 135.000000 -0.093512 166.000000 0.097855 164.000000 0.050598 171.000000 0.029014 14.000000 -0.089154 89.000000 0.216472 119.000000 -0.132619
106661.000000 1.544230 257.000000 195.000000 115.000000 -0.189795 147.000000 0.071083 157.000000 -0.027270 178.000000 -0.151862 10.000000 -0.050426 74.000000 0.299215 115.000000 -0.189795
107262.000000 1.636864 245.000000 211.000000 141.000000 -0.151816 163.000000 0.043654 178.000000 -0.152755 196.000000 -0.153148 14.000000 -0.057807 91.000000 0.306895 124.000000 -0.159452
107473.000000 1.606367 211.000000 211.000000 143.000000 -0.169904 168.000000 0.036646 179.000000 -0.133181 195.000000 -0.171287 14.000000 -0.123273 84.000000 0.231414 118.000000 -0.156047
107684.000000 1.585391 211.000000 212.000000 138.000000 -0.125897 162.000000 0.061487 177.000000 -0.104346 198.000000 -0.085333 19.000000 -0.184577 78.000000 0.258868 119.000000 -0.128201
107896.000000 1.472616 212.000000 217.000000 145.000000 -0.140520 166.000000 0.082820 194.000000 -0.114500 199.000000 -0.093920 11.000000 -0.144155 81.000000 0.246113 103.000000 -0.125721
108113.000000 1.539764 217.000000 202.000000 133.000000 -0.139546 181.000000 0.330643 180.000000 0.250925 187.000000 0.792037 16.000000 -0.121599 84.000000 0.162352 111.000000 -0.191019
108764.000000 1.562555 280.000000 364.000000 315.000000 -0.169905 343.000000 0.172744 343.000000 0.172744 350.000000 0.722556 18.000000 -0.116740 191.000000 1.640452 236.000000 -0.723216
109439.000000 1.598125 311.000000 213.000000 150.000000 -0.120549 192.000000 0.607286 167.000000 0.068102 174.000000 0.018713 16.000000 -0.137393 92.000000 0.183216 119.000000 -0.139670
110065.000000 1.665108 248.000000 212.000000 140.000000 -0.152803 162.000000 0.066755 180.000000 -0.104014 198.000000 -0.130630 15.000000 -0.098279 90.000000 0.316739 125.000000 -0.118572
110277.000000 1.448712 212.000000 168.000000 114.000000 -0.167555 147.000000 0.114700 131.000000 -0.108167 138.000000 -0.104548 14.000000 -0.238890 81.000000 0.184841 109.000000 -0.178778
110679.000000 1.724076 234.000000 200.000000 108.000000 -0.130999 154.000000 0.050726 180.000000 -0.151608 185.000000 -0.133018 13.000000 -0.079781 81.000000 0.349706 120.000000 -0.162863
110879.000000 1.660021 200.000000 430.000000 365.000000 0.026253 385.000000 0.174354 400.000000 -0.062024 416.000000 -0.057023 14.000000 -0.201986 169.000000 1.620860 213.000000 -0.568557
111309.000000 1.566020 430.000000 222.000000 153.000000 -0.169572 172.000000 0.028892 188.000000 -0.147863 205.000000 -0.241766 16.000000 -0.103180 88.000000 0.306555 124.000000 -0.148146
111977.000000 1.582786 446.000000 207.000000 124.000000 -0.141753 158.000000 0.040488 186.000000 -0.151926 191.000000 -0.205531 16.000000 -0.122402 85.000000 0.310801 132.000000 -0.141706
112599.000000 1.562227 255.000000 206.000000 142.000000 -0.160269 160.000000 0.039041 183.000000 -0.132322 188.000000 -0.143748 14.000000 -0.093259 88.000000 0.310483 128.000000 -0.168687
112805.000000 1.539639 206.000000 396.000000 294.000000 -0.167460 355.000000 0.183387 378.000000 0.003636 380.000000 0.000204 16.000000 -0.236647 172.000000 1.676819 241.000000 -0.769090
113201.000000 1.661974 396.000000 201.000000 132.000000 -0.160657 158.000000 0.030299 175.000000 -0.134103 185.000000 -0.154966 15.000000 -0.071661 80.000000 0.341898 118.000000 -0.178839
113402.000000 1.468576 201.000000 189.000000 147.000000 -0.102569 168.000000 0.274751 171.000000 0.405895 178.000000 0.897775 14.000000 -0.171300 83.000000 0.169845 109.000000 -0.190060
113845.000000 1.688967 254.000000 212.000000 149.000000 -0.137823 167.000000 0.046284 178.000000 -0.105252 196.000000 -0.133623 17.000000 -0.082740 90.000000 0.331989 129.000000 -0.174374
114057.000000 1.623964 212.000000 200.000000 136.000000 -0.122382 179.000000 0.192026 157.000000 -0.074481 164.000000 0.031992 14.000000 -0.139171 82.000000 0.168196 136.000000 -0.122382
114493.000000 1.707088 236.000000 213.000000 139.000000 -0.154816 167.000000 0.072789 184.000000 -0.138181 200.000000 -0.135235 19.000000 -0.103366 84.000000 0.335375 122.000000 -0.169300
114706.000000 1.523135 213.000000 411.000000 305.000000 -0.210688 368.000000 0.162712 389.000000 -0.014923 393.000000 -0.007478 15.000000 -0.159373 187.000000 1.631914 256.000000 -0.792567
115117.000000 1.772006 411.000000 197.000000 132.000000 -0.140938 155.000000 0.033766 172.000000 -0.118898 183.000000 -0.147518 14.000000 -0.062917 78.000000 0.318967 116.000000 -0.169386
115314.000000 1.601181 197.000000 214.000000 174.000000 -0.007162 193.000000 0.318512 190.000000 0.124076 197.000000 0.642415 14.000000 -0.126516 78.000000 0.180926 113.000000 -0.185988
115747.000000 1.593449 219.000000 228.000000 154.000000 -0.147134 180.000000 0.056502 202.000000 -0.149516 213.000000 -0.126021 14.000000 -0.045844 89.000000 0.294547 122.000000 -0.164859
116627.000000 1.572541 215.000000 216.000000 150.000000 -0.144639 169.000000 0.039828 182.000000 -0.108494 198.000000 -0.137394 13.000000 -0.097631 79.000000 0.260647 109.000000 -0.134354
116843.000000 1.547559 216.000000 221.000000 153.000000 -0.131301 174.000000 0.072303 193.000000 -0.112510 205.000000 -0.101600 12.000000 -0.114525 86.000000 0.258891 115.000000 -0.136674
117064.000000 1.518462 221.000000 218.000000 133.000000 -0.139798 171.000000 0.041692 197.000000 -0.145534 202.000000 -0.142384 13.000000 -0.078589 81.000000 0.251504 113.000000 -0.174234
117282.000000 1.966646 218.000000 162.000000 121.000000 -0.100906 141.000000 0.012902 129.000000 -0.113492 136.000000 -0.072505 14.000000 -0.219483 79.000000 0.172478 125.000000 -0.079244
117693.000000 1.561644 249.000000 216.000000 148.000000 -0.131677 165.000000 0.066913 187.000000 -0.143447 199.000000 -0.134295 16.000000 -0.097306 87.000000 0.324151 130.000000 -0.126756
117909.000000 1.448527 216.000000 197.000000 145.000000 -0.127288 176.000000 0.298451 179.000000 0.399799 186.000000 0.877542 17.000000 -0.152241 87.000000 0.142650 114.000000 -0.184749
118106.000000 1.671962 197.000000 243.000000 166.000000 -0.025975 195.000000 0.210265 213.000000 -0.024862 229.000000 -0.029706 11.000000 1.276961 20.000000 0.942352 56.000000 -0.648980
118349.000000 1.743116 243.000000 204.000000 135.000000 -0.159858 157.000000 0.022447 171.000000 -0.117130 187.000000 -0.143151 14.000000 -0.061008 86.000000 0.312194 128.000000 -0.147993
118553.000000 1.595001 204.000000 198.000000 131.000000 -0.170816 152.000000 0.028368 166.000000 -0.098231 184.000000 -0.121272 15.000000 -0.142290 79.000000 0.230028 118.000000 -0.189562
118751.000000 1.590533 198.000000 203.000000 130.000000 -0.162651 157.000000 0.053870 175.000000 -0.107682 188.000000 -0.116287 17.000000 -0.161051 79.000000 0.254027 115.000000 -0.145989
119155.000000 1.594764 201.000000 199.000000 131.000000 -0.099313 160.000000 0.029073 175.000000 -0.128325 180.000000 0.047019 14.000000 -0.147712 83.000000 0.203713 110.000000 -0.164470
119984.000000 2.028216 213.000000 165.000000 110.000000 -0.123465 144.000000 0.081068 132.000000 -0.092098 139.000000 -0.035154 16.000000 -0.254714 87.000000 -0.006976 110.000000 -0.123465
120612.000000 1.550439 202.000000 197.000000 126.000000 -0.087116 176.000000 0.789999 179.000000 1.085029 186.000000 1.658071 14.000000 -0.178700 83.000000 0.167445 126.000000 -0.087116
121008.000000 1.633386 199.000000 189.000000 123.000000 -0.145970 143.000000 0.047196 159.000000 -0.177210 172.000000 -0.184623 12.000000 0.044202 78.000000 0.298654 123.000000 -0.145970
121382.000000 1.436192 185.000000 163.000000 112.000000 -0.078870 142.000000 0.229074 128.000000 -0.005454 135.000000 0.114922 14.000000 -0.243682 76.000000 0.213026 112.000000 -0.078870
121943.000000 1.541002 188.000000 194.000000 113.000000 -0.136802 145.000000 0.049734 167.000000 -0.113872 179.000000 -0.121442 13.000000 -0.136629 73.000000 0.215551 114.000000 -0.131708
122137.000000 1.646694 194.000000 408.000000 338.000000 -0.135296 358.000000 0.150407 377.000000 -0.040675 395.000000 -0.048012 14.000000 -0.183370 179.000000 1.383036 227.000000 -0.489925
122741.000000 1.540688 196.000000 195.000000 127.000000 -0.122509 150.000000 0.047274 169.000000 -0.102930 177.000000 -0.130203 14.000000 -0.181961 85.000000 0.183980 115.000000 -0.155111
123334.000000 1.523024 398.000000 202.000000 128.000000 -0.102288 151.000000 0.076694 177.000000 -0.161458 181.000000 -0.134404 12.000000 -0.055268 85.000000 0.324625 130.000000 -0.102899
123921.000000 1.631910 193.000000 180.000000 110.000000 -0.108212 139.000000 0.087230 155.000000 -0.190043 164.000000 -0.090185 16.000000 -0.102259 74.000000 0.297164 104.000000 -0.126487
124101.000000 1.426116 180.000000 198.000000 118.000000 -0.172524 147.000000 0.047709 153.000000 0.013555 180.000000 -0.168953 15.000000 -0.152036 80.000000 0.181582 118.000000 -0.172524
124697.000000 1.631115 398.000000 204.000000 121.000000 -0.104752 151.000000 0.047977 157.000000 0.045015 188.000000 -0.144779 14.000000 -0.083054 89.000000 0.271517 121.000000 -0.104752
125862.000000 1.448308 185.000000 190.000000 108.000000 -0.131677 141.000000 0.147804 165.000000 -0.148246 168.000000 -0.183606 20.000000 -0.422991 82.000000 0.343624 109.000000 -0.127711
126240.000000 1.278526 188.000000 189.000000 113.000000 0.039341 143.000000 0.545831 160.000000 -0.315313 176.000000 -0.188525 11.000000 -0.014012 56.000000 0.439717 71.000000 -0.161474
127008.000000 1.690737 192.000000 193.000000 120.000000 -0.143981 147.000000 0.208464 165.000000 -0.210939 179.000000 -0.054467 11.000000 -0.145910 77.000000 0.388933 108.000000 -0.105409
127201.000000 1.644970 193.000000 164.000000 114.000000 -0.045911 142.000000 0.255861 144.000000 0.215531 151.000000 0.549904 13.000000 -0.184671 82.000000 0.093149 103.000000 -0.057290
127571.000000 1.656283 206.000000 182.000000 107.000000 -0.074843 138.000000 0.085127 152.000000 -0.159623 167.000000 -0.121017 14.000000 -0.051334 83.000000 0.237570 107.000000 -0.074843
127753.000000 1.422275 182.000000 188.000000 118.000000 -0.156803 142.000000 -0.011443 155.000000 -0.177352 174.000000 -0.254125 11.000000 -0.082367 82.000000 0.178213 120.000000 -0.171474
127941.000000 1.396377 188.000000 164.000000 116.000000 0.011521 143.000000 0.223715 136.000000 0.162430 143.000000 0.223715 14.000000 -0.383308 79.000000 0.114339 99.000000 -0.097555
128303.000000 1.892350 198.000000 190.000000 126.000000 -0.051036 144.000000 0.094795 168.000000 -0.200548 174.000000 -0.247132 14.000000 -0.098717 77.000000 0.282979 99.000000 -0.168919
128697.000000 2.345551 204.000000 415.000000 336.000000 -0.027180 368.000000 0.237116 391.000000 -0.016757 401.000000 -0.026912 16.000000 -0.300407 176.000000 1.772635 247.000000 -0.710284
129112.000000 1.666708 415.000000 199.000000 123.000000 -0.123291 152.000000 0.024608 170.000000 -0.240267 184.000000 -0.219892 15.000000 -0.080611 85.000000 0.229783 107.000000 -0.109026
129311.000000 1.527944 199.000000 183.000000 113.000000 -0.274607 136.000000 -0.011441 138.000000 -0.129748 170.000000 -0.258119 14.000000 0.059936 65.000000 0.420845 113.000000 -0.274607
129494.000000 1.693434 183.000000 190.000000 111.000000 -0.307052 150.000000 0.101802 170.000000 -0.103747 175.000000 -0.191082 15.000000 -0.267853 86.000000 0.183042 111.000000 -0.307052
129684.000000 1.537632 190.000000 189.000000 100.000000 -0.286034 123.000000 0.359859 137.000000 -0.093417 174.000000 0.056929 15.000000 0.010313 77.000000 0.398259 100.000000 -0.286034
129873.000000 1.666632 189.000000 183.000000 122.000000 -0.147002 139.000000 0.033046 161.000000 -0.251517 167.000000 -0.220906 18.000000 -0.141394 79.000000 0.193842 103.000000 -0.344948
130611.000000 1.387554 183.000000 188.000000 108.000000 -0.148839 138.000000 0.012228 156.000000 -0.143132 175.000000 -0.087272 11.000000 -0.116897 67.000000 0.248512 108.000000 -0.148839
130799.000000 1.325613 188.000000 176.000000 112.000000 -0.010391 143.000000 0.242886 153.000000 0.128184 165.000000 0.691554 12.000000 -0.178165 83.000000 0.198682 115.000000 -0.002193
131565.000000 1.565187 195.000000 171.000000 107.000000 -0.781284 150.000000 0.087213 150.000000 0.087213 157.000000 0.565080 13.000000 -0.179061 78.000000 0.117696 112.000000 -0.704293
131938.000000 1.811926 202.000000 172.000000 102.000000 -0.002977 126.000000 0.135157 144.000000 -0.140627 158.000000 -0.130346 15.000000 0.017835 78.000000 0.326850 103.000000 0.002179
132110.000000 1.655985 172.000000 180.000000 100.000000 0.054904 139.000000 0.377635 155.000000 -0.306722 160.000000 -0.314732 12.000000 -0.118529 82.000000 0.317601 100.000000 0.054904
132808.000000 1.620142 177.000000 181.000000 110.000000 -0.302196 127.000000 0.022083 130.000000 -0.148199 168.000000 -0.312428 16.000000 -0.275641 78.000000 0.531661 111.000000 -0.287117
132989.000000 1.890550 181.000000 191.000000 123.000000 -0.206645 148.000000 -0.016629 166.000000 -0.107005 173.000000 -0.086613 11.000000 -0.012961 64.000000 1.407807 82.000000 -0.084278
133180.000000 1.814939 191.000000 186.000000 132.000000 -0.225738 161.000000 0.093810 165.000000 0.083684 166.000000 0.138198 15.000000 -0.201159 86.000000 0.235530 123.000000 -0.294405
133366.000000 1.866992 186.000000 196.000000 111.000000 0.069561 155.000000 0.210032 175.000000 0.025143 176.000000 0.084720 16.000000 -0.122303 94.000000 0.130674 111.000000 0.069561
134890.000000 1.838199 180.000000 193.000000 126.000000 -0.023231 149.000000 0.131095 158.000000 0.066972 177.000000 0.028162 12.000000 -0.221613 76.000000 0.180124 102.000000 0.014277
135083.000000 1.790560 193.000000 201.000000 128.000000 -0.214104 155.000000 0.005692 164.000000 -0.020311 184.000000 -0.067583 15.000000 -0.081398 82.000000 0.185831 129.000000 -0.203978
135284.000000 2.066303 201.000000 432.000000 329.000000 -0.404074 391.000000 0.273261 413.000000 0.090268 416.000000 0.126569 13.000000 -0.102317 175.000000 1.527052 238.000000 -0.727697
135716.000000 1.927869 432.000000 214.000000 135.000000 -0.179074 165.000000 0.013058 192.000000 -0.137460 198.000000 -0.085220 14.000000 0.118872 88.000000 0.141647 123.000000 -0.245515
135930.000000 1.704497 214.000000 176.000000 112.000000 -0.084169 154.000000 0.272728 135.000000 0.088653 142.000000 0.061192 12.000000 -0.185722 82.000000 0.129937 102.000000 -0.113637
136345.000000 1.741695 239.000000 204.000000 132.000000 -0.124325 158.000000 0.048385 183.000000 -0.119078 188.000000 -0.109813 14.000000 -0.083069 80.000000 0.280144 115.000000 -0.140186
136549.000000 1.648637 204.000000 190.000000 140.000000 -0.083668 169.000000 0.259564 173.000000 0.474594 180.000000 0.894405 16.000000 -0.175924 79.000000 0.160190 108.000000 -0.169592
137204.000000 1.703980 211.000000 473.000000 319.000000 -0.161761 374.000000 0.084215 404.000000 0.004388 459.000000 -0.092631 15.000000 -0.125269 188.000000 1.498382 250.000000 -0.698787
137677.000000 1.664108 473.000000 231.000000 153.000000 -0.137902 177.000000 0.010235 200.000000 -0.135045 210.000000 -0.159936 15.000000 -0.096801 86.000000 0.283103 127.000000 -0.156101
137908.000000 2.229078 231.000000 479.000000 291.000000 -0.085372 341.000000 0.113139 412.000000 -0.056159 463.000000 -0.100450 16.000000 -0.283930 155.000000 1.621191 224.000000 -0.765577
138849.000000 1.702098 462.000000 200.000000 123.000000 -0.174809 156.000000 0.027101 178.000000 -0.160751 183.000000 -0.160155 14.000000 -0.100848 84.000000 0.192712 123.000000 -0.174809
139049.000000 1.625518 200.000000 194.000000 128.000000 -0.128809 148.000000 0.041975 168.000000 -0.132745 175.000000 -0.150756 13.000000 -0.167114 70.000000 0.287528 103.000000 -0.192646
139705.000000 1.616598 462.000000 217.000000 145.000000 -0.173820 164.000000 0.059691 181.000000 -0.133537 199.000000 -0.140339 13.000000 -0.086586 90.000000 0.251131 145.000000 -0.173820
140553.000000 1.610612 212.000000 203.000000 132.000000 -0.147568 156.000000 0.022243 173.000000 -0.093807 175.000000 -0.098508 16.000000 -0.209668 74.000000 0.235519 111.000000 -0.166956
141199.000000 1.678307 443.000000 433.000000 365.000000 -0.219527 392.000000 0.000081 410.000000 -0.087477 416.000000 -0.076269 14.000000 -0.055645 225.000000 0.799538 286.000000 -0.193763
141632.000000 1.564122 433.000000 212.000000 142.000000 -0.129577 163.000000 0.069139 193.000000 -0.108071 196.000000 -0.153213 14.000000 -0.076786 85.000000 0.199969 128.000000 -0.119421
143117.000000 1.556850 198.000000 199.000000 126.000000 -0.210502 154.000000 0.013747 174.000000 -0.144374 185.000000 -0.116132 14.000000 -0.118589 76.000000 0.283778 116.000000 -0.217022
143316.000000 1.591736 199.000000 425.000000 292.000000 -0.167490 369.000000 0.162413 392.000000 -0.031349 406.000000 -0.058714 13.000000 -0.223906 164.000000 1.544989 225.000000 -0.708462
143741.000000 1.644049 425.000000 223.000000 138.000000 -0.142197 172.000000 0.042019 199.000000 -0.155501 206.000000 -0.138776 16.000000 -0.082785 88.000000 0.368278 138.000000 -0.142197
143964.000000 1.569672 223.000000 225.000000 115.000000 -0.222945 204.000000 0.478198 204.000000 0.478198 211.000000 1.001081 14.000000 -0.113258 81.000000 0.175505 115.000000 -0.222945
144651.000000 1.713491 301.000000 222.000000 139.000000 -0.149920 173.000000 0.047996 189.000000 -0.152897 200.000000 0.000707 14.000000 -0.095333 89.000000 0.258807 118.000000 -0.163305
144873.000000 2.208795 222.000000 157.000000 109.000000 -0.138824 136.000000 0.024982 139.000000 0.157475 146.000000 0.639953 15.000000 -0.329747 90.000000 -0.053885 109.000000 -0.138824
145322.000000 1.615843 292.000000 199.000000 116.000000 -0.110971 151.000000 0.048714 168.000000 -0.092524 182.000000 -0.147007 14.000000 -0.076760 78.000000 0.267317 116.000000 -0.110971
145521.000000 1.892869 199.000000 149.000000 111.000000 -0.153802 128.000000 -0.024836 129.000000 0.005697 136.000000 0.518864 17.000000 -0.306771 71.000000 0.181273 101.000000 -0.113945
146157.000000 1.686224 212.000000 214.000000 121.000000 -0.172774 162.000000 0.071568 178.000000 -0.118701 195.000000 -0.145254 16.000000 -0.132398 83.000000 0.286241 121.000000 -0.172774
146371.000000 2.100657 214.000000 176.000000 123.000000 -0.136692 155.000000 0.063196 138.000000 -0.118276 145.000000 -0.079092 17.000000 -0.234030 86.000000 0.088855 123.000000 -0.136692
146826.000000 1.695828 279.000000 210.000000 130.000000 -0.160327 163.000000 0.040001 177.000000 -0.127507 195.000000 -0.125641 15.000000 -0.078294 87.000000 0.311615 130.000000 -0.160327
147456.000000 1.727775 235.000000 221.000000 146.000000 -0.202621 171.000000 0.015879 191.000000 -0.197003 205.000000 -0.159231 17.000000 -0.124184 80.000000 0.375513 147.000000 -0.203059
147677.000000 1.694219 221.000000 209.000000 159.000000 0.039467 188.000000 0.741632 176.000000 -0.010860 183.000000 0.402557 12.000000 -0.180436 70.000000 0.185736 98.000000 -0.219670
149869.000000 1.590583 192.000000 185.000000 135.000000 -0.084200 164.000000 0.292085 162.000000 0.236475 169.000000 0.513433 14.000000 -0.111015 77.000000 0.280864 104.000000 -0.119312
150311.000000 1.638291 257.000000 219.000000 133.000000 -0.164141 164.000000 0.019075 187.000000 -0.170660 204.000000 -0.157572 12.000000 -0.108558 87.000000 0.329903 133.000000 -0.164141
150530.000000 1.600985 219.000000 224.000000 186.000000 -0.042693 203.000000 0.841477 205.000000 1.028092 212.000000 1.518970 15.000000 -0.162353 84.000000 0.193963 121.000000 -0.213026
151273.000000 1.681726 341.000000 190.000000 146.000000 -0.054622 169.000000 0.210675 173.000000 0.435502 180.000000 0.889921 15.000000 -0.104136 85.000000 0.262618 115.000000 -0.093965
151737.000000 1.690283 274.000000 222.000000 148.000000 -0.193039 173.000000 0.022321 188.000000 -0.168056 205.000000 -0.148622 16.000000 -0.080563 83.000000 0.335991 126.000000 -0.147664
151959.000000 1.724185 222.000000 206.000000 131.000000 -0.147055 185.000000 0.634824 183.000000 0.470011 190.000000 1.034024 12.000000 -0.139607 71.000000 0.233698 106.000000 -0.204093
152667.000000 1.705569 326.000000 217.000000 154.000000 -0.119953 196.000000 0.197963 196.000000 0.197963 203.000000 0.643088 14.000000 -0.109416 94.000000 0.152117 124.000000 -0.212287
154015.000000 1.796508 288.000000 202.000000 136.000000 -0.163228 181.000000 0.077150 165.000000 -0.052301 172.000000 -0.144417 13.000000 -0.093696 79.000000 0.306209 112.000000 -0.160893
154705.000000 1.771634 312.000000 211.000000 147.000000 -0.159814 190.000000 0.119530 172.000000 0.034702 179.000000 -0.001473 12.000000 -0.044635 90.000000 0.199828 157.000000 -0.104563
156062.000000 1.802692 276.000000 203.000000 135.000000 -0.198258 153.000000 0.013119 170.000000 -0.138919 185.000000 -0.154093 12.000000 -0.095394 83.000000 0.310974 116.000000 -0.186706
156925.000000 2.087824 230.000000 170.000000 123.000000 -0.140907 149.000000 0.226897 140.000000 -0.076566 147.000000 0.110644 15.000000 -0.238369 85.000000 0.090722 123.000000 -0.140907
157412.000000 1.659452 317.000000 216.000000 138.000000 -0.112680 167.000000 0.057489 178.000000 -0.101007 199.000000 0.052236 14.000000 -0.093165 84.000000 0.279204 121.000000 -0.117570
159446.000000 1.724826 330.000000 225.000000 187.000000 -0.037756 204.000000 0.820081 204.000000 0.820081 211.000000 1.471445 14.000000 -0.074187 96.000000 0.188103 122.000000 -0.178353
160139.000000 1.672103 303.000000 214.000000 132.000000 -0.120659 193.000000 0.568573 193.000000 0.568573 200.000000 1.112492 16.000000 -0.104651 87.000000 0.256663 122.000000 -0.129891
161507.000000 1.666988 309.000000 218.000000 149.000000 -0.135691 197.000000 0.130203 189.000000 -0.111663 196.000000 0.065798 15.000000 -0.091539 87.000000 0.204792 127.000000 -0.131430
162167.000000 1.654139 275.000000 214.000000 121.000000 -0.123106 165.000000 0.080499 190.000000 -0.143090 194.000000 -0.130583 12.000000 -0.128870 87.000000 0.298136 121.000000 -0.123106
164850.000000 1.667837 272.000000 199.000000 119.000000 -0.182508 151.000000 0.013529 168.000000 -0.130154 183.000000 -0.149512 15.000000 -0.106802 85.000000 0.293087 119.000000 -0.182508
165674.000000 1.408429 209.000000 210.000000 127.000000 -0.166431 155.000000 0.003478 186.000000 -0.150860 194.000000 -0.157332 13.000000 -0.140145 83.000000 0.280512 127.000000 -0.166431
170659.000000 1.575849 310.000000 199.000000 144.000000 -0.080156 178.000000 0.215930 185.000000 0.618453 192.000000 1.085554 15.000000 -0.088807 90.000000 0.208481 118.000000 -0.136864
171348.000000 1.637746 308.000000 202.000000 129.000000 -0.179829 181.000000 0.492381 181.000000 0.492381 188.000000 0.954607 15.000000 -0.095403 90.000000 0.223011 116.000000 -0.164200
172044.000000 1.670911 321.000000 208.000000 145.000000 -0.116159 187.000000 0.223464 195.000000 0.649123 202.000000 1.133981 11.000000 -0.109324 85.000000 0.233388 121.000000 -0.145156
172754.000000 1.693477 320.000000 389.000000 332.000000 -0.182835 368.000000 0.122905 369.000000 0.187466 376.000000 0.672796 15.000000 -0.104690 201.000000 1.470217 270.000000 -0.765955
174139.000000 1.645741 296.000000 399.000000 355.000000 -0.126880 378.000000 0.105113 361.000000 -0.149607 368.000000 -0.118540 15.000000 -0.095591 229.000000 2.093476 254.000000 -0.510081
174821.000000 1.648710 283.000000 218.000000 149.000000 -0.136521 197.000000 0.672840 201.000000 0.935034 208.000000 1.510410 16.000000 -0.090991 92.000000 0.244653 125.000000 -0.177933
175504.000000 1.665631 309.000000 197.000000 144.000000 -0.138825 176.000000 0.172584 177.000000 0.203007 184.000000 0.630373 12.000000 -0.120309 92.000000 0.236067 125.000000 -0.152696
176895.000000 1.611614 303.000000 215.000000 136.000000 -0.116406 194.000000 0.698751 198.000000 1.003955 205.000000 1.585428 14.000000 -0.080753 88.000000 0.200675 103.000000 -0.036879
177566.000000 1.655078 286.000000 200.000000 147.000000 -0.124121 179.000000 0.483295 182.000000 0.678608 189.000000 1.190443 14.000000 -0.077289 83.000000 0.213810 116.000000 -0.174859
178975.000000 1.643231 328.000000 373.000000 324.000000 -0.135642 352.000000 0.106895 356.000000 0.347819 363.000000 0.889888 15.000000 -0.102537 192.000000 1.563494 244.000000 -0.696082
181755.000000 1.527602 331.000000 191.000000 135.000000 -0.089061 170.000000 0.129139 148.000000 -0.098260 155.000000 -0.085047 14.000000 -0.089719 88.000000 0.254420 135.000000 -0.089061
182472.000000 1.646848 349.000000 199.000000 140.000000 -0.116017 178.000000 0.054592 156.000000 -0.083667 163.000000 -0.039999 16.000000 -0.125691 97.000000 0.239155 146.000000 -0.089497
183214.000000 1.517791 357.000000 194.000000 146.000000 -0.114183 173.000000 0.169140 178.000000 0.456507 185.000000 0.923654 17.000000 -0.101410 93.000000 0.196020 121.000000 -0.139967
185307.000000 1.674955 332.000000 202.000000 147.000000 -0.124323 181.000000 0.451462 183.000000 0.602261 190.000000 1.208545 16.000000 -0.100405 94.000000 0.209438 120.000000 -0.167850
187364.000000 1.324546 342.000000 211.000000 153.000000 -0.139639 190.000000 0.235470 192.000000 0.301631 199.000000 0.720063 15.000000 -0.044828 96.000000 0.146301 136.000000 -0.172038
188048.000000 1.559031 300.000000 204.000000 167.000000 -0.031017 183.000000 0.759202 184.000000 0.827792 191.000000 1.391147 16.000000 -0.116438 84.000000 0.223670 114.000000 -0.154277
188685.000000 1.773479 277.000000 206.000000 130.000000 -0.116758 185.000000 0.640487 178.000000 0.185627 185.000000 0.640487 13.000000 -0.080737 77.000000 0.225189 114.000000 -0.192400
190772.000000 1.791052 301.000000 187.000000 124.000000 -0.108683 150.000000 0.073246 162.000000 -0.000815 176.000000 0.729043 14.000000 -0.137303 88.000000 0.221379 119.000000 -0.132851
191419.000000 1.780388 287.000000 227.000000 152.000000 -0.159733 206.000000 0.394722 199.000000 -0.030199 206.000000 0.394722 14.000000 -0.053781 94.000000 0.213039 125.000000 -0.168636
192102.000000 1.795238 288.000000 372.000000 181.000000 -0.055531 224.000000 0.234217 244.000000 -0.579808 363.000000 1.017978 16.000000 -0.109384 217.000000 1.852086 244.000000 -0.579808
192794.000000 1.734201 320.000000 204.000000 127.000000 -0.154183 183.000000 0.522058 188.000000 0.850742 195.000000 1.384911 13.000000 -0.073635 89.000000 0.184894 129.000000 -0.163336
194844.000000 1.722432 308.000000 197.000000 142.000000 -0.136994 176.000000 0.385550 166.000000 0.067539 173.000000 0.196379 13.000000 -0.050956 85.000000 0.217398 118.000000 -0.168514
195507.000000 1.704515 466.000000 213.000000 125.000000 -0.191272 192.000000 0.131897 194.000000 0.276944 201.000000 0.797383 16.000000 -0.104858 95.000000 0.147630 125.000000 -0.191272
196173.000000 1.729233 283.000000 207.000000 124.000000 -0.130786 160.000000 0.049105 177.000000 -0.137507 193.000000 0.421992 17.000000 -0.130423 94.000000 0.258776 124.000000 -0.130786
196781.000000 1.751788 237.000000 199.000000 126.000000 -0.156802 147.000000 0.020080 168.000000 -0.145062 186.000000 -0.184404 12.000000 -0.077711 88.000000 0.318198 129.000000 -0.133745
196980.000000 1.689296 199.000000 191.000000 109.000000 -0.140049 170.000000 0.610015 165.000000 0.257005 172.000000 0.733667 14.000000 -0.191615 80.000000 0.161441 109.000000 -0.140049
197540.000000 1.808761 181.000000 207.000000 137.000000 -0.123496 161.000000 0.011724 170.000000 -0.145016 189.000000 -0.161067 12.000000 -0.135487 84.000000 0.211644 111.000000 -0.196537
198257.000000 1.666364 332.000000 201.000000 154.000000 -0.129513 180.000000 0.119545 165.000000 -0.051348 172.000000 -0.007790 16.000000 -0.104451 98.000000 0.267178 134.000000 -0.099199
201009.000000 1.686446 338.000000 199.000000 145.000000 -0.161349 178.000000 0.546409 180.000000 0.609513 187.000000 1.110297 14.000000 -0.087301 89.000000 0.219110 116.000000 -0.166490
202359.000000 1.685202 313.000000 224.000000 158.000000 -0.104797 203.000000 0.631616 195.000000 0.107211 202.000000 0.566710 14.000000 -0.083919 94.000000 0.185751 158.000000 -0.104797
203026.000000 1.708384 277.000000 211.000000 141.000000 -0.123322 190.000000 0.393764 182.000000 -0.071549 189.000000 0.329892 12.000000 -0.119344 87.000000 0.247865 115.000000 -0.168339
204360.000000 1.690408 310.000000 225.000000 170.000000 0.060611 204.000000 0.923464 201.000000 0.708151 208.000000 1.193465 16.000000 -0.105407 98.000000 0.159279 131.000000 -0.181943
205038.000000 1.744983 287.000000 221.000000 150.000000 -0.158655 200.000000 0.596027 204.000000 0.817893 211.000000 1.374979 15.000000 -0.089140 92.000000 0.238712 132.000000 -0.172228
206386.000000 1.713758 327.000000 207.000000 143.000000 -0.153731 186.000000 0.207601 155.000000 -0.142540 162.000000 -0.097869 16.000000 -0.103185 93.000000 0.178102 143.000000 -0.153731
207077.000000 1.762837 302.000000 217.000000 178.000000 -0.002197 196.000000 0.918180 198.000000 1.060406 205.000000 1.503980 14.000000 -0.079860 87.000000 0.239293 124.000000 -0.165938
209064.000000 1.779702 306.000000 372.000000 185.000000 -0.108743 224.000000 0.755692 245.000000 -0.551284 346.000000 -0.079531 15.000000 -0.107775 219.000000 1.927651 245.000000 -0.551284
210407.000000 1.671586 269.000000 217.000000 136.000000 -0.145782 196.000000 0.700596 193.000000 0.485628 200.000000 0.963872 12.000000 -0.121471 91.000000 0.245238 119.000000 -0.205312
211772.000000 1.688590 295.000000 214.000000 147.000000 -0.138948 193.000000 0.529893 198.000000 0.917886 205.000000 1.511962 13.000000 -0.088245 89.000000 0.220518 123.000000 -0.181143
213771.000000 1.744894 282.000000 381.000000 320.000000 -0.183244 360.000000 0.114532 363.000000 0.300081 370.000000 0.883247 13.000000 -0.082629 216.000000 2.090405 275.000000 -0.635031
214450.000000 1.715379 298.000000 198.000000 143.000000 -0.154685 165.000000 0.081979 174.000000 -0.059731 189.000000 0.774079 15.000000 -0.069637 87.000000 0.270534 125.000000 -0.166080
215782.000000 1.673262 280.000000 212.000000 123.000000 -0.160174 164.000000 0.057710 171.000000 -0.032870 198.000000 0.265609 16.000000 -0.097035 87.000000 0.250000 123.000000 -0.160174
216415.000000 1.780799 263.000000 209.000000 140.000000 -0.154433 162.000000 0.024047 173.000000 -0.131955 194.000000 0.103579 14.000000 -0.087823 85.000000 0.317287 121.000000 -0.145890
217069.000000 1.741032 280.000000 222.000000 153.000000 -0.175250 201.000000 0.300816 192.000000 -0.141394 199.000000 0.181632 15.000000 -0.100268 91.000000 0.251677 123.000000 -0.204027
217750.000000 1.669798 296.000000 215.000000 146.000000 -0.151690 194.000000 0.287183 188.000000 -0.096594 195.000000 0.366337 12.000000 -0.096033 94.000000 0.231664 163.000000 -0.000686
218409.000000 1.730645 289.000000 209.000000 139.000000 -0.142617 188.000000 0.201288 185.000000 0.034673 192.000000 0.503483 16.000000 -0.122269 89.000000 0.276929 150.000000 -0.073322
219718.000000 1.748984 296.000000 222.000000 144.000000 -0.182241 201.000000 0.214014 194.000000 -0.137303 201.000000 0.214014 13.000000 -0.085845 93.000000 0.236147 175.000000 -0.006424
220364.000000 1.714811 270.000000 211.000000 137.000000 -0.136051 161.000000 0.064545 184.000000 -0.155362 188.000000 -0.143607 13.000000 -0.093685 90.000000 0.267616 129.000000 -0.176976
221002.000000 1.681441 271.000000 202.000000 138.000000 -0.133984 154.000000 0.034558 173.000000 -0.139154 177.000000 -0.114467 8.000000 -0.064297 88.000000 0.280610 122.000000 -0.151883
221636.000000 1.745285 275.000000 212.000000 135.000000 -0.160169 161.000000 0.027967 187.000000 -0.169575 194.000000 -0.193385 16.000000 -0.092488 89.000000 0.276682 124.000000 -0.153742
221848.000000 2.254843 212.000000 433.000000 356.000000 0.035944 382.000000 0.144956 404.000000 -0.061440 417.000000 -0.070077 15.000000 -0.228842 170.000000 1.739798 225.000000 -0.539732
222281.000000 1.693372 433.000000 209.000000 137.000000 -0.140300 159.000000 0.028556 176.000000 -0.129329 192.000000 -0.187120 15.000000 -0.070156 86.000000 0.318559 121.000000 -0.144531
222490.000000 2.003571 209.000000 168.000000 117.000000 -0.134625 147.000000 -0.019957 131.000000 -0.146163 138.000000 -0.118217 15.000000 -0.226350 87.000000 0.127351 111.000000 -0.130188
222925.000000 1.816018 267.000000 207.000000 122.000000 -0.149195 157.000000 0.039521 175.000000 -0.116107 183.000000 -0.148380 12.000000 -0.075127 83.000000 0.293121 111.000000 -0.167769
223566.000000 1.706098 275.000000 219.000000 181.000000 -0.081192 198.000000 0.780358 193.000000 0.426863 200.000000 0.931815 14.000000 -0.055172 91.000000 0.234749 120.000000 -0.156866
224427.000000 2.364699 202.000000 247.000000 125.000000 -0.211913 196.000000 0.123278 222.000000 -0.161550 229.000000 -0.161816 12.000000 -0.013858 83.000000 0.103900 125.000000 -0.211913
224959.000000 1.637884 285.000000 192.000000 135.000000 -0.055752 171.000000 0.074831 172.000000 0.119752 179.000000 0.578749 16.000000 -0.106631 87.000000 0.222131 120.000000 -0.071301
226636.000000 1.665910 193.000000 189.000000 117.000000 -0.155519 142.000000 0.013669 159.000000 -0.142020 174.000000 -0.155545 14.000000 -0.134516 83.000000 0.283040 118.000000 -0.146411
226825.000000 1.678310 189.000000 187.000000 117.000000 -0.166473 139.000000 0.021553 167.000000 -0.168117 174.000000 -0.135027 15.000000 -0.152191 85.000000 0.287209 120.000000 -0.142021
227012.000000 1.669689 187.000000 181.000000 114.000000 -0.141271 133.000000 0.018338 155.000000 -0.169969 166.000000 -0.166240 13.000000 -0.098713 79.000000 0.276253 114.000000 -0.141271
227193.000000 1.680031 181.000000 184.000000 115.000000 -0.175034 136.000000 0.005297 153.000000 -0.186959 170.000000 -0.169812 13.000000 -0.132963 78.000000 0.225797 116.000000 -0.180566
227377.000000 1.649124 184.000000 189.000000 114.000000 -0.161283 139.000000 0.026729 159.000000 -0.132221 173.000000 -0.141500 11.000000 -0.173275 85.000000 0.248654 116.000000 -0.147130
227566.000000 1.645754 189.000000 178.000000 106.000000 -0.127949 130.000000 0.032288 151.000000 -0.191194 164.000000 -0.140065 17.000000 -0.113212 76.000000 0.247005 106.000000 -0.127949
227744.000000 1.670532 178.000000 196.000000 124.000000 -0.148918 149.000000 0.017838 166.000000 -0.157773 182.000000 -0.144483 15.000000 -0.126914 84.000000 0.240298 115.000000 -0.128903
228137.000000 1.708922 197.000000 211.000000 144.000000 -0.163695 160.000000 0.010756 190.000000 -0.133195 196.000000 -0.125139 13.000000 -0.147128 87.000000 0.284692 133.000000 -0.151971
228565.000000 1.632885 217.000000 211.000000 119.000000 -0.198211 164.000000 0.036427 181.000000 -0.138324 190.000000 -0.100095 15.000000 -0.128164 85.000000 0.234829 119.000000 -0.198211
229227.000000 1.729401 451.000000 204.000000 136.000000 -0.159307 156.000000 0.005659 173.000000 -0.143825 184.000000 -0.165219 15.000000 -0.113875 84.000000 0.265032 125.000000 -0.143507
229839.000000 1.744623 246.000000 213.000000 139.000000 -0.172143 162.000000 0.022764 165.000000 -0.001249 195.000000 -0.174835 13.000000 -0.047416 84.000000 0.298744 123.000000 -0.176064
230494.000000 1.709592 263.000000 213.000000 144.000000 -0.185074 161.000000 0.024282 189.000000 -0.175028 197.000000 -0.150108 17.000000 -0.094077 94.000000 0.303046 128.000000 -0.164618
231118.000000 1.672307 207.000000 210.000000 141.000000 -0.173207 161.000000 0.018124 179.000000 -0.132392 194.000000 -0.159196 14.000000 -0.066330 83.000000 0.345178 124.000000 -0.162565
231328.000000 1.607511 210.000000 213.000000 130.000000 -0.126441 192.000000 0.182474 178.000000 -0.089014 185.000000 -0.087854 15.000000 -0.147302 82.000000 0.232633 108.000000 -0.173744
232606.000000 1.721946 231.000000 214.000000 140.000000 -0.208038 166.000000 0.023307 178.000000 -0.111080 198.000000 -0.145609 15.000000 -0.067709 89.000000 0.336836 131.000000 -0.157302
232820.000000 1.650535 214.000000 207.000000 133.000000 -0.197628 162.000000 0.010491 178.000000 -0.162314 189.000000 -0.150607 17.000000 -0.165281 90.000000 0.290555 133.000000 -0.197628
233224.000000 1.609403 197.000000 202.000000 135.000000 -0.162477 154.000000 0.002570 171.000000 -0.151662 187.000000 -0.169152 14.000000 -0.147932 82.000000 0.288368 119.000000 -0.162463
233629.000000 1.956504 203.000000 164.000000 40.000000 -0.239892 143.000000 0.007229 132.000000 -0.120733 139.000000 -0.073759 16.000000 -0.242211 80.000000 0.128934 129.000000 -0.141690
234255.000000 1.662667 207.000000 182.000000 120.000000 -0.152649 161.000000 0.133951 145.000000 -0.127256 152.000000 -0.139263 14.000000 -0.168853 84.000000 0.166052 120.000000 -0.152649
235400.000000 1.663135 304.000000 636.000000 336.000000 -0.151445 382.000000 1.230923 432.000000 -0.534185 622.000000 -0.082473 15.000000 -0.090487 221.000000 2.151219 241.000000 -0.408638
236235.000000 1.913086 199.000000 156.000000 108.000000 -0.162116 135.000000 0.015271 115.000000 -0.171817 122.000000 -0.168306 15.000000 -0.338498 72.000000 0.145939 108.000000 -0.162116
236646.000000 1.715205 255.000000 223.000000 141.000000 -0.145779 170.000000 0.023246 188.000000 -0.130905 206.000000 -0.148287 15.000000 -0.058463 87.000000 0.363876 130.000000 -0.165920
236869.000000 1.628123 223.000000 201.000000 152.000000 -0.101422 180.000000 0.219427 156.000000 -0.112912 163.000000 -0.052974 13.000000 -0.135247 85.000000 0.234266 121.000000 -0.167443
237344.000000 1.741077 274.000000 222.000000 151.000000 -0.138636 201.000000 0.641993 173.000000 0.031381 180.000000 -0.027364 15.000000 -0.102168 79.000000 0.250624 158.000000 -0.128541
238042.000000 1.660533 319.000000 199.000000 140.000000 -0.150187 178.000000 0.123136 163.000000 -0.026880 170.000000 0.047445 13.000000 -0.064169 88.000000 0.249249 114.000000 -0.144716
239356.000000 1.727886 272.000000 217.000000 141.000000 -0.159592 167.000000 0.047242 182.000000 -0.122429 192.000000 -0.153024 14.000000 -0.090063 90.000000 0.260895 120.000000 -0.182818
240646.000000 1.649823 266.000000 221.000000 154.000000 -0.097742 200.000000 0.675045 196.000000 0.438571 203.000000 0.855985 15.000000 -0.092372 88.000000 0.255751 123.000000 -0.166661
241321.000000 1.744591 284.000000 213.000000 70.000000 0.071659 164.000000 0.038232 186.000000 -0.154386 196.000000 0.164626 14.000000 -0.064327 86.000000 0.268337 160.000000 0.017511
241954.000000 1.681697 420.000000 211.000000 134.000000 -0.177871 161.000000 0.034952 178.000000 -0.135942 194.000000 -0.172399 14.000000 -0.065953 83.000000 0.320940 120.000000 -0.157024
242595.000000 1.809862 265.000000 200.000000 116.000000 -0.174155 151.000000 0.012552 172.000000 -0.158860 188.000000 0.481438 16.000000 -0.094683 83.000000 0.321834 116.000000 -0.174155
243252.000000 1.670738 300.000000 230.000000 174.000000 0.032196 209.000000 0.891696 211.000000 1.047637 218.000000 1.550772 16.000000 -0.083793 93.000000 0.184263 124.000000 -0.186505
244576.000000 1.778640 284.000000 207.000000 120.000000 -0.129467 186.000000 0.656446 182.000000 0.320866 189.000000 0.795239 12.000000 -0.028758 84.000000 0.264594 115.000000 -0.150580
245231.000000 1.721337 296.000000 221.000000 152.000000 -0.154751 200.000000 0.762275 190.000000 0.128293 197.000000 0.601162 15.000000 -0.117345 89.000000 0.209612 152.000000 -0.154751
245899.000000 1.750813 276.000000 382.000000 340.000000 -0.146376 361.000000 0.021227 345.000000 -0.149838 352.000000 -0.117754 18.000000 -0.109407 219.000000 2.131569 243.000000 -0.456881
246558.000000 1.767242 277.000000 199.000000 133.000000 -0.146756 178.000000 0.049107 165.000000 -0.089937 172.000000 -0.107319 16.000000 -0.079669 82.000000 0.300897 115.000000 -0.160423
247181.000000 1.697321 262.000000 209.000000 137.000000 -0.144419 161.000000 0.035126 178.000000 -0.166538 183.000000 -0.171461 14.000000 -0.072115 83.000000 0.249861 118.000000 -0.178087
249103.000000 1.714531 260.000000 195.000000 126.000000 -0.183902 148.000000 0.016052 163.000000 -0.127551 180.000000 -0.149339 13.000000 -0.067524 88.000000 0.326145 126.000000 -0.183902
249941.000000 1.958665 216.000000 170.000000 126.000000 -0.150971 149.000000 0.024750 132.000000 -0.144419 139.000000 -0.132382 15.000000 -0.234626 85.000000 0.124514 127.000000 -0.155736
250421.000000 1.685390 310.000000 205.000000 144.000000 -0.117383 169.000000 0.060075 170.000000 0.055373 177.000000 0.002285 16.000000 -0.102040 89.000000 0.241848 119.000000 -0.154875
251064.000000 1.700566 269.000000 206.000000 117.000000 -0.164655 155.000000 0.060454 178.000000 -0.132458 187.000000 0.152823 13.000000 -0.069937 84.000000 0.275265 117.000000 -0.164655
251691.000000 1.729356 268.000000 219.000000 145.000000 -0.156204 165.000000 0.036397 194.000000 -0.134811 200.000000 -0.153025 14.000000 -0.067227 86.000000 0.316209 132.000000 -0.177521
252372.000000 1.704581 299.000000 214.000000 141.000000 -0.162289 193.000000 0.618476 170.000000 0.030906 177.000000 -0.048154 15.000000 -0.102534 89.000000 0.234815 158.000000 -0.063795
253047.000000 1.735689 304.000000 202.000000 120.000000 -0.168652 181.000000 0.221331 182.000000 0.296691 189.000000 0.815030 16.000000 -0.067556 88.000000 0.232491 123.000000 -0.132978
253679.000000 1.783259 266.000000 392.000000 351.000000 -0.125655 371.000000 0.144124 354.000000 -0.125781 361.000000 -0.067113 13.000000 -0.058591 219.000000 2.062981 242.000000 -0.449214
256372.000000 1.739607 309.000000 403.000000 349.000000 -0.152367 382.000000 0.302412 387.000000 0.740469 394.000000 1.239872 15.000000 -0.070032 225.000000 2.088412 274.000000 -0.620491
257082.000000 1.761399 307.000000 381.000000 316.000000 -0.198793 360.000000 0.086881 359.000000 0.037461 366.000000 0.472806 18.000000 -0.090794 204.000000 1.583908 241.000000 -0.615952
257736.000000 1.730126 273.000000 204.000000 139.000000 -0.113258 183.000000 0.410912 174.000000 -0.078978 181.000000 0.276523 15.000000 -0.114985 84.000000 0.304608 112.000000 -0.173699
258429.000000 1.641233 330.000000 211.000000 146.000000 -0.165847 190.000000 0.081958 173.000000 0.025344 180.000000 0.028040 15.000000 -0.065319 95.000000 0.217391 131.000000 -0.192243
259127.000000 1.729002 297.000000 219.000000 149.000000 -0.175691 198.000000 0.441070 188.000000 -0.108602 195.000000 0.256007 15.000000 -0.081626 86.000000 0.252165 158.000000 -0.065972
260445.000000 1.702199 296.000000 224.000000 150.000000 -0.133059 203.000000 0.226097 201.000000 0.065313 208.000000 0.547727 14.000000 -0.087942 94.000000 0.282307 130.000000 -0.150800
262173.000000 1.748250 158.000000 284.000000 129.000000 -0.158909 233.000000 0.102837 255.000000 -0.098013 268.000000 -0.076727 25.000000 -0.256942 20.000000 0.276335 50.000000 -0.556881
262677.000000 2.265257 220.000000 163.000000 121.000000 -0.181552 142.000000 0.057003 144.000000 0.154527 151.000000 0.655042 17.000000 -0.316297 89.000000 -0.051363 108.000000 -0.176018
263146.000000 1.712569 306.000000 213.000000 141.000000 -0.165850 165.000000 0.037113 182.000000 -0.149127 198.000000 0.346878 14.000000 -0.083026 89.000000 0.282334 121.000000 -0.172275
264479.000000 1.669217 289.000000 217.000000 120.000000 -0.222241 196.000000 0.500813 183.000000 0.035656 190.000000 0.173195 16.000000 -0.096724 87.000000 0.239673 125.000000 -0.197131
265214.000000 1.839767 333.000000 205.000000 142.000000 -0.147710 184.000000 0.350924 176.000000 0.040440 183.000000 0.280862 13.000000 -0.055531 90.000000 0.273039 125.000000 -0.152413
266546.000000 1.755093 293.000000 209.000000 153.000000 -0.169845 188.000000 0.103305 171.000000 0.023495 178.000000 -0.047055 15.000000 -0.114578 84.000000 0.259512 117.000000 -0.223543
267257.000000 1.638296 332.000000 215.000000 125.000000 -0.202273 194.000000 0.172835 177.000000 0.054669 184.000000 0.038118 16.000000 -0.076783 93.000000 0.236743 126.000000 -0.230314
268609.000000 1.693812 290.000000 370.000000 329.000000 -0.157286 349.000000 0.059785 333.000000 -0.132066 340.000000 -0.141595 17.000000 -0.123617 210.000000 2.066363 227.000000 -0.465563
269290.000000 1.726659 311.000000 382.000000 193.000000 -0.150925 230.000000 1.085721 248.000000 -0.483430 371.000000 0.919198 17.000000 -0.105959 226.000000 2.132681 248.000000 -0.483430
269973.000000 1.724982 301.000000 225.000000 153.000000 -0.172913 204.000000 0.494487 195.000000 -0.089855 202.000000 0.325051 15.000000 -0.113576 90.000000 0.262804 129.000000 -0.205173
272029.000000 1.767543 310.000000 387.000000 329.000000 -0.174733 366.000000 1.104517 362.000000 0.829845 369.000000 1.290520 15.000000 -0.069573 219.000000 1.625140 247.000000 -0.591539
272716.000000 1.738151 300.000000 206.000000 133.000000 -0.185047 185.000000 0.139749 185.000000 0.139749 192.000000 0.688855 15.000000 -0.115611 90.000000 0.260001 124.000000 -0.207915
273395.000000 1.740256 307.000000 214.000000 144.000000 -0.180142 193.000000 0.123434 199.000000 0.520393 206.000000 1.022758 16.000000 -0.106281 90.000000 0.233057 127.000000 -0.219875
274092.000000 1.727274 307.000000 383.000000 340.000000 -0.128590 362.000000 0.079793 343.000000 -0.171427 350.000000 -0.140157 16.000000 -0.083023 220.000000 1.940940 242.000000 -0.513119
275417.000000 1.780816 435.000000 222.000000 129.000000 -0.199398 168.000000 0.050178 192.000000 -0.167832 200.000000 -0.177267 20.000000 -0.167210 90.000000 0.293309 129.000000 -0.199398
276095.000000 1.736924 282.000000 218.000000 128.000000 -0.194184 197.000000 0.073746 190.000000 -0.143699 197.000000 0.073746 15.000000 -0.090084 90.000000 0.305705 128.000000 -0.194184
277434.000000 1.755155 448.000000 216.000000 148.000000 -0.141079 195.000000 0.396381 192.000000 0.212322 199.000000 0.702965 16.000000 -0.093434 88.000000 0.275142 119.000000 -0.172035
278117.000000 1.809683 303.000000 226.000000 129.000000 -0.227304 205.000000 0.551259 201.000000 0.212450 208.000000 0.708500 15.000000 -0.097763 91.000000 0.267692 129.000000 -0.227304
278805.000000 1.760191 304.000000 196.000000 118.000000 -0.183074 164.000000 0.038758 172.000000 -0.064237 187.000000 0.839603 15.000000 -0.086909 86.000000 0.256615 118.000000 -0.183074
279453.000000 1.741188 278.000000 370.000000 328.000000 -0.175535 349.000000 -0.012809 332.000000 -0.153153 339.000000 -0.134486 14.000000 -0.066415 212.000000 1.979361 234.000000 -0.532425
280148.000000 1.772463 325.000000 203.000000 146.000000 -0.148337 182.000000 0.127914 186.000000 0.277929 193.000000 0.782756 17.000000 -0.124574 87.000000 0.244346 124.000000 -0.165515
281501.000000 1.767743 272.000000 355.000000 307.000000 -0.148132 334.000000 0.007105 332.000000 -0.054384 339.000000 0.299629 14.000000 -0.074860 200.000000 2.112870 227.000000 -0.534982
282859.000000 1.733381 319.000000 202.000000 150.000000 -0.138759 181.000000 0.439269 185.000000 0.749897 192.000000 1.244944 14.000000 -0.118062 90.000000 0.246159 117.000000 -0.161377
283543.000000 1.731414 310.000000 194.000000 135.000000 -0.165345 173.000000 0.070472 158.000000 -0.018964 165.000000 0.024014 14.000000 -0.088195 83.000000 0.272196 118.000000 -0.176176
284182.000000 1.756741 287.000000 224.000000 134.000000 -0.170595 203.000000 0.385515 200.000000 0.220451 207.000000 0.680279 15.000000 -0.072132 92.000000 0.252194 127.000000 -0.175815
286177.000000 1.839580 296.000000 221.000000 182.000000 -0.098370 200.000000 0.832869 202.000000 1.012916 209.000000 1.575894 16.000000 -0.122756 89.000000 0.219267 121.000000 -0.194308
287502.000000 1.775691 272.000000 218.000000 136.000000 -0.180973 197.000000 0.108511 198.000000 0.211129 205.000000 0.656144 17.000000 -0.116471 85.000000 0.293935 122.000000 -0.163796
288879.000000 1.751412 337.000000 378.000000 166.000000 -0.015315 227.000000 0.800968 244.000000 -0.574486 350.000000 -0.154794 13.000000 -0.077163 206.000000 1.594871 244.000000 -0.574486
289531.000000 1.799263 274.000000 210.000000 122.000000 -0.153748 163.000000 0.051158 184.000000 -0.179874 195.000000 0.448119 14.000000 -0.088698 86.000000 0.286788 122.000000 -0.153748
290170.000000 1.783198 278.000000 210.000000 132.000000 -0.166553 189.000000 0.263358 179.000000 -0.148852 186.000000 0.064799 16.000000 -0.097431 88.000000 0.311155 115.000000 -0.186036
291535.000000 1.736893 287.000000 215.000000 160.000000 -0.018373 194.000000 0.657004 187.000000 0.206439 194.000000 0.657004 19.000000 -0.085724 86.000000 0.245562 118.000000 -0.211600
292174.000000 1.759609 275.000000 207.000000 127.000000 -0.169779 186.000000 0.258038 182.000000 -0.006006 189.000000 0.476612 13.000000 -0.066755 83.000000 0.291790 116.000000 -0.184011
292816.000000 1.736976 288.000000 223.000000 148.000000 -0.157068 167.000000 0.039376 192.000000 -0.168271 203.000000 0.080884 15.000000 -0.113981 94.000000 0.250580 128.000000 -0.206207
293205.000000 1.832371 166.000000 283.000000 215.000000 0.012636 234.000000 0.118796 251.000000 -0.091801 269.000000 -0.086222 15.000000 1.177338 20.000000 1.063419 69.000000 -0.629126
294152.000000 1.744375 299.000000 207.000000 125.000000 -0.158903 186.000000 0.590725 186.000000 0.590725 193.000000 1.075583 15.000000 -0.097506 84.000000 0.277369 116.000000 -0.154513
294797.000000 1.733228 281.000000 386.000000 324.000000 -0.180189 365.000000 0.375357 368.000000 0.599777 375.000000 1.264464 15.000000 -0.108950 217.000000 1.950266 241.000000 -0.537416
296132.000000 1.699590 285.000000 204.000000 139.000000 -0.131757 183.000000 0.334846 179.000000 0.071821 186.000000 0.566476 13.000000 -0.047386 86.000000 0.282473 117.000000 -0.162464
297451.000000 1.661051 290.000000 377.000000 281.000000 -0.504218 356.000000 -0.027884 344.000000 -0.152962 351.000000 -0.099576 16.000000 -0.081551 218.000000 2.122991 244.000000 -0.458749
298118.000000 1.709418 290.000000 214.000000 120.000000 -0.188231 193.000000 0.256914 189.000000 0.021945 196.000000 0.451475 17.000000 -0.128794 87.000000 0.264636 120.000000 -0.188231
300130.000000 1.715612 665.000000 211.000000 139.000000 -0.112477 190.000000 0.140865 191.000000 0.220944 198.000000 0.707338 16.000000 -0.095970 85.000000 0.297149 120.000000 -0.140564
301425.000000 1.684265 272.000000 213.000000 144.000000 -0.165010 164.000000 0.037230 180.000000 -0.174542 194.000000 -0.175093 16.000000 -0.111611 87.000000 0.295943 119.000000 -0.173147
301638.000000 2.140422 213.000000 179.000000 133.000000 -0.186806 158.000000 0.477567 146.000000 -0.116430 153.000000 0.085607 15.000000 -0.246460 89.000000 0.026142 117.000000 -0.183670
302081.000000 1.757573 264.000000 215.000000 142.000000 -0.172458 163.000000 0.061211 178.000000 -0.130732 195.000000 -0.167550 16.000000 -0.086783 90.000000 0.361428 128.000000 -0.165547
303408.000000 1.750954 280.000000 219.000000 154.000000 -0.100342 198.000000 0.236726 190.000000 -0.141879 197.000000 0.171240 18.000000 -0.102182 90.000000 0.269104 154.000000 -0.100342
304778.000000 1.686083 313.000000 211.000000 145.000000 -0.155627 190.000000 0.504420 178.000000 -0.099671 185.000000 0.140062 14.000000 -0.071643 88.000000 0.245802 121.000000 -0.171034
305415.000000 1.769598 426.000000 212.000000 123.000000 -0.161067 159.000000 0.037366 181.000000 -0.176974 183.000000 -0.176159 18.000000 -0.108271 84.000000 0.314360 110.000000 -0.134123
306821.000000 1.740251 312.000000 196.000000 143.000000 -0.143869 175.000000 0.060613 174.000000 0.005331 181.000000 0.431631 15.000000 -0.095110 86.000000 0.231616 114.000000 -0.197379
308161.000000 1.785691 297.000000 393.000000 348.000000 -0.128494 372.000000 0.300017 365.000000 -0.027882 372.000000 0.300017 12.000000 -0.094668 227.000000 2.087837 247.000000 -0.478764
309242.000000 1.709721 158.000000 286.000000 222.000000 -0.003982 239.000000 0.103432 250.000000 -0.034452 271.000000 -0.084420 11.000000 1.281947 20.000000 0.803936 51.000000 -0.449969
309528.000000 1.714953 286.000000 204.000000 119.000000 -0.155956 183.000000 0.260170 182.000000 0.185672 189.000000 0.787506 12.000000 -0.059027 85.000000 0.307759 119.000000 -0.155956
310207.000000 1.732571 318.000000 391.000000 188.000000 -0.110357 235.000000 0.059158 246.000000 -0.464619 362.000000 -0.138024 17.000000 -0.116034 227.000000 2.013374 246.000000 -0.464619
310898.000000 1.767089 300.000000 221.000000 139.000000 -0.173261 200.000000 0.638746 203.000000 0.881614 210.000000 1.524232 15.000000 -0.107347 89.000000 0.237479 120.000000 -0.208245
312213.000000 1.717428 281.000000 223.000000 149.000000 -0.146520 202.000000 0.109986 195.000000 -0.145970 202.000000 0.109986 13.000000 -0.075362 89.000000 0.295909 122.000000 -0.196549
312910.000000 1.719889 301.000000 214.000000 143.000000 -0.156673 166.000000 0.029487 187.000000 -0.177914 199.000000 0.308653 14.000000 -0.103998 87.000000 0.274487 115.000000 -0.215919
313547.000000 1.640719 262.000000 210.000000 131.000000 -0.200487 159.000000 0.005922 163.000000 -0.012887 192.000000 -0.231898 12.000000 -0.071648 86.000000 0.325188 120.000000 -0.184326
314398.000000 1.558358 228.000000 192.000000 131.000000 -0.174469 171.000000 0.145816 167.000000 -0.012335 174.000000 0.383120 15.000000 -0.087066 83.000000 0.218543 119.000000 -0.197181
315591.000000 1.721583 331.000000 218.000000 169.000000 -0.129437 197.000000 0.352208 194.000000 0.133539 201.000000 0.522004 14.000000 -0.004873 90.000000 0.265347 125.000000 -0.135204
316910.000000 1.708981 252.000000 209.000000 135.000000 -0.152033 163.000000 0.007119 175.000000 -0.146751 192.000000 -0.161281 16.000000 -0.101208 91.000000 0.352810 135.000000 -0.152033
317119.000000 1.552478 209.000000 195.000000 124.000000 -0.196034 151.000000 0.002412 158.000000 -0.144626 178.000000 -0.157933 16.000000 -0.202819 85.000000 0.304467 124.000000 -0.196034
317314.000000 1.602507 195.000000 192.000000 118.000000 -0.172087 140.000000 -0.012353 158.000000 -0.176916 177.000000 -0.176867 15.000000 -0.133607 83.000000 0.342319 122.000000 -0.191946
317506.000000 1.572382 192.000000 194.000000 119.000000 -0.132289 143.000000 0.012225 160.000000 -0.127836 178.000000 -0.136818 15.000000 -0.145847 83.000000 0.318150 119.000000 -0.132289
317700.000000 1.638353 194.000000 204.000000 134.000000 -0.142895 152.000000 0.012275 170.000000 -0.118698 186.000000 -0.128481 14.000000 -0.118354 82.000000 0.296401 116.000000 -0.144351
317904.000000 1.569245 204.000000 211.000000 136.000000 -0.137274 166.000000 0.039495 175.000000 -0.145035 194.000000 -0.166492 14.000000 -0.125818 84.000000 0.277538 125.000000 -0.149938
318115.000000 1.727301 211.000000 200.000000 133.000000 -0.179089 152.000000 0.006256 165.000000 -0.103165 183.000000 -0.136893 15.000000 -0.138483 80.000000 0.267068 119.000000 -0.213135
318315.000000 1.640724 200.000000 201.000000 129.000000 -0.204200 156.000000 -0.006049 173.000000 -0.145798 185.000000 -0.163259 14.000000 -0.108556 78.000000 0.298891 112.000000 -0.197678
318516.000000 1.608310 201.000000 222.000000 145.000000 -0.170361 171.000000 0.081017 193.000000 -0.179640 204.000000 0.217521 13.000000 -0.140608 82.000000 0.247870 116.000000 -0.179735
319202.000000 1.619905 308.000000 218.000000 143.000000 -0.162477 169.000000 0.055205 200.000000 -0.159089 203.000000 -0.192867 14.000000 -0.054296 97.000000 0.332931 128.000000 -0.123261
319420.000000 1.925991 218.000000 163.000000 114.000000 -0.145233 142.000000 0.122115 136.000000 -0.057728 143.000000 0.177037 13.000000 -0.216251 82.000000 0.141068 117.000000 -0.154183
319822.000000 1.636114 239.000000 196.000000 121.000000 -0.150016 145.000000 0.011381 168.000000 -0.143620 181.000000 -0.141175 15.000000 -0.066158 84.000000 0.358950 112.000000 -0.135455
320628.000000 1.711144 254.000000 220.000000 145.000000 -0.138872 171.000000 0.037303 194.000000 -0.150723 205.000000 -0.159123 13.000000 -0.123181 88.000000 0.404844 127.000000 -0.138167
320848.000000 1.613073 220.000000 215.000000 177.000000 -0.161617 194.000000 0.282771 177.000000 -0.161617 184.000000 -0.207228 14.000000 -0.100029 83.000000 0.272715 114.000000 -0.203056
321269.000000 1.714170 206.000000 208.000000 134.000000 -0.207757 161.000000 -0.011770 177.000000 -0.161333 193.000000 -0.182306 12.000000 -0.095126 84.000000 0.348230 134.000000 -0.207757
321685.000000 2.027056 208.000000 167.000000 116.000000 -0.136002 146.000000 0.137004 133.000000 -0.115816 140.000000 0.000751 16.000000 -0.246188 81.000000 0.181647 106.000000 -0.104434
322279.000000 1.625301 196.000000 193.000000 123.000000 -0.159621 147.000000 -0.013227 158.000000 -0.167348 175.000000 -0.164308 19.000000 -0.178851 81.000000 0.282748 117.000000 -0.145372
323082.000000 1.513888 217.000000 239.000000 129.000000 -0.220545 218.000000 0.185409 209.000000 -0.146598 216.000000 0.055173 16.000000 -0.120204 89.000000 0.206914 129.000000 -0.220545
323809.000000 1.666960 322.000000 202.000000 119.000000 -0.258008 181.000000 0.129173 186.000000 0.396570 193.000000 0.893058 15.000000 -0.054935 81.000000 0.125690 119.000000 -0.258008
324464.000000 1.723417 281.000000 208.000000 124.000000 -0.290925 160.000000 0.141723 181.000000 -0.012792 189.000000 -0.155989 14.000000 -0.213605 80.000000 0.239437 124.000000 -0.290925
324672.000000 2.150235 208.000000 165.000000 114.000000 -0.179813 143.000000 0.114779 148.000000 0.269027 155.000000 0.751253 18.000000 -0.185956 77.000000 0.207397 114.000000 -0.179813
324837.000000 1.598997 165.000000 249.000000 150.000000 -0.180927 174.000000 0.289355 183.000000 -0.046397 232.000000 -0.290237 10.000000 1.122209 136.000000 0.272975 151.000000 -0.163717
325086.000000 1.404606 249.000000 214.000000 140.000000 -0.170737 168.000000 0.010549 189.000000 -0.178307 192.000000 -0.208055 14.000000 0.048196 80.000000 0.943085 95.000000 0.197803
325300.000000 1.616285 214.000000 216.000000 94.000000 0.037572 131.000000 0.003922 145.000000 -0.137630 197.000000 -0.226848 15.000000 -0.155595 110.000000 0.413012 145.000000 -0.137630
325996.000000 1.913353 299.000000 218.000000 127.000000 -0.161109 164.000000 0.064816 191.000000 -0.171596 196.000000 -0.209652 6.000000 0.337678 91.000000 0.279075 127.000000 -0.161109
327279.000000 1.688859 270.000000 224.000000 147.000000 -0.150311 170.000000 0.022773 189.000000 -0.154123 206.000000 -0.167367 15.000000 -0.080389 88.000000 0.341397 126.000000 -0.179307
327961.000000 1.690224 458.000000 214.000000 144.000000 -0.181660 166.000000 0.031443 182.000000 -0.171268 199.000000 -0.150595 14.000000 -0.075968 83.000000 0.373075 144.000000 -0.181660
329708.000000 1.887964 223.000000 168.000000 123.000000 -0.158056 147.000000 0.054278 130.000000 -0.142507 137.000000 -0.126677 15.000000 -0.221848 82.000000 0.206193 123.000000 -0.158056
330808.000000 1.776683 231.000000 219.000000 138.000000 -0.161822 165.000000 0.016880 191.000000 -0.186082 204.000000 -0.178777 15.000000 -0.060824 80.000000 0.407617 129.000000 -0.150003
331027.000000 1.638135 219.000000 208.000000 113.000000 -0.191426 187.000000 0.251176 185.000000 0.175408 192.000000 0.528605 14.000000 -0.141158 84.000000 0.246726 113.000000 -0.191426
332497.000000 1.706079 305.000000 216.000000 147.000000 -0.163182 195.000000 0.614251 196.000000 0.674596 203.000000 1.107089 15.000000 -0.110942 85.000000 0.239467 147.000000 -0.163182
333218.000000 1.715160 320.000000 198.000000 148.000000 -0.162145 177.000000 0.116760 181.000000 0.312857 188.000000 0.748374 13.000000 -0.065890 89.000000 0.292429 126.000000 -0.149090
333893.000000 1.674683 305.000000 232.000000 142.000000 -0.178150 211.000000 0.048133 196.000000 -0.136881 203.000000 -0.162195 16.000000 -0.110913 93.000000 0.302645 134.000000 -0.185141
336941.000000 1.714422 302.000000 204.000000 124.000000 -0.167334 183.000000 0.129764 183.000000 0.129764 190.000000 0.566034 16.000000 -0.090296 89.000000 0.310422 124.000000 -0.167334
337401.000000 1.697927 256.000000 225.000000 141.000000 -0.197856 169.000000 -0.014955 195.000000 -0.183260 210.000000 -0.122885 15.000000 -0.094643 78.000000 0.397097 121.000000 -0.159297
339089.000000 1.722755 328.000000 211.000000 142.000000 -0.164155 190.000000 0.364014 181.000000 0.025956 188.000000 0.253231 14.000000 -0.073295 89.000000 0.269274 142.000000 -0.164155
339555.000000 1.745512 255.000000 217.000000 145.000000 -0.176365 167.000000 -0.017586 187.000000 -0.153104 200.000000 -0.168340 14.000000 -0.072248 84.000000 0.408255 126.000000 -0.195816
339772.000000 1.639624 217.000000 204.000000 118.000000 -0.182508 161.000000 0.042898 162.000000 0.037067 176.000000 -0.127009 14.000000 -0.144720 78.000000 0.353024 118.000000 -0.182508
340144.000000 1.838188 168.000000 308.000000 149.000000 -0.098735 192.000000 0.090311 240.000000 0.014246 290.000000 -0.136852 14.000000 1.266918 20.000000 1.147389 78.000000 -0.711788
341209.000000 1.765077 359.000000 203.000000 155.000000 -0.155516 182.000000 0.224547 173.000000 -0.098840 180.000000 0.098810 15.000000 -0.075206 92.000000 0.259828 128.000000 -0.170798
342568.000000 1.736899 273.000000 224.000000 151.000000 -0.202966 167.000000 0.012176 193.000000 -0.181962 210.000000 -0.151695 15.000000 -0.071971 95.000000 0.378069 128.000000 -0.170945
342792.000000 1.638352 224.000000 190.000000 142.000000 -0.166664 169.000000 0.559416 174.000000 0.949181 181.000000 1.428366 14.000000 -0.214861 88.000000 0.230627 125.000000 -0.180206
344478.000000 1.553792 215.000000 254.000000 176.000000 -0.135057 197.000000 0.034392 210.000000 -0.151564 237.000000 -0.158229 17.000000 -0.111523 89.000000 0.364702 125.000000 -0.123083
344732.000000 1.575859 254.000000 242.000000 142.000000 -0.126615 183.000000 0.013699 203.000000 -0.181897 226.000000 -0.130252 16.000000 -0.089911 86.000000 0.284383 123.000000 -0.167322
346427.000000 1.692915 335.000000 191.000000 136.000000 -0.166677 170.000000 0.077571 172.000000 0.133575 179.000000 0.612008 12.000000 -0.036333 78.000000 0.251816 115.000000 -0.175690
347089.000000 1.625987 294.000000 234.000000 147.000000 -0.198545 179.000000 0.028100 203.000000 -0.163641 211.000000 -0.186729 13.000000 -0.086035 92.000000 0.277601 133.000000 -0.202855
348510.000000 1.584878 331.000000 192.000000 150.000000 -0.127383 171.000000 0.165204 157.000000 -0.073606 164.000000 0.007022 15.000000 -0.105357 88.000000 0.251208 119.000000 -0.127712
349236.000000 1.610365 337.000000 212.000000 122.000000 -0.168965 191.000000 0.516470 191.000000 0.516470 198.000000 0.979652 15.000000 -0.084509 92.000000 0.272999 123.000000 -0.172477
349970.000000 1.719391 337.000000 199.000000 155.000000 -0.116800 178.000000 0.136902 165.000000 -0.079166 172.000000 0.024628 18.000000 -0.110358 89.000000 0.309218 122.000000 -0.173524
351133.000000 1.616556 271.000000 254.000000 176.000000 -0.118952 199.000000 -0.036834 226.000000 -0.201897 237.000000 -0.170015 15.000000 -0.092895 90.000000 0.418871 139.000000 -0.125835
351387.000000 1.553792 254.000000 222.000000 177.000000 -0.110080 201.000000 0.318949 197.000000 0.088149 204.000000 0.499686 17.000000 -0.114203 93.000000 0.216360 127.000000 -0.267321
352133.000000 1.505012 237.000000 214.000000 169.000000 -0.100973 193.000000 0.168182 193.000000 0.168182 200.000000 0.618261 12.000000 -0.091508 81.000000 0.236347 117.000000 -0.173168
352628.000000 1.718415 281.000000 213.000000 152.000000 -0.188557 192.000000 0.091696 197.000000 0.413843 204.000000 0.828216 13.000000 -0.056444 83.000000 0.271833 118.000000 -0.211537
353360.000000 1.640050 355.000000 205.000000 139.000000 -0.132024 184.000000 0.211501 184.000000 0.211501 191.000000 0.571766 15.000000 -0.127488 89.000000 0.235285 127.000000 -0.183544
354056.000000 1.635580 274.000000 225.000000 144.000000 -0.150020 168.000000 0.025579 194.000000 -0.195895 209.000000 -0.169532 13.000000 -0.068339 89.000000 0.358477 127.000000 -0.154409
354970.000000 1.641391 303.000000 196.000000 151.000000 -0.151630 175.000000 0.202335 155.000000 -0.121567 162.000000 -0.089623 12.000000 -0.059330 87.000000 0.274999 119.000000 -0.137306
355743.000000 1.700705 369.000000 208.000000 149.000000 -0.131613 187.000000 0.522134 188.000000 0.587103 195.000000 1.052433 16.000000 -0.076444 90.000000 0.249234 122.000000 -0.178384
356236.000000 1.587022 285.000000 230.000000 151.000000 -0.164250 173.000000 0.019528 200.000000 -0.205722 216.000000 -0.176020 14.000000 -0.062995 84.000000 0.377333 126.000000 -0.118921
356466.000000 1.527306 230.000000 230.000000 152.000000 -0.163102 209.000000 0.330264 200.000000 -0.123559 207.000000 0.189481 14.000000 -0.080671 87.000000 0.246226 177.000000 -0.020924
357156.000000 1.586978 228.000000 187.000000 137.000000 -0.158669 166.000000 0.043884 157.000000 -0.125849 164.000000 -0.028483 16.000000 -0.128445 84.000000 0.255691 109.000000 -0.193401
357661.000000 1.660720 318.000000 237.000000 129.000000 -0.245799 216.000000 0.186712 215.000000 0.126163 222.000000 0.525208 13.000000 -0.069438 92.000000 0.240405 129.000000 -0.245799
359069.000000 1.600844 267.000000 213.000000 138.000000 -0.112603 161.000000 0.041347 185.000000 -0.124780 192.000000 -0.134089 13.000000 -0.065253 89.000000 0.331378 117.000000 -0.144500
359748.000000 1.651540 304.000000 215.000000 133.000000 -0.209702 194.000000 0.115957 177.000000 0.060753 184.000000 0.022681 13.000000 -0.079527 93.000000 0.226067 125.000000 -0.218479
360481.000000 1.687191 318.000000 208.000000 153.000000 -0.148446 187.000000 0.038814 189.000000 0.149597 196.000000 0.592465 14.000000 -0.010052 92.000000 0.256360 122.000000 -0.187163
360930.000000 1.756535 241.000000 228.000000 179.000000 -0.175907 203.000000 -0.103429 211.000000 -0.125704 211.000000 -0.125704 15.000000 0.013338 81.000000 0.426175 127.000000 -0.187080
361864.000000 1.617341 237.000000 215.000000 172.000000 -0.117400 194.000000 0.263637 196.000000 0.339906 203.000000 0.739513 12.000000 -0.155416 89.000000 0.269002 119.000000 -0.209747
362368.000000 1.606739 289.000000 243.000000 150.000000 -0.160267 193.000000 -0.048275 221.000000 -0.224405 222.000000 -0.213794 15.000000 -0.087636 84.000000 0.448213 150.000000 -0.160267
363744.000000 1.794156 230.000000 203.000000 129.000000 -0.146317 149.000000 0.040016 174.000000 -0.175486 189.000000 -0.204624 13.000000 -0.099465 77.000000 0.423777 113.000000 -0.106222
363947.000000 1.545047 203.000000 218.000000 130.000000 -0.162114 162.000000 0.009595 177.000000 -0.182819 198.000000 -0.071076 12.000000 -0.128089 83.000000 0.331080 115.000000 -0.182428
366098.000000 1.576681 164.000000 225.000000 175.000000 -0.202253 202.000000 -0.114765 208.000000 -0.112086 211.000000 -0.130660 15.000000 0.026618 85.000000 0.335569 119.000000 -0.124934
366323.000000 1.699245 225.000000 235.000000 155.000000 -0.153592 180.000000 -0.083795 190.000000 -0.159015 220.000000 -0.151930 12.000000 -0.056524 85.000000 0.258741 124.000000 -0.168452
366558.000000 1.783699 235.000000 176.000000 137.000000 -0.144360 155.000000 0.149181 149.000000 -0.054941 156.000000 0.197002 15.000000 -0.167509 89.000000 0.195627 114.000000 -0.149765
367081.000000 1.413311 143.000000 235.000000 156.000000 -0.172459 179.000000 0.002588 198.000000 -0.167475 222.000000 -0.134435 13.000000 -0.061252 83.000000 0.339641 119.000000 -0.100280
368030.000000 1.675294 310.000000 198.000000 145.000000 -0.128402 177.000000 0.437273 180.000000 0.603559 187.000000 1.046709 13.000000 -0.085881 77.000000 0.230687 108.000000 -0.165877
368756.000000 1.657496 337.000000 214.000000 126.000000 -0.199060 193.000000 0.140373 194.000000 0.170890 201.000000 0.644620 14.000000 -0.073898 94.000000 0.250584 131.000000 -0.190580
369211.000000 1.708352 241.000000 221.000000 143.000000 -0.176067 167.000000 0.015439 187.000000 -0.181632 206.000000 -0.177808 15.000000 -0.080896 84.000000 0.348743 128.000000 -0.195533
369432.000000 1.672301 221.000000 391.000000 347.000000 -0.142428 370.000000 0.102729 368.000000 0.021709 375.000000 0.429344 16.000000 -0.163796 220.000000 2.265912 238.000000 -0.360670
370145.000000 1.663370 322.000000 199.000000 141.000000 -0.123948 178.000000 0.404250 179.000000 0.484783 186.000000 1.002981 15.000000 -0.085441 85.000000 0.280859 113.000000 -0.152695
371533.000000 1.733593 238.000000 219.000000 147.000000 -0.222724 168.000000 0.005016 185.000000 -0.160924 200.000000 -0.171708 16.000000 -0.102756 84.000000 0.390102 123.000000 -0.202910
372444.000000 1.570294 218.000000 212.000000 120.000000 -0.242302 191.000000 0.189714 190.000000 0.139557 197.000000 0.530685 15.000000 -0.116788 86.000000 0.222493 124.000000 -0.270391
373192.000000 1.674542 246.000000 210.000000 167.000000 -0.114780 189.000000 0.321908 192.000000 0.503475 199.000000 0.947331 15.000000 -0.071243 88.000000 0.227975 126.000000 -0.210281
373686.000000 1.651009 284.000000 251.000000 177.000000 -0.111739 194.000000 -0.019308 216.000000 -0.184480 233.000000 -0.166599 17.000000 -0.088190 87.000000 0.390973 139.000000 -0.135332
373937.000000 1.601344 251.000000 200.000000 154.000000 -0.138435 179.000000 0.203743 162.000000 -0.117761 169.000000 -0.071399 17.000000 -0.086838 81.000000 0.245481 117.000000 -0.177840
375094.000000 1.636017 267.000000 243.000000 165.000000 -0.132621 191.000000 0.023274 214.000000 -0.175253 223.000000 -0.178167 15.000000 -0.073749 94.000000 0.355031 135.000000 -0.151333
376767.000000 1.892838 219.000000 179.000000 120.000000 -0.140843 158.000000 0.008714 160.000000 0.085768 167.000000 0.648605 17.000000 -0.202414 85.000000 0.226272 120.000000 -0.140843
377285.000000 1.565880 173.000000 232.000000 149.000000 -0.140401 179.000000 0.010692 206.000000 -0.159776 213.000000 -0.157002 13.000000 0.036006 82.000000 0.291323 119.000000 -0.129053
377517.000000 1.596150 232.000000 230.000000 152.000000 -0.159652 180.000000 0.024158 208.000000 -0.188023 213.000000 -0.169716 16.000000 -0.136798 91.000000 0.254187 130.000000 -0.188900
379195.000000 1.756896 299.000000 224.000000 170.000000 -0.113368 203.000000 0.024283 207.000000 0.244535 214.000000 0.685726 16.000000 -0.059530 93.000000 0.249278 124.000000 -0.189092
379908.000000 1.608654 301.000000 210.000000 139.000000 -0.134762 189.000000 0.343297 171.000000 -0.081768 178.000000 -0.119196 14.000000 -0.071438 88.000000 0.289989 116.000000 -0.171188
381391.000000 1.705561 264.000000 242.000000 203.000000 -0.170769 221.000000 0.517665 216.000000 0.164561 223.000000 0.624060 13.000000 -0.072669 81.000000 0.296752 131.000000 -0.207447
382174.000000 1.661431 371.000000 199.000000 153.000000 -0.139029 178.000000 0.169309 182.000000 0.375234 189.000000 0.756330 15.000000 -0.080434 91.000000 0.243278 135.000000 -0.139686
382627.000000 1.686534 254.000000 222.000000 138.000000 -0.155203 166.000000 0.057868 188.000000 -0.151115 208.000000 -0.112857 13.000000 -0.070441 83.000000 0.407002 129.000000 -0.115658
382849.000000 1.608317 222.000000 202.000000 150.000000 -0.158808 181.000000 0.105420 180.000000 0.074778 187.000000 0.389496 14.000000 -0.084818 82.000000 0.250060 111.000000 -0.200611
383785.000000 1.542054 241.000000 213.000000 171.000000 -0.114843 192.000000 0.300159 199.000000 0.658654 206.000000 1.087244 18.000000 -0.109292 88.000000 0.252088 124.000000 -0.207789
384284.000000 1.635047 286.000000 253.000000 152.000000 -0.149282 195.000000 -0.050565 212.000000 -0.148858 233.000000 -0.137462 17.000000 -0.060941 87.000000 0.441643 123.000000 -0.138783
384537.000000 1.604561 253.000000 208.000000 122.000000 -0.174731 187.000000 0.256602 177.000000 -0.078461 184.000000 0.045128 17.000000 -0.109735 87.000000 0.279028 122.000000 -0.174731
385044.000000 1.607378 299.000000 219.000000 173.000000 -0.190279 198.000000 -0.082520 195.000000 -0.118067 202.000000 -0.097034 13.000000 -0.030930 84.000000 0.370451 119.000000 -0.141268
385263.000000 1.632995 219.000000 175.000000 129.000000 -0.135092 154.000000 0.036130 141.000000 -0.103995 148.000000 -0.089418 13.000000 -0.087255 80.000000 0.298684 101.000000 -0.196362
385989.000000 1.634391 209.000000 254.000000 189.000000 -0.146111 233.000000 -0.010386 222.000000 -0.197895 229.000000 -0.091059 11.000000 -0.105673 87.000000 0.297540 129.000000 -0.200797
387482.000000 1.618134 221.000000 213.000000 127.000000 -0.176552 192.000000 0.746163 195.000000 1.006901 202.000000 1.599472 13.000000 -0.112980 76.000000 0.223290 106.000000 -0.210440
387937.000000 1.665469 242.000000 257.000000 178.000000 -0.115240 202.000000 0.006423 216.000000 -0.123795 241.000000 -0.144706 16.000000 -0.064141 88.000000 0.425073 129.000000 -0.179726
388194.000000 1.666391 257.000000 228.000000 175.000000 -0.063498 207.000000 1.230010 207.000000 1.230010 214.000000 1.259194 14.000000 -0.078861 84.000000 0.261094 123.000000 -0.222132
388723.000000 1.659783 301.000000 246.000000 172.000000 -0.134498 192.000000 -0.022710 209.000000 -0.145498 231.000000 -0.181674 16.000000 -0.102285 90.000000 0.375316 133.000000 -0.171065
388969.000000 1.911272 246.000000 169.000000 118.000000 -0.144088 148.000000 -0.028070 132.000000 -0.148289 139.000000 -0.138070 15.000000 -0.171753 83.000000 0.277683 125.000000 -0.133602
389473.000000 1.476767 162.000000 229.000000 151.000000 -0.151770 180.000000 -0.014246 196.000000 -0.173273 213.000000 -0.167943 14.000000 0.002111 82.000000 0.336017 111.000000 -0.106565
389702.000000 1.689363 229.000000 221.000000 150.000000 -0.163074 200.000000 0.143640 204.000000 0.425961 211.000000 0.800303 14.000000 -0.108675 90.000000 0.162384 118.000000 -0.211508
390190.000000 1.654323 267.000000 245.000000 149.000000 -0.132603 189.000000 0.014246 215.000000 -0.183527 231.000000 -0.136081 15.000000 -0.039660 87.000000 0.419305 130.000000 -0.145267
390435.000000 1.500268 245.000000 518.000000 444.000000 -0.062274 466.000000 0.049105 484.000000 -0.091898 501.000000 -0.103702 13.000000 -0.138414 215.000000 1.402065 254.000000 -0.410281
391707.000000 1.679586 303.000000 230.000000 151.000000 -0.186490 179.000000 -0.015533 193.000000 -0.152038 213.000000 -0.157960 17.000000 -0.079410 83.000000 0.361562 123.000000 -0.156223
391937.000000 1.957823 230.000000 177.000000 130.000000 -0.164122 156.000000 0.020753 156.000000 0.020753 163.000000 0.462086 16.000000 -0.161034 81.000000 0.185049 114.000000 -0.160783
392732.000000 1.631618 264.000000 221.000000 153.000000 -0.141991 200.000000 0.080035 180.000000 -0.024073 187.000000 0.018983 12.000000 -0.038505 89.000000 0.218782 153.000000 -0.141991
393220.000000 1.653304 267.000000 234.000000 160.000000 -0.160161 183.000000 -0.020380 198.000000 -0.194362 218.000000 -0.144394 14.000000 -0.070568 82.000000 0.365608 127.000000 -0.179752
393454.000000 1.613710 234.000000 206.000000 120.000000 -0.219433 185.000000 0.279407 186.000000 0.329438 193.000000 0.704625 16.000000 -0.079849 82.000000 0.249636 120.000000 -0.219433
393944.000000 1.597198 284.000000 232.000000 156.000000 -0.174609 180.000000 0.006364 198.000000 -0.164262 215.000000 -0.156596 14.000000 -0.046674 77.000000 0.376680 156.000000 -0.174609
394907.000000 1.600780 248.000000 218.000000 171.000000 -0.063857 197.000000 0.307633 196.000000 0.252148 203.000000 0.735988 14.000000 -0.061100 88.000000 0.229764 122.000000 -0.205172
395427.000000 1.624781 302.000000 233.000000 153.000000 -0.163481 179.000000 -0.014232 212.000000 -0.175986 219.000000 -0.159620 17.000000 -0.093026 89.000000 0.366127 121.000000 -0.121005
395660.000000 1.612966 233.000000 199.000000 151.000000 -0.110045 178.000000 0.189281 182.000000 0.380049 189.000000 0.781319 15.000000 -0.131611 79.000000 0.292136 115.000000 -0.173713
396361.000000 1.573462 223.000000 220.000000 171.000000 -0.120578 199.000000 0.415866 200.000000 0.475882 207.000000 0.856275 15.000000 -0.098261 89.000000 0.218528 125.000000 -0.271803
397110.000000 1.612788 244.000000 205.000000 115.000000 -0.193636 184.000000 0.178024 184.000000 0.178024 191.000000 0.570170 14.000000 -0.055661 86.000000 0.245736 115.000000 -0.193636
397602.000000 1.719622 287.000000 241.000000 166.000000 -0.129878 183.000000 0.018149 204.000000 -0.195755 222.000000 -0.172982 16.000000 -0.103452 87.000000 0.419713 123.000000 -0.149752
397843.000000 1.643475 241.000000 198.000000 159.000000 -0.107570 177.000000 0.202427 169.000000 -0.016223 176.000000 0.171943 15.000000 -0.097450 80.000000 0.277569 118.000000 -0.181129
398311.000000 1.722139 270.000000 227.000000 155.000000 -0.180626 175.000000 -0.033289 194.000000 -0.185374 211.000000 -0.163824 13.000000 -0.060778 80.000000 0.374190 122.000000 -0.126518
398538.000000 1.604124 227.000000 213.000000 147.000000 -0.168763 192.000000 0.243948 194.000000 0.349544 201.000000 0.736377 13.000000 -0.100439 87.000000 0.261129 121.000000 -0.215783
401199.000000 1.644661 300.000000 246.000000 156.000000 -0.131066 186.000000 -0.006598 213.000000 -0.202725 231.000000 -0.170106 15.000000 -0.096403 90.000000 0.378734 127.000000 -0.151380
401445.000000 1.600895 246.000000 201.000000 145.000000 -0.148182 180.000000 0.285434 183.000000 0.435748 190.000000 0.831154 15.000000 -0.101752 85.000000 0.271461 121.000000 -0.177303
402176.000000 1.678949 351.000000 194.000000 147.000000 -0.111051 173.000000 0.163903 169.000000 0.111003 176.000000 0.311082 12.000000 -0.052101 86.000000 0.280877 118.000000 -0.176177
403323.000000 1.675531 263.000000 245.000000 140.000000 -0.164824 187.000000 -0.020562 208.000000 -0.219795 228.000000 -0.162774 13.000000 -0.035802 90.000000 0.364422 140.000000 -0.164824
404072.000000 1.756961 302.000000 239.000000 154.000000 -0.165814 218.000000 0.222007 207.000000 -0.160046 214.000000 -0.044937 17.000000 -0.111505 86.000000 0.343072 121.000000 -0.225549
404807.000000 1.573437 159.000000 266.000000 213.000000 -0.202820 240.000000 -0.094703 245.000000 -0.099045 246.000000 -0.098152 15.000000 0.054958 77.000000 0.476120 115.000000 -0.112081
405616.000000 1.686397 342.000000 229.000000 133.000000 -0.184548 208.000000 0.081003 213.000000 0.412335 220.000000 0.829625 15.000000 -0.096097 97.000000 0.226032 133.000000 -0.184548
406113.000000 1.707793 268.000000 236.000000 145.000000 -0.156330 183.000000 -0.020203 201.000000 -0.168323 217.000000 -0.148700 15.000000 -0.028007 85.000000 0.428075 122.000000 -0.138338
406349.000000 1.622206 236.000000 206.000000 114.000000 -0.184500 185.000000 0.315562 188.000000 0.501612 195.000000 0.989419 17.000000 -0.111791 83.000000 0.275170 118.000000 -0.210269
406803.000000 1.774142 248.000000 223.000000 147.000000 -0.176802 169.000000 -0.009718 189.000000 -0.197226 206.000000 -0.151364 12.000000 -0.027378 80.000000 0.418296 117.000000 -0.176737
407026.000000 1.615784 223.000000 207.000000 135.000000 -0.167099 186.000000 0.192604 187.000000 0.257980 194.000000 0.705848 15.000000 -0.110393 85.000000 0.301394 113.000000 -0.178825
407543.000000 1.650866 310.000000 246.000000 154.000000 -0.159841 187.000000 -0.014369 211.000000 -0.170528 227.000000 -0.153913 13.000000 -0.072206 89.000000 0.397117 130.000000 -0.175251
408277.000000 1.643240 283.000000 243.000000 148.000000 -0.151901 184.000000 -0.030896 211.000000 -0.189295 228.000000 -0.159264 17.000000 -0.068922 89.000000 0.381548 125.000000 -0.166038
408520.000000 1.649106 243.000000 200.000000 135.000000 -0.180294 179.000000 0.164232 181.000000 0.279388 188.000000 0.669325 13.000000 -0.072947 80.000000 0.273120 135.000000 -0.180294
408975.000000 1.685613 255.000000 219.000000 120.000000 -0.159407 165.000000 0.020015 184.000000 -0.177666 202.000000 -0.163887 16.000000 -0.115547 80.000000 0.427257 123.000000 -0.120159
409194.000000 1.608763 219.000000 211.000000 114.000000 -0.213228 190.000000 0.163355 193.000000 0.304326 200.000000 0.661630 15.000000 -0.141285 83.000000 0.247431 117.000000 -0.256238
409671.000000 1.711411 266.000000 246.000000 141.000000 -0.159094 189.000000 0.009763 210.000000 -0.223591 231.000000 -0.142007 16.000000 -0.082683 93.000000 0.411783 141.000000 -0.159094
411087.000000 1.665456 265.000000 213.000000 148.000000 -0.168747 166.000000 0.017540 187.000000 -0.154061 199.000000 -0.152572 14.000000 -0.069592 87.000000 0.373177 132.000000 -0.194612
411300.000000 1.605217 213.000000 221.000000 180.000000 -0.094064 200.000000 0.941720 202.000000 1.056876 209.000000 1.467927 13.000000 -0.117605 79.000000 0.253132 114.000000 -0.204453
411745.000000 1.732130 224.000000 238.000000 156.000000 -0.125912 180.000000 0.019982 202.000000 -0.170239 221.000000 -0.158216 15.000000 -0.073607 89.000000 0.401296 138.000000 -0.135144
411983.000000 1.583605 238.000000 217.000000 153.000000 -0.150722 196.000000 0.169766 170.000000 -0.087744 177.000000 -0.104562 17.000000 -0.122258 91.000000 0.245250 153.000000 -0.150722
412468.000000 1.712549 268.000000 236.000000 149.000000 -0.181899 177.000000 -0.005094 199.000000 -0.183964 222.000000 -0.157133 14.000000 -0.055758 86.000000 0.392817 126.000000 -0.152149
412704.000000 1.632977 236.000000 203.000000 133.000000 -0.168434 182.000000 0.190379 184.000000 0.266053 191.000000 0.688843 14.000000 -0.080533 85.000000 0.303996 124.000000 -0.194015
