9423.000000 1.343938 227.000000 236.000000 123.000000 0.162349 145.000000 0.213167 177.000000 -0.055294 214.000000 -0.076751 26.000000 -0.651223 133.000000 0.198964 137.000000 0.167037
9902.000000 1.427646 243.000000 245.000000 64.000000 -0.336473 147.000000 0.203842 155.000000 0.158514 222.000000 -0.088086 27.000000 -0.621316 146.000000 0.206711 155.000000 0.158514
11310.000000 1.632727 236.000000 238.000000 122.000000 0.056752 160.000000 0.209967 178.000000 -0.026022 226.000000 0.491066 17.000000 -0.201931 141.000000 0.114056 178.000000 -0.026022
12765.000000 1.423699 489.000000 231.000000 125.000000 0.112131 145.000000 0.189152 169.000000 -0.005157 222.000000 0.586677 26.000000 -0.661315 115.000000 0.160894 125.000000 0.112131
13228.000000 1.507608 232.000000 235.000000 123.000000 0.099173 157.000000 0.181680 183.000000 -0.044482 212.000000 -0.023321 24.000000 -0.640152 139.000000 0.158795 149.000000 0.143575
13924.000000 0.708353 209.000000 287.000000 176.000000 0.003573 198.000000 0.066427 234.000000 -0.175689 265.000000 -0.127269 31.000000 -0.942649 109.000000 0.581850 176.000000 0.003573
15201.000000 1.562701 244.000000 235.000000 124.000000 0.087134 145.000000 0.172886 188.000000 -0.039527 214.000000 -0.061314 26.000000 -0.570808 109.000000 0.165882 124.000000 0.087134
15669.000000 1.685889 233.000000 248.000000 143.000000 0.060035 164.000000 0.198120 185.000000 -0.070282 226.000000 -0.064642 25.000000 -0.662197 115.000000 0.112822 134.000000 0.072431
16437.000000 1.557152 257.000000 248.000000 131.000000 0.046555 164.000000 0.211712 190.000000 -0.055796 225.000000 -0.043490 27.000000 -0.632143 117.000000 0.121789 131.000000 0.046555
18154.000000 1.703195 252.000000 774.000000 498.000000 -0.035545 523.000000 1.461162 562.000000 -0.421147 750.000000 -0.031912 27.000000 -0.677654 267.000000 1.680387 300.000000 -0.505443
19660.000000 1.667676 485.000000 247.000000 136.000000 0.070953 169.000000 0.237050 196.000000 -0.071133 227.000000 -0.060676 22.000000 -0.710035 121.000000 0.138086 136.000000 0.070953
19907.000000 1.666646 247.000000 243.000000 130.000000 0.052477 167.000000 0.212540 197.000000 -0.048088 222.000000 -0.043293 22.000000 -0.710798 114.000000 0.125439 131.000000 0.048199
20668.000000 1.621052 269.000000 260.000000 146.000000 0.074533 176.000000 0.249059 198.000000 -0.052227 239.000000 -0.051429 11.000000 0.493749 134.000000 0.129266 146.000000 0.074533
21910.000000 1.594058 243.000000 249.000000 134.000000 0.089691 165.000000 0.225328 195.000000 -0.038874 227.000000 -0.078716 26.000000 -0.609718 115.000000 0.122041 134.000000 0.089691
25938.000000 1.727036 240.000000 240.000000 133.000000 0.072551 162.000000 0.218134 189.000000 -0.040313 218.000000 -0.044154 25.000000 -0.699423 120.000000 0.140513 133.000000 0.072551
26178.000000 1.788482 240.000000 245.000000 140.000000 0.062770 168.000000 0.230968 183.000000 -0.042104 222.000000 0.004495 23.000000 -0.734701 120.000000 0.134871 140.000000 0.062770
26940.000000 1.552553 262.000000 259.000000 144.000000 0.083056 174.000000 0.206973 199.000000 -0.047070 237.000000 -0.071144 9.000000 0.424197 126.000000 0.114232 144.000000 0.083056
27455.000000 1.676884 256.000000 201.000000 58.000000 -0.345498 121.000000 0.243118 143.000000 0.116974 181.000000 0.029875 22.000000 -0.720576 116.000000 0.242224 123.000000 0.231159
27656.000000 0.860378 201.000000 308.000000 198.000000 -0.136602 232.000000 0.031563 245.000000 -0.175097 285.000000 -0.072952 22.000000 -1.291488 118.000000 0.621674 198.000000 -0.136602
28204.000000 1.482066 240.000000 247.000000 142.000000 0.015178 171.000000 0.256947 191.000000 -0.039763 227.000000 -0.065828 23.000000 -0.660942 116.000000 0.115916 142.000000 0.015178
30499.000000 1.638997 245.000000 243.000000 132.000000 0.065656 167.000000 0.231236 196.000000 -0.041945 222.000000 -0.008934 25.000000 -0.608777 113.000000 0.147397 135.000000 0.043509
33243.000000 0.644406 202.000000 317.000000 195.000000 -0.108041 232.000000 0.030709 248.000000 -0.190671 295.000000 -0.113370 22.000000 -1.232161 112.000000 0.610641 195.000000 -0.108041
36119.000000 1.585771 267.000000 258.000000 145.000000 0.071134 170.000000 0.234530 201.000000 -0.038747 239.000000 -0.073435 28.000000 -0.622212 128.000000 0.117323 148.000000 0.053595
36627.000000 1.635705 250.000000 246.000000 136.000000 0.037476 167.000000 0.206319 194.000000 -0.042789 225.000000 -0.048227 24.000000 -0.669748 117.000000 0.110969 136.000000 0.037476
37383.000000 1.568840 254.000000 255.000000 145.000000 0.018540 177.000000 0.223917 195.000000 -0.027947 232.000000 -0.028058 26.000000 -0.664122 128.000000 0.115797 145.000000 0.018540
40473.000000 1.788561 262.000000 256.000000 138.000000 0.058826 172.000000 0.257773 199.000000 -0.044610 235.000000 -0.102352 23.000000 -0.759681 122.000000 0.125959 139.000000 0.039704
40729.000000 1.844937 256.000000 254.000000 140.000000 0.034122 174.000000 0.242226 193.000000 -0.048637 243.000000 0.646036 24.000000 -0.770926 121.000000 0.118995 140.000000 0.034122
41989.000000 1.860363 269.000000 260.000000 78.000000 -0.375652 175.000000 0.257477 201.000000 -0.071458 238.000000 -0.071677 11.000000 0.188466 155.000000 0.120927 169.000000 0.230392
42504.000000 1.919952 255.000000 259.000000 142.000000 0.013967 175.000000 0.248557 193.000000 -0.042243 237.000000 -0.067931 25.000000 -0.793824 122.000000 0.091729 143.000000 0.005253
43012.000000 1.742304 249.000000 250.000000 139.000000 0.048590 171.000000 0.262167 190.000000 -0.037016 228.000000 -0.027207 23.000000 -0.774340 123.000000 0.144719 140.000000 0.039248
44010.000000 1.874546 251.000000 272.000000 147.000000 0.018963 170.000000 0.228415 204.000000 -0.085959 250.000000 -0.073716 21.000000 -0.791662 159.000000 0.115970 204.000000 -0.085959
46046.000000 1.774893 268.000000 245.000000 133.000000 0.114546 164.000000 0.220281 184.000000 -0.048057 233.000000 0.569796 22.000000 -0.757897 119.000000 0.139576 133.000000 0.114546
46820.000000 1.631551 265.000000 255.000000 140.000000 0.053400 174.000000 0.241070 203.000000 -0.058147 234.000000 -0.058696 24.000000 -0.697179 149.000000 0.099623 201.000000 -0.090248
47558.000000 1.537609 243.000000 238.000000 132.000000 0.133655 156.000000 0.185721 189.000000 -0.057726 214.000000 -0.033964 25.000000 -0.632565 132.000000 0.133655 146.000000 0.148354
47796.000000 1.620271 238.000000 248.000000 144.000000 0.115913 165.000000 0.221208 189.000000 -0.023275 236.000000 0.534278 27.000000 -0.658224 140.000000 0.132731 144.000000 0.115913
48044.000000 1.653886 248.000000 246.000000 144.000000 0.126537 168.000000 0.248465 200.000000 -0.030752 225.000000 -0.033386 25.000000 -0.688200 126.000000 0.143528 144.000000 0.126537
49073.000000 1.492236 269.000000 254.000000 139.000000 0.089591 172.000000 0.235878 195.000000 -0.041428 230.000000 -0.025927 27.000000 -0.669894 124.000000 0.132757 146.000000 0.121974
49567.000000 1.653766 240.000000 240.000000 135.000000 0.084154 163.000000 0.215831 189.000000 -0.036317 218.000000 -0.018901 26.000000 -0.653523 121.000000 0.136819 135.000000 0.084154
50300.000000 1.423232 493.000000 257.000000 139.000000 0.109268 167.000000 0.228857 205.000000 -0.041079 236.000000 -0.066236 25.000000 -0.648165 150.000000 0.142621 205.000000 -0.041079
51062.000000 1.697981 253.000000 266.000000 142.000000 0.055828 179.000000 0.211329 199.000000 -0.020598 243.000000 -0.054769 25.000000 -0.726234 156.000000 0.118289 198.000000 -0.015143
52302.000000 1.639628 244.000000 248.000000 140.000000 0.105641 166.000000 0.224764 188.000000 -0.015877 227.000000 -0.057552 24.000000 -0.628179 116.000000 0.120499 129.000000 0.080609
52550.000000 1.673920 248.000000 260.000000 145.000000 0.072727 174.000000 0.220218 195.000000 -0.049718 239.000000 -0.043195 24.000000 -0.684624 155.000000 0.096048 195.000000 -0.049718
54307.000000 1.437629 235.000000 242.000000 140.000000 0.104432 160.000000 0.190406 193.000000 -0.034138 221.000000 -0.082837 26.000000 -0.596916 133.000000 0.142675 144.000000 0.133210
54793.000000 1.612122 244.000000 255.000000 135.000000 0.099322 170.000000 0.248587 193.000000 -0.013589 231.000000 -0.016049 28.000000 -0.667411 145.000000 0.129996 189.000000 -0.025079
57283.000000 1.657005 263.000000 266.000000 143.000000 0.086927 169.000000 0.262745 202.000000 -0.046348 254.000000 0.469623 25.000000 -0.695128 158.000000 0.161162 202.000000 -0.046348
58793.000000 1.711659 247.000000 244.000000 134.000000 0.078696 166.000000 0.256176 184.000000 -0.028981 223.000000 -0.043700 22.000000 -0.729658 118.000000 0.148148 135.000000 0.074809
59037.000000 1.774093 244.000000 523.000000 402.000000 0.043652 426.000000 0.241944 458.000000 -0.059840 501.000000 -0.061503 25.000000 -0.722917 257.000000 1.807822 287.000000 -0.551473
61081.000000 1.839626 501.000000 251.000000 135.000000 0.050325 171.000000 0.259480 191.000000 -0.036696 227.000000 -0.037137 22.000000 -0.754009 117.000000 0.101501 135.000000 0.050325
61597.000000 1.735860 265.000000 261.000000 138.000000 0.040490 171.000000 0.241207 191.000000 -0.031709 237.000000 -0.034370 25.000000 -0.705924 154.000000 0.114626 191.000000 -0.031709
62378.000000 1.819277 253.000000 242.000000 135.000000 0.073732 169.000000 0.273230 196.000000 -0.024246 220.000000 -0.019620 24.000000 -0.737399 121.000000 0.140909 135.000000 0.073732
62620.000000 1.841321 242.000000 245.000000 137.000000 0.114638 167.000000 0.257100 195.000000 -0.029935 224.000000 -0.062427 22.000000 -0.738208 120.000000 0.133714 137.000000 0.114638
62865.000000 1.852198 245.000000 254.000000 141.000000 0.052996 175.000000 0.252461 193.000000 -0.028102 230.000000 -0.014622 23.000000 -0.759227 127.000000 0.124045 129.000000 0.106521
63370.000000 1.725897 251.000000 249.000000 140.000000 0.108512 162.000000 0.224359 186.000000 -0.010091 224.000000 -0.049072 23.000000 -0.720623 148.000000 0.149704 186.000000 -0.010091
64131.000000 1.705613 253.000000 504.000000 393.000000 0.105921 427.000000 0.264685 451.000000 -0.030096 484.000000 -0.063152 25.000000 -0.726924 256.000000 1.433325 285.000000 -0.645470
65108.000000 1.661145 234.000000 248.000000 136.000000 0.108856 169.000000 0.219893 183.000000 -0.015891 225.000000 -0.020968 26.000000 -0.640110 121.000000 0.135988 136.000000 0.108856
66112.000000 1.555893 252.000000 514.000000 401.000000 0.091077 431.000000 0.239122 456.000000 -0.024261 491.000000 -0.010561 27.000000 -0.668669 257.000000 1.616302 291.000000 -0.439951
66626.000000 1.665064 514.000000 251.000000 137.000000 0.076337 163.000000 0.230833 191.000000 -0.045593 231.000000 -0.048622 25.000000 -0.669011 121.000000 0.132576 139.000000 0.093437
67118.000000 1.471775 241.000000 236.000000 130.000000 0.077777 163.000000 0.241885 192.000000 -0.021250 216.000000 -0.042628 24.000000 -0.683806 115.000000 0.147761 143.000000 0.108828
68133.000000 1.620314 263.000000 253.000000 142.000000 0.059311 174.000000 0.217384 192.000000 -0.026488 230.000000 -0.010378 25.000000 -0.682756 121.000000 0.098683 142.000000 0.059311
68895.000000 1.465093 251.000000 249.000000 135.000000 0.053200 169.000000 0.223449 188.000000 -0.017179 227.000000 -0.026037 26.000000 -0.644720 122.000000 0.110582 136.000000 0.039031
70148.000000 1.470408 268.000000 259.000000 138.000000 0.040217 175.000000 0.206598 195.000000 -0.043135 236.000000 -0.043668 27.000000 -0.601910 121.000000 0.099088 140.000000 0.051831
71902.000000 1.566678 247.000000 247.000000 145.000000 0.066557 167.000000 0.226741 193.000000 -0.017726 226.000000 -0.048229 23.000000 -0.683762 121.000000 0.114191 134.000000 0.067012
73185.000000 1.502396 249.000000 491.000000 387.000000 0.082898 411.000000 0.217555 431.000000 -0.024263 470.000000 -0.029387 24.000000 -0.657823 246.000000 1.600688 274.000000 -0.493010
73676.000000 1.629611 491.000000 253.000000 148.000000 0.074810 171.000000 0.238007 195.000000 -0.037229 231.000000 -0.048969 24.000000 -0.705906 122.000000 0.104590 136.000000 0.036079
73929.000000 1.509543 253.000000 251.000000 137.000000 0.057491 170.000000 0.242711 188.000000 -0.020094 227.000000 -0.032759 26.000000 -0.669844 127.000000 0.124621 137.000000 0.057491
74180.000000 1.423429 251.000000 250.000000 140.000000 0.090755 171.000000 0.246506 192.000000 -0.046346 229.000000 -0.030971 27.000000 -0.609737 122.000000 0.131334 141.000000 0.076320
76984.000000 1.534893 259.000000 271.000000 146.000000 0.061643 169.000000 0.229008 231.000000 -0.069310 245.000000 -0.052822 8.000000 0.741806 161.000000 0.144307 231.000000 -0.069310
77511.000000 1.639778 256.000000 242.000000 137.000000 0.062070 169.000000 0.262696 196.000000 -0.033590 220.000000 -0.025175 26.000000 -0.677511 122.000000 0.145455 137.000000 0.062070
78771.000000 1.521900 266.000000 259.000000 140.000000 0.050758 175.000000 0.234044 194.000000 -0.050768 234.000000 -0.045595 24.000000 -0.669606 128.000000 0.114958 140.000000 0.050758
79288.000000 1.720203 258.000000 261.000000 143.000000 0.057247 168.000000 0.252259 173.000000 0.221569 241.000000 -0.044452 25.000000 -0.745391 155.000000 0.129268 173.000000 0.221569
79803.000000 1.786048 254.000000 245.000000 142.000000 0.076224 171.000000 0.253951 197.000000 -0.066174 224.000000 -0.016767 23.000000 -0.764874 117.000000 0.131836 123.000000 0.117103
81065.000000 1.823482 270.000000 258.000000 143.000000 0.068696 174.000000 0.270377 193.000000 -0.025405 235.000000 -0.019965 26.000000 -0.814981 131.000000 0.129573 145.000000 0.067520
82576.000000 1.834697 242.000000 251.000000 138.000000 0.071445 169.000000 0.257428 188.000000 -0.016586 230.000000 -0.025613 22.000000 -0.812669 120.000000 0.111539 138.000000 0.071445
83868.000000 1.646118 253.000000 250.000000 134.000000 0.062965 169.000000 0.245268 194.000000 -0.048352 226.000000 -0.018054 24.000000 -0.695154 120.000000 0.131351 129.000000 0.088389
85367.000000 1.632506 254.000000 268.000000 147.000000 0.036817 186.000000 0.228857 214.000000 -0.027462 244.000000 -0.019359 27.000000 -0.696410 157.000000 0.113150 212.000000 -0.031146
86380.000000 1.575655 238.000000 247.000000 145.000000 0.083575 164.000000 0.215202 213.000000 -0.040001 223.000000 -0.014014 25.000000 -0.657795 120.000000 0.138339 132.000000 0.101694
89980.000000 1.371113 250.000000 249.000000 147.000000 0.130250 170.000000 0.247100 205.000000 -0.034860 219.000000 -0.059875 15.000000 -0.466832 141.000000 0.166646 147.000000 0.130250
91919.000000 1.604482 247.000000 252.000000 142.000000 0.073193 170.000000 0.242692 194.000000 -0.056318 242.000000 0.591597 27.000000 -0.713620 120.000000 0.156705 148.000000 0.059274
93671.000000 1.492714 268.000000 260.000000 144.000000 0.045819 175.000000 0.224297 194.000000 -0.067615 250.000000 0.616651 25.000000 -0.685250 121.000000 0.117169 145.000000 0.032480
99665.000000 1.850690 259.000000 511.000000 396.000000 0.013447 428.000000 0.257963 457.000000 -0.024530 489.000000 -0.038042 26.000000 -0.716976 253.000000 1.929405 281.000000 -0.626633
100176.000000 1.805800 511.000000 265.000000 142.000000 0.013101 168.000000 0.250093 171.000000 0.207726 242.000000 -0.039890 25.000000 -0.755317 158.000000 0.148354 171.000000 0.207726
100441.000000 1.765221 265.000000 279.000000 151.000000 0.055065 179.000000 0.247950 209.000000 -0.043401 258.000000 -0.074062 26.000000 -0.745706 166.000000 0.169535 209.000000 -0.043401
103024.000000 1.589408 274.000000 259.000000 143.000000 0.064251 176.000000 0.234297 202.000000 -0.021613 235.000000 -0.017211 26.000000 -0.696938 154.000000 0.127152 202.000000 -0.021613
104027.000000 1.386582 250.000000 510.000000 401.000000 0.073585 427.000000 0.244875 479.000000 -0.073508 489.000000 -0.156752 25.000000 -0.567352 253.000000 1.525439 284.000000 -0.500876
105606.000000 1.518149 262.000000 247.000000 136.000000 0.061527 168.000000 0.226365 191.000000 -0.016894 229.000000 -0.047743 24.000000 -0.627399 120.000000 0.124160 139.000000 0.069003
109733.000000 1.658465 263.000000 256.000000 142.000000 0.016829 175.000000 0.215796 196.000000 -0.045770 230.000000 -0.027259 23.000000 -0.698039 121.000000 0.100718 142.000000 0.016829
113340.000000 1.782713 266.000000 541.000000 417.000000 0.041913 456.000000 0.218481 473.000000 -0.039155 519.000000 -0.044313 27.000000 -0.723087 265.000000 1.835690 297.000000 -0.572381
115415.000000 1.842242 255.000000 267.000000 144.000000 0.038261 181.000000 0.231209 200.000000 -0.045717 246.000000 -0.061846 25.000000 -0.731095 158.000000 0.118746 199.000000 -0.040529
116479.000000 1.960410 263.000000 494.000000 389.000000 0.116238 413.000000 0.230110 432.000000 -0.004453 472.000000 -0.013857 22.000000 -0.825894 250.000000 1.919518 283.000000 -0.412792
119531.000000 0.829781 256.000000 255.000000 132.000000 0.201663 159.000000 0.282495 196.000000 -0.094840 245.000000 0.332025 11.000000 0.106754 125.000000 0.249531 140.000000 0.171226
120536.000000 1.189862 246.000000 243.000000 143.000000 0.123418 166.000000 0.227008 203.000000 -0.056051 220.000000 -0.013402 11.000000 0.389454 125.000000 0.215627 132.000000 0.107399
122430.000000 0.829950 242.000000 230.000000 138.000000 0.193416 157.000000 0.255548 175.000000 -0.012730 209.000000 -0.021021 12.000000 0.098086 128.000000 0.236300 141.000000 0.190281
123576.000000 1.022433 223.000000 222.000000 131.000000 0.129075 151.000000 0.200516 167.000000 -0.017821 200.000000 -0.015234 25.000000 -0.488364 126.000000 0.190250 132.000000 0.139827
124992.000000 0.975016 238.000000 228.000000 118.000000 0.083148 157.000000 0.227321 175.000000 0.025472 208.000000 -0.033430 8.000000 0.495425 132.000000 0.167319 175.000000 0.025472
130488.000000 1.664963 249.000000 252.000000 132.000000 0.102792 173.000000 0.240220 198.000000 -0.028715 228.000000 -0.020765 26.000000 -0.687557 144.000000 0.125503 191.000000 -0.044294
131256.000000 1.485860 264.000000 248.000000 146.000000 0.101033 170.000000 0.235705 188.000000 -0.050407 225.000000 -0.036206 30.000000 -0.546582 127.000000 0.124497 136.000000 0.086284
131981.000000 1.645927 238.000000 241.000000 146.000000 0.111979 169.000000 0.235205 197.000000 -0.058714 220.000000 -0.051300 9.000000 0.470551 122.000000 0.134817 134.000000 0.094754
132222.000000 1.713291 241.000000 253.000000 136.000000 0.049892 174.000000 0.227038 196.000000 -0.062743 231.000000 -0.062459 23.000000 -0.703290 126.000000 0.120598 136.000000 0.049892
134509.000000 1.623372 252.000000 255.000000 134.000000 0.039377 167.000000 0.204528 189.000000 -0.051240 231.000000 -0.043810 22.000000 -0.672291 152.000000 0.110299 189.000000 -0.051240
134764.000000 1.629544 255.000000 268.000000 147.000000 0.037416 170.000000 0.212274 203.000000 -0.066145 246.000000 -0.079937 27.000000 -0.656879 158.000000 0.119767 203.000000 -0.066145
136320.000000 1.693423 249.000000 241.000000 128.000000 0.056332 161.000000 0.191507 178.000000 -0.030998 221.000000 -0.060952 23.000000 -0.718803 114.000000 0.124969 129.000000 0.042131
136816.000000 1.781254 255.000000 259.000000 138.000000 0.002290 172.000000 0.224280 190.000000 -0.055405 235.000000 -0.068034 25.000000 -0.754513 154.000000 0.097602 190.000000 -0.055405
137075.000000 1.730019 259.000000 269.000000 144.000000 0.017791 171.000000 0.236111 200.000000 -0.047602 246.000000 -0.049845 28.000000 -0.709308 158.000000 0.120674 200.000000 -0.047602
137610.000000 1.657053 266.000000 258.000000 144.000000 0.076308 169.000000 0.253152 197.000000 -0.045971 234.000000 -0.047885 27.000000 -0.667037 127.000000 0.135587 145.000000 0.083299
138619.000000 1.568401 247.000000 241.000000 143.000000 0.115934 164.000000 0.236940 181.000000 -0.022590 220.000000 -0.052226 26.000000 -0.645032 119.000000 0.153303 134.000000 0.074132
139374.000000 1.776878 262.000000 269.000000 148.000000 0.061063 174.000000 0.228402 205.000000 -0.048463 246.000000 -0.058354 25.000000 -0.739644 160.000000 0.131236 205.000000 -0.048463
140166.000000 1.627433 255.000000 240.000000 128.000000 0.091457 163.000000 0.206900 196.000000 -0.057472 211.000000 -0.019493 24.000000 -0.689823 139.000000 0.131333 196.000000 -0.057472
140659.000000 1.778681 253.000000 250.000000 146.000000 0.100522 169.000000 0.248043 191.000000 -0.054339 226.000000 -0.033085 26.000000 -0.693511 126.000000 0.133563 146.000000 0.100522
140909.000000 1.703057 250.000000 251.000000 141.000000 0.073151 173.000000 0.222428 204.000000 -0.062495 231.000000 -0.039406 24.000000 -0.731756 129.000000 0.105882 141.000000 0.073151
141414.000000 1.578838 254.000000 263.000000 142.000000 0.062466 168.000000 0.247149 202.000000 -0.073418 242.000000 -0.060912 26.000000 -0.641662 128.000000 0.136039 144.000000 0.089174
141943.000000 1.673146 266.000000 260.000000 140.000000 0.055015 174.000000 0.236568 198.000000 -0.043810 237.000000 -0.059201 23.000000 -0.700773 155.000000 0.110909 198.000000 -0.043810
142448.000000 1.447770 245.000000 240.000000 143.000000 0.112068 163.000000 0.222711 200.000000 -0.029969 214.000000 -0.012711 25.000000 -0.656712 120.000000 0.120693 130.000000 0.089485
143442.000000 1.640627 253.000000 252.000000 143.000000 0.047803 168.000000 0.215689 191.000000 -0.065094 230.000000 -0.050503 27.000000 -0.624560 121.000000 0.113618 148.000000 0.046410
145195.000000 1.465468 243.000000 259.000000 141.000000 0.086113 174.000000 0.211207 197.000000 -0.059451 236.000000 -0.047853 23.000000 -0.635489 145.000000 0.115095 197.000000 -0.059451
145970.000000 1.677553 259.000000 260.000000 145.000000 0.081866 173.000000 0.217901 203.000000 -0.044527 236.000000 -0.042882 22.000000 -0.706024 155.000000 0.122761 203.000000 -0.044527
146230.000000 1.534656 260.000000 256.000000 146.000000 0.053793 179.000000 0.228868 198.000000 -0.063766 235.000000 -0.052652 28.000000 -0.625582 129.000000 0.117260 147.000000 0.060768
146742.000000 1.535200 256.000000 254.000000 138.000000 0.081928 174.000000 0.237100 195.000000 -0.051553 246.000000 0.807929 23.000000 -0.666569 150.000000 0.120548 195.000000 -0.051553
146996.000000 1.610578 254.000000 245.000000 131.000000 0.077018 167.000000 0.224890 185.000000 -0.037492 223.000000 -0.028150 3.000000 1.413870 113.000000 0.133304 132.000000 0.062989
148021.000000 1.643759 271.000000 261.000000 147.000000 0.075640 169.000000 0.252587 175.000000 0.236520 241.000000 -0.046707 27.000000 -0.644048 155.000000 0.129449 175.000000 0.236520
149045.000000 1.675787 253.000000 253.000000 134.000000 0.053383 167.000000 0.212728 197.000000 -0.057979 231.000000 -0.074011 23.000000 -0.680342 146.000000 0.122239 184.000000 -0.013323
149298.000000 1.673014 253.000000 242.000000 132.000000 0.065952 163.000000 0.198103 178.000000 -0.038026 217.000000 -0.014059 25.000000 -0.635967 120.000000 0.106126 132.000000 0.065952
150325.000000 1.670820 273.000000 263.000000 142.000000 0.047522 168.000000 0.232741 194.000000 -0.021380 241.000000 -0.056692 24.000000 -0.666797 156.000000 0.133680 194.000000 -0.021380
150588.000000 1.655598 263.000000 248.000000 145.000000 0.090185 169.000000 0.241552 192.000000 -0.048087 228.000000 -0.056848 23.000000 -0.673208 123.000000 0.115375 131.000000 0.051926
152624.000000 1.769215 270.000000 260.000000 149.000000 0.094376 175.000000 0.223727 194.000000 -0.053436 239.000000 -0.054661 24.000000 -0.722542 125.000000 0.104672 140.000000 0.059594
153073.000000 0.861177 189.000000 305.000000 188.000000 -0.098919 222.000000 0.063478 239.000000 -0.183151 283.000000 -0.106488 24.000000 -1.189843 109.000000 0.626896 188.000000 -0.098919
153378.000000 1.739953 305.000000 241.000000 139.000000 0.133827 157.000000 0.172886 187.000000 -0.062974 217.000000 -0.021797 25.000000 -0.626205 134.000000 0.164375 139.000000 0.133827
154645.000000 1.819013 324.000000 270.000000 38.000000 -0.438603 168.000000 0.279876 201.000000 -0.089168 246.000000 -0.052508 29.000000 -0.682866 158.000000 0.206036 201.000000 -0.089168
155658.000000 1.574037 243.000000 238.000000 139.000000 0.121331 158.000000 0.204482 179.000000 -0.034546 217.000000 -0.039280 25.000000 -0.683689 133.000000 0.155014 139.000000 0.121331
156145.000000 1.730728 249.000000 253.000000 139.000000 0.104735 174.000000 0.248106 197.000000 -0.063978 233.000000 -0.047661 28.000000 -0.701828 150.000000 0.144204 193.000000 -0.037817
156654.000000 1.525111 256.000000 249.000000 130.000000 0.104170 166.000000 0.236757 205.000000 -0.020406 221.000000 -0.029920 26.000000 -0.648761 139.000000 0.151412 156.000000 0.176960
158907.000000 1.434869 264.000000 253.000000 144.000000 0.112079 172.000000 0.277693 193.000000 -0.047714 230.000000 -0.060894 28.000000 -0.630742 124.000000 0.148301 144.000000 0.112079
160938.000000 1.704027 270.000000 258.000000 137.000000 0.060156 175.000000 0.236347 196.000000 -0.051976 236.000000 -0.066851 27.000000 -0.682194 145.000000 0.119199 196.000000 -0.051976
162216.000000 1.763356 249.000000 241.000000 142.000000 0.071267 164.000000 0.237396 184.000000 -0.032039 221.000000 -0.039061 24.000000 -0.657930 114.000000 0.137270 125.000000 0.073523
162457.000000 1.675785 241.000000 252.000000 148.000000 0.054091 173.000000 0.230313 195.000000 -0.068654 232.000000 -0.080209 23.000000 -0.716238 121.000000 0.107212 136.000000 0.046428
163241.000000 1.643882 273.000000 260.000000 139.000000 0.094843 175.000000 0.247713 199.000000 -0.034262 239.000000 -0.079795 24.000000 -0.724534 152.000000 0.142603 194.000000 -0.015328
163754.000000 1.776803 253.000000 255.000000 142.000000 0.095642 173.000000 0.230505 191.000000 -0.041487 246.000000 0.878638 23.000000 -0.702300 125.000000 0.115752 142.000000 0.095642
164009.000000 1.691945 255.000000 256.000000 141.000000 0.038682 176.000000 0.219857 197.000000 -0.042948 237.000000 -0.058152 15.000000 -0.487130 122.000000 0.114560 141.000000 0.038682
165816.000000 1.740879 263.000000 250.000000 143.000000 0.032412 174.000000 0.239339 191.000000 -0.046538 230.000000 -0.005126 23.000000 -0.712508 122.000000 0.118085 144.000000 0.043556
167072.000000 1.661334 247.000000 262.000000 136.000000 0.036532 174.000000 0.212599 195.000000 -0.071098 239.000000 -0.073493 27.000000 -0.618036 156.000000 0.148522 195.000000 -0.071098
167334.000000 1.649078 262.000000 262.000000 141.000000 0.052464 175.000000 0.224174 197.000000 -0.054149 245.000000 -0.085783 23.000000 -0.694838 156.000000 0.109878 195.000000 -0.033694
168380.000000 1.600130 252.000000 246.000000 135.000000 0.005772 163.000000 0.202274 206.000000 -0.052146 225.000000 -0.024434 24.000000 -0.614716 114.000000 0.118780 135.000000 0.005772
172008.000000 1.783434 266.000000 260.000000 147.000000 0.081788 171.000000 0.271567 197.000000 -0.041364 240.000000 -0.048074 20.000000 -0.747302 134.000000 0.127070 147.000000 0.081788
172790.000000 1.739408 258.000000 246.000000 130.000000 0.069125 162.000000 0.218167 188.000000 -0.047930 222.000000 -0.026679 25.000000 -0.648351 121.000000 0.110816 132.000000 0.081116
173036.000000 1.804744 246.000000 241.000000 125.000000 0.084940 162.000000 0.208826 184.000000 -0.029545 219.000000 -0.029922 28.000000 -0.568891 143.000000 0.111272 184.000000 -0.029545
173277.000000 1.774562 241.000000 261.000000 136.000000 0.058966 173.000000 0.237603 203.000000 -0.028430 237.000000 -0.038586 26.000000 -0.711501 155.000000 0.134074 192.000000 -0.018540
173538.000000 1.748030 261.000000 263.000000 142.000000 0.075251 177.000000 0.235407 196.000000 -0.030393 240.000000 -0.044545 27.000000 -0.690843 156.000000 0.128480 194.000000 -0.014374
173801.000000 1.786834 263.000000 516.000000 407.000000 0.062022 435.000000 0.245206 452.000000 -0.020938 494.000000 -0.011453 25.000000 -0.735669 261.000000 1.819968 292.000000 -0.524638
175075.000000 1.778285 499.000000 239.000000 138.000000 0.088620 158.000000 0.182240 177.000000 -0.002775 214.000000 0.006537 23.000000 -0.710915 132.000000 0.132194 138.000000 0.088620
175314.000000 1.792917 239.000000 239.000000 137.000000 0.085892 163.000000 0.213902 186.000000 -0.017210 220.000000 -0.024826 28.000000 -0.605247 122.000000 0.131943 137.000000 0.085892
176845.000000 1.563887 257.000000 241.000000 141.000000 0.073998 160.000000 0.193123 188.000000 -0.030498 220.000000 -0.060170 28.000000 -0.632977 121.000000 0.115799 134.000000 0.109216
177830.000000 1.650836 247.000000 252.000000 145.000000 0.078417 169.000000 0.233398 183.000000 -0.026867 242.000000 0.646927 24.000000 -0.716516 120.000000 0.110409 145.000000 0.078417
180868.000000 1.546125 270.000000 256.000000 138.000000 0.093603 167.000000 0.234840 194.000000 -0.054049 232.000000 -0.028357 26.000000 -0.684767 150.000000 0.143210 194.000000 -0.054049
181124.000000 1.604297 256.000000 237.000000 135.000000 0.097850 163.000000 0.183652 176.000000 -0.006724 217.000000 -0.019026 23.000000 -0.704040 115.000000 0.139779 135.000000 0.097850
181609.000000 1.477360 248.000000 248.000000 129.000000 0.086431 163.000000 0.231569 187.000000 -0.033980 226.000000 -0.059204 22.000000 -0.668860 147.000000 0.135382 187.000000 -0.033980
181857.000000 1.535450 248.000000 257.000000 147.000000 0.072087 173.000000 0.214717 193.000000 -0.052586 235.000000 -0.082430 24.000000 -0.641681 126.000000 0.103919 136.000000 0.061411
182114.000000 1.589919 257.000000 254.000000 149.000000 0.080884 170.000000 0.236413 208.000000 -0.035798 222.000000 -0.015581 26.000000 -0.668436 127.000000 0.102385 138.000000 0.069000
183431.000000 1.580641 258.000000 194.000000 55.000000 -0.333686 118.000000 0.205016 132.000000 0.116114 171.000000 0.024921 24.000000 -0.640693 112.000000 0.233150 132.000000 0.116114
183625.000000 0.669969 194.000000 304.000000 183.000000 -0.067033 218.000000 0.064546 241.000000 -0.182962 282.000000 -0.083528 24.000000 -1.159436 105.000000 0.576855 183.000000 -0.067033
183929.000000 1.689120 304.000000 253.000000 142.000000 0.089642 167.000000 0.192386 184.000000 -0.050483 229.000000 -0.065877 22.000000 -0.676223 118.000000 0.106381 142.000000 0.089642
185262.000000 1.606556 276.000000 266.000000 149.000000 0.048137 173.000000 0.235077 218.000000 -0.028354 246.000000 -0.039750 27.000000 -0.649639 130.000000 0.120031 153.000000 0.058451
186812.000000 1.600318 531.000000 265.000000 144.000000 0.030171 175.000000 0.235173 196.000000 -0.053978 243.000000 -0.043650 27.000000 -0.646111 158.000000 0.131080 192.000000 -0.037364
188115.000000 1.726897 251.000000 246.000000 144.000000 0.105001 167.000000 0.221949 184.000000 -0.049479 224.000000 -0.029118 23.000000 -0.686175 116.000000 0.113497 134.000000 0.065706
188618.000000 1.772885 257.000000 266.000000 143.000000 0.041192 176.000000 0.237271 201.000000 -0.034203 244.000000 -0.030128 21.000000 -0.707164 158.000000 0.123590 200.000000 -0.033999
189427.000000 1.733337 264.000000 256.000000 140.000000 0.064170 170.000000 0.241302 188.000000 -0.001833 233.000000 -0.016224 25.000000 -0.702322 152.000000 0.121147 188.000000 -0.001833
189945.000000 1.770375 262.000000 252.000000 139.000000 0.097089 173.000000 0.257870 216.000000 0.011521 228.000000 0.017962 21.000000 -0.729673 150.000000 0.129800 216.000000 0.011521
191500.000000 1.751832 275.000000 259.000000 141.000000 0.040456 174.000000 0.263478 191.000000 -0.018011 238.000000 -0.067040 23.000000 -0.714437 154.000000 0.113119 191.000000 -0.018011
193018.000000 1.775202 252.000000 260.000000 146.000000 0.049951 169.000000 0.251899 200.000000 -0.035455 239.000000 -0.041052 24.000000 -0.756352 155.000000 0.134186 200.000000 -0.035455
193549.000000 1.452825 271.000000 269.000000 144.000000 0.073199 171.000000 0.254229 210.000000 -0.059311 245.000000 -0.057834 26.000000 -0.642380 159.000000 0.175298 210.000000 -0.059311
195063.000000 1.743856 249.000000 253.000000 135.000000 0.069293 174.000000 0.241456 194.000000 -0.028670 243.000000 0.619527 23.000000 -0.743604 127.000000 0.119654 135.000000 0.069293
195849.000000 1.662740 267.000000 266.000000 147.000000 0.087424 169.000000 0.258932 202.000000 -0.070893 245.000000 -0.090593 26.000000 -0.687228 158.000000 0.139493 202.000000 -0.070893
197891.000000 1.638744 267.000000 263.000000 132.000000 0.086488 175.000000 0.234107 204.000000 -0.029280 236.000000 -0.047585 25.000000 -0.701851 156.000000 0.133540 204.000000 -0.029280
198154.000000 1.724847 263.000000 261.000000 138.000000 0.070689 175.000000 0.217258 207.000000 -0.064415 238.000000 -0.040480 26.000000 -0.715935 126.000000 0.109499 138.000000 0.070689
198909.000000 1.572193 246.000000 254.000000 138.000000 0.050551 171.000000 0.235424 189.000000 -0.043465 244.000000 0.552632 24.000000 -0.666399 128.000000 0.120504 141.000000 0.057903
200760.000000 1.665719 264.000000 248.000000 141.000000 0.050050 167.000000 0.252821 190.000000 -0.027964 236.000000 0.500468 25.000000 -0.705238 119.000000 0.117167 143.000000 0.066774
201008.000000 1.678117 248.000000 249.000000 141.000000 0.027272 170.000000 0.225798 189.000000 -0.036192 230.000000 -0.048262 20.000000 -0.707837 122.000000 0.116471 142.000000 0.012947
201518.000000 1.534956 261.000000 268.000000 150.000000 0.057008 176.000000 0.219184 181.000000 0.200030 246.000000 -0.055222 25.000000 -0.668401 159.000000 0.129986 181.000000 0.200030
206260.000000 1.692461 274.000000 283.000000 155.000000 0.038357 180.000000 0.214187 190.000000 0.155362 261.000000 -0.065078 25.000000 -0.666536 168.000000 0.139626 190.000000 0.155362
206543.000000 1.725924 283.000000 269.000000 145.000000 0.042243 174.000000 0.216740 205.000000 -0.029137 247.000000 -0.022050 24.000000 -0.673404 158.000000 0.111834 205.000000 -0.029137
207070.000000 1.731991 258.000000 259.000000 144.000000 0.023455 176.000000 0.238024 200.000000 -0.036413 236.000000 -0.020678 24.000000 -0.688826 122.000000 0.106433 145.000000 0.019724
209424.000000 1.629297 248.000000 251.000000 135.000000 0.048073 168.000000 0.227697 194.000000 -0.033651 230.000000 -0.065597 23.000000 -0.685421 149.000000 0.127932 188.000000 -0.021330
210971.000000 1.708026 269.000000 269.000000 144.000000 0.064716 169.000000 0.249717 215.000000 -0.055955 246.000000 -0.043994 21.000000 -0.746347 159.000000 0.148839 215.000000 -0.055955
211240.000000 1.727137 269.000000 256.000000 140.000000 0.068493 171.000000 0.234278 193.000000 -0.039750 236.000000 -0.049844 24.000000 -0.745621 146.000000 0.099464 193.000000 -0.039750
212237.000000 1.718685 249.000000 263.000000 140.000000 0.039184 177.000000 0.223320 200.000000 -0.051367 241.000000 -0.038262 25.000000 -0.702160 152.000000 0.094215 200.000000 -0.051367
213029.000000 1.684189 263.000000 260.000000 139.000000 0.071191 163.000000 0.229907 193.000000 -0.031049 240.000000 -0.056616 24.000000 -0.707222 155.000000 0.118668 193.000000 -0.031049
214056.000000 1.573652 245.000000 251.000000 136.000000 0.019715 168.000000 0.229856 221.000000 -0.021650 229.000000 -0.049079 24.000000 -0.681505 149.000000 0.107349 221.000000 -0.021650
214307.000000 1.688399 251.000000 252.000000 139.000000 0.059656 169.000000 0.234762 187.000000 -0.025049 241.000000 0.659543 27.000000 -0.641711 123.000000 0.097038 139.000000 0.059656
215364.000000 1.557228 264.000000 264.000000 145.000000 0.023154 175.000000 0.219343 197.000000 -0.061410 240.000000 -0.035092 25.000000 -0.654903 157.000000 0.111366 192.000000 -0.035313
215628.000000 1.652744 264.000000 269.000000 148.000000 0.027009 169.000000 0.231475 206.000000 -0.034232 247.000000 -0.032478 27.000000 -0.677257 160.000000 0.121758 206.000000 -0.034232
216588.000000 0.619012 196.000000 593.000000 470.000000 0.102038 493.000000 0.261384 523.000000 -0.065421 581.000000 0.588574 22.000000 -1.257602 321.000000 1.642868 346.000000 -0.729516
219535.000000 1.547073 275.000000 520.000000 258.000000 -0.186718 312.000000 0.263640 391.000000 -0.072715 500.000000 -0.045031 29.000000 -0.615686 192.000000 0.571599 223.000000 -0.712002
220055.000000 1.687021 520.000000 253.000000 143.000000 0.084547 170.000000 0.228623 191.000000 -0.064826 230.000000 -0.020941 23.000000 -0.732225 128.000000 0.159875 144.000000 0.105535
224467.000000 1.621585 256.000000 244.000000 134.000000 0.056439 168.000000 0.234450 196.000000 -0.026694 219.000000 -0.007101 25.000000 -0.637081 120.000000 0.130704 136.000000 0.058304
225228.000000 1.671912 262.000000 261.000000 145.000000 0.051211 180.000000 0.239248 198.000000 -0.030876 241.000000 -0.055502 24.000000 -0.666599 127.000000 0.106353 145.000000 0.051211
226290.000000 1.664122 268.000000 265.000000 146.000000 0.058861 169.000000 0.240566 197.000000 -0.030437 243.000000 -0.056239 26.000000 -0.638105 157.000000 0.137826 197.000000 -0.030437
227051.000000 1.689250 246.000000 256.000000 139.000000 0.054293 169.000000 0.238667 213.000000 -0.004294 229.000000 -0.013135 26.000000 -0.624449 122.000000 0.106283 139.000000 0.054293
228102.000000 1.731600 264.000000 268.000000 144.000000 0.072743 175.000000 0.236960 206.000000 -0.030214 248.000000 -0.056782 23.000000 -0.734889 158.000000 0.129451 206.000000 -0.030214
229145.000000 1.740032 249.000000 247.000000 135.000000 0.072512 169.000000 0.271132 191.000000 -0.040061 226.000000 -0.044137 28.000000 -0.579167 122.000000 0.140112 137.000000 0.054533
230196.000000 1.752021 271.000000 260.000000 145.000000 0.045821 169.000000 0.242273 194.000000 -0.017664 238.000000 -0.037416 23.000000 -0.715456 127.000000 0.108486 147.000000 0.029457
231487.000000 1.779918 247.000000 246.000000 134.000000 0.063664 167.000000 0.225561 184.000000 -0.028294 235.000000 0.622177 24.000000 -0.673342 121.000000 0.115922 134.000000 0.063664
231733.000000 1.818653 246.000000 269.000000 143.000000 0.040772 168.000000 0.224708 206.000000 -0.040750 261.000000 0.825202 21.000000 -0.743683 157.000000 0.100224 206.000000 -0.040750
233309.000000 1.563105 253.000000 254.000000 135.000000 0.054072 171.000000 0.224498 190.000000 -0.061299 228.000000 -0.050296 25.000000 -0.605720 116.000000 0.092852 135.000000 0.054072
234325.000000 1.774309 269.000000 271.000000 146.000000 0.079766 180.000000 0.238451 210.000000 -0.037409 251.000000 -0.041565 28.000000 -0.722433 161.000000 0.157149 210.000000 -0.037409
234817.000000 0.592446 221.000000 296.000000 183.000000 -0.057462 204.000000 0.089733 231.000000 -0.196944 278.000000 -0.151096 28.000000 -1.017335 109.000000 0.597977 159.000000 0.018494
236388.000000 1.610754 261.000000 269.000000 145.000000 0.068952 181.000000 0.247885 200.000000 -0.048181 243.000000 -0.028464 24.000000 -0.720859 158.000000 0.129126 200.000000 -0.048181
241369.000000 1.603278 270.000000 269.000000 147.000000 0.049768 174.000000 0.218306 204.000000 -0.027119 245.000000 -0.029093 26.000000 -0.656521 160.000000 0.133041 204.000000 -0.027119
242647.000000 1.631661 255.000000 273.000000 146.000000 0.047885 181.000000 0.214810 207.000000 -0.042056 246.000000 -0.004438 28.000000 -0.637055 162.000000 0.130188 207.000000 -0.042056
243720.000000 1.636675 264.000000 265.000000 146.000000 0.073294 181.000000 0.232459 199.000000 -0.035800 254.000000 0.466862 25.000000 -0.649486 157.000000 0.126244 196.000000 -0.039296
245821.000000 1.758860 323.000000 256.000000 142.000000 0.058764 163.000000 0.210565 186.000000 -0.039262 246.000000 0.673357 24.000000 -0.670798 127.000000 0.144252 144.000000 0.090848
246602.000000 1.717886 257.000000 247.000000 132.000000 0.065403 163.000000 0.232914 188.000000 -0.021616 227.000000 -0.041929 24.000000 -0.684043 119.000000 0.108020 134.000000 0.037017
247116.000000 1.741053 267.000000 268.000000 142.000000 -0.009011 169.000000 0.226035 197.000000 -0.060044 247.000000 -0.058665 25.000000 -0.680202 159.000000 0.096537 197.000000 -0.060044
248436.000000 1.741195 257.000000 260.000000 143.000000 0.039450 169.000000 0.228228 206.000000 -0.035506 241.000000 -0.043452 24.000000 -0.715341 155.000000 0.103368 206.000000 -0.035506
248953.000000 1.585373 257.000000 252.000000 131.000000 0.048923 167.000000 0.211162 187.000000 -0.030547 227.000000 -0.033041 26.000000 -0.590158 150.000000 0.130680 187.000000 -0.030547
249205.000000 1.694873 252.000000 268.000000 143.000000 0.018002 174.000000 0.214108 199.000000 -0.036395 245.000000 -0.055614 26.000000 -0.594564 159.000000 0.115914 197.000000 -0.050972
249473.000000 1.669448 268.000000 268.000000 140.000000 0.026636 176.000000 0.212181 230.000000 0.007555 242.000000 -0.024609 26.000000 -0.626287 159.000000 0.138358 230.000000 0.007555
250015.000000 1.663884 274.000000 258.000000 136.000000 0.038577 175.000000 0.237731 196.000000 -0.031126 234.000000 -0.013243 23.000000 -0.692134 150.000000 0.091774 194.000000 -0.019120
250523.000000 1.638982 250.000000 259.000000 140.000000 0.056551 171.000000 0.233621 196.000000 -0.022413 238.000000 -0.062930 26.000000 -0.581770 154.000000 0.103431 193.000000 -0.036003
252633.000000 1.660707 253.000000 244.000000 140.000000 0.068429 167.000000 0.248136 182.000000 -0.033338 223.000000 -0.043134 23.000000 -0.694590 119.000000 0.133711 140.000000 0.068429
252877.000000 1.741552 244.000000 258.000000 141.000000 0.017306 175.000000 0.223964 200.000000 -0.031083 236.000000 -0.038294 23.000000 -0.691786 127.000000 0.109030 142.000000 0.023121
254185.000000 1.693632 268.000000 265.000000 147.000000 0.049751 180.000000 0.252117 200.000000 -0.052853 244.000000 -0.051033 24.000000 -0.711791 132.000000 0.122275 147.000000 0.049751
255210.000000 1.566472 244.000000 260.000000 140.000000 0.050991 175.000000 0.232978 193.000000 -0.039342 234.000000 -0.024343 24.000000 -0.659987 123.000000 0.109578 141.000000 0.041634
255470.000000 1.675217 260.000000 263.000000 145.000000 0.062755 182.000000 0.244843 201.000000 -0.064404 243.000000 -0.067835 28.000000 -0.630740 155.000000 0.134165 200.000000 -0.049216
256525.000000 1.524880 268.000000 263.000000 146.000000 0.061144 181.000000 0.237367 225.000000 -0.045485 237.000000 -0.040876 25.000000 -0.671690 156.000000 0.140422 225.000000 -0.045485
256788.000000 1.656065 263.000000 257.000000 142.000000 0.050397 164.000000 0.240549 207.000000 -0.042054 237.000000 -0.065583 27.000000 -0.592149 128.000000 0.141886 143.000000 0.051212
258079.000000 1.711612 270.000000 265.000000 148.000000 0.052887 185.000000 0.231038 231.000000 -0.025531 240.000000 -0.010514 25.000000 -0.707823 158.000000 0.134187 231.000000 -0.025531
259133.000000 1.517087 262.000000 254.000000 145.000000 0.057934 165.000000 0.231145 197.000000 -0.047303 231.000000 -0.003166 25.000000 -0.625833 128.000000 0.139563 145.000000 0.057934
259638.000000 1.680737 251.000000 252.000000 135.000000 0.040960 169.000000 0.233230 188.000000 -0.022163 230.000000 -0.038277 23.000000 -0.673026 121.000000 0.120865 135.000000 0.040960
259890.000000 1.708415 252.000000 272.000000 147.000000 0.039392 181.000000 0.208547 205.000000 -0.053635 261.000000 0.586050 24.000000 -0.690128 159.000000 0.093407 202.000000 -0.073776
260963.000000 1.640316 266.000000 252.000000 143.000000 0.035380 174.000000 0.229924 192.000000 -0.019449 229.000000 -0.006334 26.000000 -0.642099 128.000000 0.138124 144.000000 0.041603
261472.000000 1.681126 257.000000 254.000000 143.000000 0.051864 177.000000 0.241972 204.000000 -0.049625 233.000000 -0.028229 27.000000 -0.639314 124.000000 0.138167 143.000000 0.051864
263034.000000 1.608196 256.000000 257.000000 137.000000 0.078403 174.000000 0.242260 204.000000 -0.017207 234.000000 -0.027628 27.000000 -0.639796 127.000000 0.133293 139.000000 0.079720
263291.000000 1.657435 257.000000 504.000000 387.000000 0.084189 422.000000 0.250284 441.000000 -0.022537 481.000000 -0.028257 27.000000 -0.656624 248.000000 1.686865 277.000000 -0.562476
263795.000000 1.698903 504.000000 258.000000 144.000000 0.066962 177.000000 0.251281 196.000000 -0.028874 236.000000 -0.009892 25.000000 -0.688122 133.000000 0.137166 144.000000 0.066962
264053.000000 1.732115 258.000000 518.000000 393.000000 0.045491 429.000000 0.227571 446.000000 -0.017913 495.000000 -0.067318 24.000000 -0.709451 254.000000 1.679589 285.000000 -0.479438
264571.000000 1.670252 518.000000 282.000000 140.000000 0.046807 190.000000 0.204171 211.000000 -0.054295 258.000000 -0.054201 24.000000 -0.671193 164.000000 0.143937 205.000000 -0.034657
264853.000000 1.696738 282.000000 269.000000 147.000000 0.040410 181.000000 0.214986 216.000000 -0.017286 257.000000 0.605661 27.000000 -0.696620 160.000000 0.132964 216.000000 -0.017286
265122.000000 1.727337 269.000000 254.000000 143.000000 0.045410 176.000000 0.235281 191.000000 -0.017588 233.000000 -0.027870 23.000000 -0.709328 129.000000 0.123482 144.000000 0.061899
266657.000000 1.677992 264.000000 267.000000 141.000000 0.032024 176.000000 0.220170 195.000000 -0.013169 242.000000 -0.037885 27.000000 -0.615411 158.000000 0.118434 195.000000 -0.013169
266924.000000 1.704966 267.000000 277.000000 149.000000 0.039711 174.000000 0.228406 205.000000 -0.045924 255.000000 -0.062762 26.000000 -0.676853 165.000000 0.132749 205.000000 -0.045924
267966.000000 1.691314 250.000000 249.000000 139.000000 0.068530 169.000000 0.247882 193.000000 -0.016365 225.000000 -0.019218 22.000000 -0.703625 122.000000 0.133390 139.000000 0.068530
269275.000000 1.740630 263.000000 274.000000 146.000000 0.029433 174.000000 0.220013 179.000000 0.180906 249.000000 -0.056679 24.000000 -0.709244 162.000000 0.143148 179.000000 0.180906
269549.000000 1.616301 274.000000 254.000000 142.000000 0.057143 170.000000 0.258840 190.000000 -0.020456 233.000000 -0.064577 25.000000 -0.693479 151.000000 0.117144 190.000000 -0.020456
269803.000000 1.697980 254.000000 246.000000 138.000000 0.102556 170.000000 0.263702 194.000000 -0.023556 227.000000 -0.049215 23.000000 -0.708040 126.000000 0.134891 140.000000 0.079546
270544.000000 1.774045 249.000000 261.000000 146.000000 0.074088 170.000000 0.231082 203.000000 -0.022196 240.000000 -0.036819 26.000000 -0.678463 134.000000 0.115513 146.000000 0.074088
271346.000000 1.681830 265.000000 256.000000 137.000000 0.064689 172.000000 0.266505 194.000000 -0.039845 234.000000 -0.048889 26.000000 -0.679863 149.000000 0.120018 194.000000 -0.039845
272369.000000 1.489231 249.000000 242.000000 130.000000 0.084494 163.000000 0.249686 188.000000 -0.029985 220.000000 -0.044513 24.000000 -0.622478 139.000000 0.151939 188.000000 -0.029985
272611.000000 1.656414 242.000000 254.000000 141.000000 0.050294 173.000000 0.249231 191.000000 -0.024500 232.000000 -0.019796 24.000000 -0.686299 127.000000 0.128837 141.000000 0.050294
273127.000000 1.815869 262.000000 270.000000 147.000000 0.024998 180.000000 0.221709 201.000000 -0.046238 260.000000 0.706236 23.000000 -0.751422 161.000000 0.121144 201.000000 -0.046238
273913.000000 1.590485 253.000000 258.000000 140.000000 0.056443 175.000000 0.235047 205.000000 -0.037521 236.000000 -0.054184 26.000000 -0.707556 125.000000 0.126302 141.000000 0.057227
274427.000000 1.810691 256.000000 492.000000 381.000000 0.073984 410.000000 0.205217 432.000000 -0.044076 473.000000 -0.071834 24.000000 -0.718824 246.000000 1.582755 277.000000 -0.454594
275442.000000 1.668655 263.000000 267.000000 141.000000 0.061459 180.000000 0.229403 199.000000 -0.049658 244.000000 -0.048922 29.000000 -0.639996 159.000000 0.139905 199.000000 -0.049658
277488.000000 1.587413 264.000000 265.000000 140.000000 0.048280 175.000000 0.231333 193.000000 -0.015378 240.000000 -0.034014 28.000000 -0.665878 158.000000 0.142339 193.000000 -0.015378
278541.000000 1.536907 254.000000 513.000000 384.000000 0.083304 429.000000 0.236285 449.000000 -0.044843 492.000000 -0.064059 24.000000 -0.659566 250.000000 1.621899 289.000000 -0.352222
279840.000000 1.593025 271.000000 267.000000 143.000000 0.022620 168.000000 0.233575 198.000000 -0.028872 255.000000 0.545843 25.000000 -0.666208 159.000000 0.124455 198.000000 -0.028872
280381.000000 1.690581 274.000000 256.000000 130.000000 0.105233 175.000000 0.244845 193.000000 -0.025202 233.000000 -0.024575 27.000000 -0.664652 132.000000 0.117897 193.000000 -0.025202
281142.000000 1.663303 258.000000 263.000000 141.000000 0.058467 181.000000 0.238998 200.000000 -0.052914 243.000000 -0.083197 25.000000 -0.666854 156.000000 0.105680 199.000000 -0.042240
281405.000000 1.707382 263.000000 261.000000 140.000000 0.045618 175.000000 0.223433 202.000000 -0.048479 240.000000 -0.082775 22.000000 -0.706506 122.000000 0.109207 142.000000 0.036777
282465.000000 1.666115 266.000000 266.000000 140.000000 0.049965 178.000000 0.238745 197.000000 -0.046254 243.000000 -0.045391 26.000000 -0.662755 158.000000 0.100983 197.000000 -0.046254
282731.000000 1.679516 266.000000 252.000000 137.000000 0.029512 170.000000 0.232397 191.000000 -0.037761 240.000000 0.552914 27.000000 -0.635516 121.000000 0.114372 138.000000 0.040264
282983.000000 1.734467 252.000000 246.000000 138.000000 0.037601 164.000000 0.226866 184.000000 -0.028524 225.000000 -0.023194 17.000000 -0.722395 122.000000 0.112117 138.000000 0.037601
283229.000000 1.719220 246.000000 259.000000 132.000000 0.054999 174.000000 0.230581 197.000000 -0.037038 235.000000 -0.005957 24.000000 -0.687599 121.000000 0.082946 132.000000 0.054999
283756.000000 1.702473 268.000000 266.000000 144.000000 0.053673 177.000000 0.223138 200.000000 -0.024497 257.000000 0.663120 26.000000 -0.666226 158.000000 0.123878 200.000000 -0.024497
285077.000000 1.713691 259.000000 248.000000 143.000000 0.083490 166.000000 0.240767 215.000000 -0.016331 225.000000 -0.011629 26.000000 -0.646876 127.000000 0.115654 135.000000 0.092503
286102.000000 1.705066 272.000000 268.000000 146.000000 0.072399 170.000000 0.238119 200.000000 -0.024155 245.000000 -0.029607 25.000000 -0.687866 158.000000 0.148338 200.000000 -0.024155
286632.000000 1.783335 262.000000 264.000000 145.000000 0.057514 169.000000 0.240896 196.000000 -0.044450 243.000000 -0.039155 24.000000 -0.697718 132.000000 0.118705 146.000000 0.054035
286896.000000 1.701862 264.000000 257.000000 151.000000 0.080945 173.000000 0.243151 220.000000 -0.034277 233.000000 -0.041299 20.000000 -0.716052 144.000000 0.103248 151.000000 0.080945
288719.000000 1.661598 269.000000 259.000000 139.000000 0.081634 177.000000 0.239671 198.000000 -0.042006 239.000000 -0.074215 22.000000 -0.713903 151.000000 0.126053 195.000000 -0.030626
289235.000000 1.745454 257.000000 254.000000 138.000000 0.066897 175.000000 0.238010 193.000000 -0.027649 234.000000 -0.032258 24.000000 -0.684093 127.000000 0.105063 138.000000 0.066897
290795.000000 1.726424 271.000000 260.000000 147.000000 0.037104 169.000000 0.235380 176.000000 0.205929 239.000000 -0.031281 24.000000 -0.700051 128.000000 0.108013 148.000000 0.035003
291317.000000 1.575315 262.000000 252.000000 142.000000 0.059825 175.000000 0.245581 200.000000 -0.023823 232.000000 -0.073508 26.000000 -0.646329 127.000000 0.127632 144.000000 0.056690
291569.000000 1.717604 252.000000 254.000000 143.000000 0.041100 170.000000 0.235392 192.000000 -0.033934 232.000000 -0.028043 24.000000 -0.667739 127.000000 0.130317 146.000000 0.079736
297570.000000 1.688116 280.000000 259.000000 142.000000 0.056005 176.000000 0.259326 195.000000 -0.044860 237.000000 -0.058560 25.000000 -0.720977 150.000000 0.121382 195.000000 -0.044860
297829.000000 1.764716 259.000000 247.000000 139.000000 0.086755 170.000000 0.251509 171.000000 0.248342 228.000000 -0.011092 26.000000 -0.690395 126.000000 0.153432 140.000000 0.072665
298579.000000 1.615201 253.000000 263.000000 143.000000 0.068248 176.000000 0.236224 194.000000 -0.054968 239.000000 -0.016363 24.000000 -0.674531 156.000000 0.122165 194.000000 -0.054968
298842.000000 1.692694 263.000000 269.000000 144.000000 0.069659 170.000000 0.233263 178.000000 0.179061 248.000000 -0.046206 25.000000 -0.706585 159.000000 0.162104 178.000000 0.179061
300169.000000 1.745691 254.000000 245.000000 136.000000 0.084566 168.000000 0.270770 201.000000 -0.027085 225.000000 -0.052119 24.000000 -0.703461 126.000000 0.150396 136.000000 0.084566
300414.000000 1.794462 245.000000 248.000000 149.000000 0.072259 169.000000 0.261881 187.000000 -0.017461 228.000000 -0.015565 23.000000 -0.721180 128.000000 0.121665 136.000000 0.074471
302491.000000 1.763009 253.000000 247.000000 140.000000 0.112337 170.000000 0.269262 188.000000 -0.024061 226.000000 -0.020879 25.000000 -0.690848 127.000000 0.141035 140.000000 0.112337
303797.000000 1.691475 278.000000 265.000000 142.000000 0.060655 176.000000 0.237225 196.000000 -0.044467 241.000000 -0.049499 28.000000 -0.620278 152.000000 0.111940 195.000000 -0.033966
304062.000000 1.732008 265.000000 253.000000 139.000000 0.084684 171.000000 0.242478 195.000000 -0.017882 231.000000 -0.041957 25.000000 -0.680609 126.000000 0.127522 139.000000 0.084684
304315.000000 1.758214 253.000000 512.000000 263.000000 -0.234125 324.000000 0.290814 367.000000 -0.047851 489.000000 -0.042786 24.000000 -0.690049 200.000000 0.632525 232.000000 -0.754204
305081.000000 1.638166 254.000000 255.000000 136.000000 0.045011 175.000000 0.241676 193.000000 -0.018811 245.000000 0.542131 21.000000 -0.683305 117.000000 0.098930 140.000000 0.023114
306667.000000 1.671490 251.000000 258.000000 140.000000 0.048307 174.000000 0.238714 197.000000 -0.030753 247.000000 0.562287 26.000000 -0.608652 126.000000 0.098339 141.000000 0.058888
307182.000000 1.722962 257.000000 258.000000 147.000000 0.051582 177.000000 0.232008 193.000000 -0.024872 237.000000 -0.025549 23.000000 -0.685141 134.000000 0.083949 147.000000 0.051582
307704.000000 1.606737 264.000000 272.000000 147.000000 0.049881 174.000000 0.207261 212.000000 -0.011799 260.000000 0.463777 25.000000 -0.627401 162.000000 0.135427 212.000000 -0.011799
307976.000000 1.703276 272.000000 272.000000 147.000000 0.039349 174.000000 0.215960 203.000000 -0.030328 249.000000 -0.033919 24.000000 -0.668295 162.000000 0.122356 203.000000 -0.030328
308521.000000 1.629042 273.000000 252.000000 137.000000 0.034346 169.000000 0.240035 195.000000 -0.047348 242.000000 0.587854 23.000000 -0.675126 120.000000 0.108123 137.000000 0.034346
310068.000000 1.497812 532.000000 267.000000 146.000000 0.094796 175.000000 0.252743 202.000000 -0.046158 246.000000 -0.056799 27.000000 -0.609981 158.000000 0.158228 202.000000 -0.046158
312678.000000 1.455422 268.000000 256.000000 148.000000 0.123409 171.000000 0.258587 191.000000 -0.063326 234.000000 -0.039611 25.000000 -0.626570 146.000000 0.139476 151.000000 0.136888
315769.000000 1.716112 250.000000 249.000000 134.000000 0.067209 169.000000 0.259984 193.000000 -0.028734 241.000000 0.789637 22.000000 -0.746303 117.000000 0.132287 136.000000 0.049058
316291.000000 1.797994 273.000000 268.000000 141.000000 0.090642 187.000000 0.262713 201.000000 -0.032849 246.000000 -0.033772 26.000000 -0.719983 158.000000 0.140626 201.000000 -0.032849
319698.000000 1.647711 510.000000 256.000000 141.000000 0.078891 176.000000 0.245817 192.000000 -0.016112 233.000000 -0.038134 27.000000 -0.601644 152.000000 0.130113 192.000000 -0.016112
320215.000000 1.754198 261.000000 254.000000 142.000000 0.066117 174.000000 0.259624 190.000000 -0.032523 236.000000 -0.056602 24.000000 -0.678154 122.000000 0.125239 146.000000 0.096713
321013.000000 1.717490 281.000000 264.000000 152.000000 0.110858 177.000000 0.249388 197.000000 -0.035327 242.000000 -0.049183 24.000000 -0.729156 151.000000 0.121392 156.000000 0.108131
324102.000000 1.716268 249.000000 245.000000 139.000000 0.105489 165.000000 0.238904 182.000000 0.025660 223.000000 0.001582 22.000000 -0.727258 122.000000 0.131117 139.000000 0.105489
325921.000000 1.608835 259.000000 247.000000 146.000000 0.095681 168.000000 0.242057 185.000000 -0.022866 225.000000 -0.050877 27.000000 -0.624427 140.000000 0.129489 147.000000 0.087906
326168.000000 1.658573 247.000000 250.000000 135.000000 0.054613 167.000000 0.220956 185.000000 0.003356 228.000000 -0.058937 24.000000 -0.682479 120.000000 0.130695 135.000000 0.054613
326418.000000 1.675623 250.000000 247.000000 144.000000 0.083297 165.000000 0.244737 184.000000 -0.016659 225.000000 -0.046147 24.000000 -0.718136 140.000000 0.124708 146.000000 0.087215
326665.000000 1.723947 247.000000 260.000000 142.000000 0.054861 168.000000 0.235847 191.000000 -0.028809 239.000000 -0.055771 25.000000 -0.691948 150.000000 0.113027 191.000000 -0.028809
327720.000000 1.691414 262.000000 268.000000 141.000000 0.106555 182.000000 0.244077 199.000000 -0.036927 252.000000 -0.055722 25.000000 -0.692299 159.000000 0.145976 176.000000 0.218341
328976.000000 1.808971 248.000000 263.000000 142.000000 0.061753 175.000000 0.229214 228.000000 -0.031491 239.000000 -0.052072 24.000000 -0.725951 156.000000 0.101095 228.000000 -0.031491
329510.000000 1.716857 271.000000 260.000000 140.000000 0.075410 180.000000 0.247258 199.000000 -0.028902 239.000000 -0.053776 25.000000 -0.695511 150.000000 0.142572 196.000000 -0.037147
330238.000000 0.873212 212.000000 306.000000 193.000000 -0.108113 220.000000 0.043010 240.000000 -0.183417 284.000000 -0.106127 33.000000 -0.970958 118.000000 0.643124 193.000000 -0.108113
330544.000000 1.607432 306.000000 239.000000 95.000000 -0.187208 163.000000 0.208984 181.000000 -0.045435 218.000000 -0.048178 25.000000 -0.703663 137.000000 0.195191 150.000000 0.182998
330783.000000 1.725237 239.000000 252.000000 147.000000 0.077981 171.000000 0.242883 195.000000 -0.024514 228.000000 -0.020451 24.000000 -0.690923 125.000000 0.132619 137.000000 0.058794
331035.000000 1.806853 252.000000 253.000000 144.000000 0.133558 173.000000 0.244183 190.000000 -0.042354 232.000000 -0.051539 26.000000 -0.721139 149.000000 0.146881 190.000000 -0.042354
332084.000000 1.659395 264.000000 248.000000 148.000000 0.090272 168.000000 0.246759 184.000000 -0.041173 227.000000 -0.065529 24.000000 -0.684807 139.000000 0.136197 148.000000 0.090272
332834.000000 1.586908 247.000000 245.000000 148.000000 0.100030 169.000000 0.258886 189.000000 -0.023856 222.000000 0.020155 24.000000 -0.685675 126.000000 0.121396 136.000000 0.070674
333079.000000 1.508557 245.000000 246.000000 139.000000 0.137785 169.000000 0.245845 184.000000 -0.028997 223.000000 -0.012226 24.000000 -0.640330 145.000000 0.142707 184.000000 -0.028997
333325.000000 1.651977 246.000000 258.000000 142.000000 0.103561 175.000000 0.242731 198.000000 -0.035389 247.000000 0.670521 25.000000 -0.683758 151.000000 0.142542 198.000000 -0.035389
333583.000000 1.746240 258.000000 535.000000 417.000000 0.077113 445.000000 0.230833 466.000000 -0.056740 524.000000 0.569201 23.000000 -0.732116 265.000000 1.779984 295.000000 -0.585799
335577.000000 0.647868 199.000000 317.000000 187.000000 -0.103820 228.000000 0.050046 246.000000 -0.186867 293.000000 -0.068495 24.000000 -1.211520 108.000000 0.605725 190.000000 -0.118351
335894.000000 1.719673 317.000000 260.000000 129.000000 0.117335 162.000000 0.218135 188.000000 -0.070928 237.000000 -0.086430 26.000000 -0.676535 155.000000 0.182586 188.000000 -0.070928
338204.000000 1.577112 268.000000 262.000000 137.000000 0.060960 175.000000 0.257381 195.000000 -0.027792 240.000000 -0.072855 29.000000 -0.585536 150.000000 0.121492 192.000000 -0.011319
338466.000000 1.705938 262.000000 266.000000 143.000000 0.071691 171.000000 0.229045 195.000000 -0.030063 242.000000 -0.015629 25.000000 -0.720567 134.000000 0.119496 144.000000 0.063180
339746.000000 1.759527 264.000000 259.000000 139.000000 0.040457 174.000000 0.239496 201.000000 -0.020457 251.000000 0.875486 23.000000 -0.715568 127.000000 0.099517 140.000000 0.046083
340799.000000 1.738399 264.000000 260.000000 144.000000 0.067350 178.000000 0.250345 192.000000 -0.027445 240.000000 -0.056943 27.000000 -0.651225 155.000000 0.133322 192.000000 -0.027445
342352.000000 1.716895 270.000000 262.000000 146.000000 0.043545 179.000000 0.243261 194.000000 -0.028542 241.000000 -0.055627 26.000000 -0.691226 155.000000 0.109423 194.000000 -0.028542
342614.000000 1.717630 262.000000 266.000000 142.000000 0.044691 181.000000 0.241272 206.000000 0.006851 243.000000 -0.031441 25.000000 -0.700631 152.000000 0.112088 206.000000 0.006851
343653.000000 1.741581 253.000000 251.000000 138.000000 0.089094 173.000000 0.240202 196.000000 -0.012337 231.000000 -0.078354 22.000000 -0.691586 126.000000 0.132370 140.000000 0.066006
343904.000000 1.749123 251.000000 253.000000 147.000000 0.053027 170.000000 0.245047 193.000000 -0.003525 242.000000 0.682854 22.000000 -0.712380 126.000000 0.087224 136.000000 0.042460
344157.000000 1.681897 253.000000 276.000000 144.000000 0.051193 186.000000 0.217759 206.000000 -0.050344 255.000000 -0.083497 24.000000 -0.675376 162.000000 0.135865 206.000000 -0.050344
344968.000000 1.784400 263.000000 261.000000 142.000000 0.044955 175.000000 0.243716 194.000000 -0.045124 239.000000 -0.015849 22.000000 -0.738781 149.000000 0.094610 194.000000 -0.045124
346247.000000 1.795536 253.000000 262.000000 139.000000 0.029013 173.000000 0.211398 196.000000 -0.022253 250.000000 0.675928 24.000000 -0.692411 156.000000 0.095078 196.000000 -0.022253
346509.000000 1.807653 262.000000 282.000000 150.000000 0.045453 192.000000 0.212744 209.000000 -0.022116 258.000000 -0.021507 24.000000 -0.719247 168.000000 0.134783 186.000000 0.183215
346791.000000 1.684039 282.000000 270.000000 145.000000 0.070177 181.000000 0.237700 200.000000 -0.040012 247.000000 -0.059168 27.000000 -0.657715 156.000000 0.127354 200.000000 -0.040012
347061.000000 1.731880 270.000000 259.000000 137.000000 0.032980 173.000000 0.250894 194.000000 -0.033605 237.000000 -0.068150 23.000000 -0.724342 126.000000 0.098168 139.000000 0.059454
348333.000000 1.713669 252.000000 254.000000 144.000000 0.103699 174.000000 0.257652 192.000000 -0.024903 231.000000 -0.029715 24.000000 -0.704480 150.000000 0.116568 192.000000 -0.024903
348854.000000 1.799983 267.000000 277.000000 149.000000 0.048656 189.000000 0.216021 211.000000 -0.024293 256.000000 -0.067131 25.000000 -0.706429 164.000000 0.162039 211.000000 -0.024293
349650.000000 1.686707 253.000000 255.000000 134.000000 0.057214 170.000000 0.239815 193.000000 -0.050532 231.000000 -0.030550 26.000000 -0.633590 118.000000 0.104833 135.000000 0.068186
349905.000000 1.778680 255.000000 246.000000 135.000000 0.061302 163.000000 0.228462 193.000000 -0.009532 236.000000 0.724296 24.000000 -0.669723 115.000000 0.112571 135.000000 0.061302
350928.000000 1.672678 264.000000 268.000000 143.000000 0.051975 170.000000 0.231756 199.000000 -0.051868 247.000000 -0.106866 23.000000 -0.711510 159.000000 0.139877 199.000000 -0.051868
351196.000000 1.731174 268.000000 277.000000 152.000000 0.046317 180.000000 0.234437 209.000000 -0.052694 255.000000 -0.074152 24.000000 -0.699435 163.000000 0.139795 209.000000 -0.052694
352239.000000 1.596392 252.000000 252.000000 134.000000 0.058667 168.000000 0.251629 191.000000 -0.049454 230.000000 -0.069470 23.000000 -0.718531 114.000000 0.127444 136.000000 0.040360
352491.000000 1.728479 252.000000 259.000000 141.000000 0.023432 174.000000 0.230253 195.000000 -0.043430 238.000000 -0.075531 24.000000 -0.711975 120.000000 0.107239 141.000000 0.023432
353822.000000 1.747473 274.000000 258.000000 141.000000 0.074152 176.000000 0.258152 212.000000 -0.055846 236.000000 -0.051079 24.000000 -0.743674 127.000000 0.144827 143.000000 0.065938
354578.000000 1.771162 254.000000 256.000000 139.000000 0.026065 170.000000 0.251835 189.000000 -0.013026 232.000000 -0.040520 25.000000 -0.590298 116.000000 0.102114 141.000000 0.027508
355901.000000 1.639087 273.000000 260.000000 148.000000 0.097746 173.000000 0.276914 202.000000 -0.025547 239.000000 -0.026176 27.000000 -0.703388 137.000000 0.139640 148.000000 0.097746
356907.000000 1.581446 253.000000 256.000000 139.000000 0.051523 173.000000 0.227402 194.000000 -0.035796 233.000000 -0.054995 22.000000 -0.680058 152.000000 0.122243 194.000000 -0.035796
358240.000000 1.637338 274.000000 258.000000 146.000000 0.058747 169.000000 0.245786 207.000000 -0.037004 238.000000 -0.042662 26.000000 -0.670138 126.000000 0.136365 147.000000 0.061380
358750.000000 1.689608 252.000000 253.000000 142.000000 0.031945 173.000000 0.236284 197.000000 -0.024437 241.000000 0.597679 21.000000 -0.698592 120.000000 0.111583 142.000000 0.031945
359814.000000 1.632024 281.000000 270.000000 147.000000 0.043765 173.000000 0.219453 180.000000 0.210064 249.000000 -0.083386 25.000000 -0.647789 161.000000 0.140143 180.000000 0.210064
360084.000000 1.666661 270.000000 259.000000 143.000000 0.045335 177.000000 0.220957 221.000000 -0.025251 234.000000 -0.025363 23.000000 -0.681022 124.000000 0.116478 143.000000 0.045335
360866.000000 1.621818 257.000000 249.000000 141.000000 0.067695 172.000000 0.239719 190.000000 -0.019919 228.000000 -0.016536 24.000000 -0.659794 128.000000 0.131896 132.000000 0.105140
361115.000000 1.663573 249.000000 253.000000 139.000000 0.057025 172.000000 0.236927 189.000000 -0.028529 230.000000 -0.035799 24.000000 -0.643216 125.000000 0.125521 139.000000 0.057025
362448.000000 1.688467 266.000000 256.000000 136.000000 0.063041 172.000000 0.246082 196.000000 -0.004342 233.000000 -0.023401 23.000000 -0.678415 125.000000 0.105125 138.000000 0.054702
362704.000000 1.737636 256.000000 266.000000 142.000000 0.024840 180.000000 0.218542 200.000000 -0.019968 254.000000 0.559438 27.000000 -0.626000 127.000000 0.111626 142.000000 0.024840
362970.000000 1.742527 266.000000 252.000000 137.000000 0.045469 170.000000 0.226097 187.000000 -0.045048 229.000000 -0.021787 21.000000 -0.705798 124.000000 0.092773 137.000000 0.045469
363734.000000 1.685001 261.000000 266.000000 145.000000 0.059784 181.000000 0.228074 198.000000 -0.040250 257.000000 0.903273 26.000000 -0.673622 158.000000 0.129830 198.000000 -0.040250
364000.000000 1.722552 266.000000 272.000000 120.000000 0.004596 187.000000 0.237221 207.000000 -0.024535 250.000000 -0.050694 4.000000 1.356000 162.000000 0.161332 204.000000 -0.014488
365307.000000 1.696801 262.000000 248.000000 146.000000 0.052825 167.000000 0.226927 191.000000 -0.022682 225.000000 -0.017995 25.000000 -0.657917 123.000000 0.095789 135.000000 0.058547
366071.000000 1.595006 266.000000 264.000000 144.000000 0.094657 180.000000 0.234016 201.000000 -0.024197 252.000000 0.531053 24.000000 -0.656595 157.000000 0.160785 198.000000 -0.018288
366335.000000 1.674828 264.000000 269.000000 141.000000 0.072887 181.000000 0.224501 201.000000 -0.036754 246.000000 -0.040093 24.000000 -0.675504 157.000000 0.136006 201.000000 -0.036754
367366.000000 1.588697 245.000000 255.000000 133.000000 0.091719 171.000000 0.221770 191.000000 -0.016834 235.000000 -0.060061 23.000000 -0.665282 144.000000 0.111595 191.000000 -0.016834
367876.000000 1.763591 255.000000 256.000000 143.000000 0.076711 174.000000 0.240757 196.000000 -0.019275 234.000000 -0.014074 23.000000 -0.713984 126.000000 0.113826 130.000000 0.099360
368927.000000 1.707105 266.000000 264.000000 142.000000 0.075859 178.000000 0.233088 204.000000 -0.023102 241.000000 -0.030247 25.000000 -0.692646 151.000000 0.109903 195.000000 -0.047052
369191.000000 1.763783 264.000000 247.000000 144.000000 0.066081 167.000000 0.231853 217.000000 -0.004432 221.000000 0.000254 23.000000 -0.706188 120.000000 0.121471 132.000000 0.079089
370209.000000 1.784107 266.000000 266.000000 147.000000 0.072148 170.000000 0.231066 239.000000 -0.038807 246.000000 -0.063306 26.000000 -0.714372 158.000000 0.143073 239.000000 -0.038807
370475.000000 1.825908 266.000000 259.000000 141.000000 0.027229 168.000000 0.219717 200.000000 -0.048434 236.000000 -0.034593 23.000000 -0.741192 127.000000 0.089628 145.000000 0.030551
372816.000000 1.831225 270.000000 259.000000 142.000000 0.087368 174.000000 0.274609 196.000000 -0.028164 238.000000 -0.041520 25.000000 -0.739385 123.000000 0.123418 142.000000 0.087368
373595.000000 1.540110 520.000000 482.000000 399.000000 0.140975 420.000000 0.257024 436.000000 -0.041894 464.000000 -0.193383 25.000000 -0.675081 253.000000 1.691305 285.000000 -0.512333
374345.000000 1.825188 268.000000 263.000000 141.000000 0.075079 162.000000 0.224844 193.000000 -0.054703 236.000000 -0.011037 24.000000 -0.771316 156.000000 0.137416 193.000000 -0.054703
374608.000000 1.801611 263.000000 274.000000 150.000000 0.073831 180.000000 0.248110 209.000000 -0.047486 253.000000 -0.042191 28.000000 -0.731492 163.000000 0.155305 209.000000 -0.047486
377985.000000 1.635185 254.000000 247.000000 128.000000 0.078907 164.000000 0.206628 191.000000 -0.035691 226.000000 -0.088593 14.000000 -0.411586 147.000000 0.119767 183.000000 -0.003747
378232.000000 1.715638 247.000000 253.000000 141.000000 0.083546 169.000000 0.252884 186.000000 -0.016537 232.000000 -0.038294 22.000000 -0.724894 122.000000 0.102197 141.000000 0.083546
379545.000000 1.686423 278.000000 260.000000 153.000000 0.100093 176.000000 0.241563 199.000000 -0.049659 236.000000 -0.040081 25.000000 -0.668735 152.000000 0.105219 155.000000 0.076097
379805.000000 1.709609 260.000000 246.000000 144.000000 0.065721 167.000000 0.216222 188.000000 -0.018825 225.000000 -0.039186 24.000000 -0.663242 120.000000 0.114543 131.000000 0.053792
380553.000000 1.665660 251.000000 257.000000 138.000000 0.038632 174.000000 0.226252 190.000000 -0.019642 232.000000 -0.019279 25.000000 -0.675938 122.000000 0.102395 138.000000 0.038632
380810.000000 1.654829 257.000000 261.000000 143.000000 0.049039 177.000000 0.241439 195.000000 -0.023356 236.000000 -0.035564 24.000000 -0.698665 124.000000 0.098630 148.000000 0.093066
381071.000000 1.697464 261.000000 208.000000 144.000000 0.150472 168.000000 0.243451 179.000000 0.203889 186.000000 0.007870 24.000000 -0.681000 121.000000 0.217932 146.000000 0.134673
381279.000000 0.812227 208.000000 331.000000 200.000000 -0.140404 242.000000 0.047166 257.000000 -0.183057 319.000000 0.658774 19.000000 -1.238512 116.000000 0.557254 200.000000 -0.140404
381610.000000 1.639872 331.000000 535.000000 418.000000 0.024333 457.000000 0.232901 474.000000 -0.004529 514.000000 -0.047480 25.000000 -0.693356 272.000000 1.636988 300.000000 -0.590361
382901.000000 1.666877 258.000000 265.000000 142.000000 0.047372 174.000000 0.228621 199.000000 -0.027289 242.000000 -0.058687 23.000000 -0.711649 158.000000 0.108954 199.000000 -0.027289
383166.000000 1.658428 265.000000 264.000000 141.000000 0.037245 178.000000 0.233698 203.000000 -0.003025 238.000000 -0.022227 26.000000 -0.701746 155.000000 0.115677 203.000000 -0.003025
383430.000000 1.700263 264.000000 262.000000 146.000000 0.075035 179.000000 0.260892 199.000000 -0.000676 240.000000 -0.018152 26.000000 -0.682072 156.000000 0.139359 197.000000 0.009717
384226.000000 1.602432 266.000000 250.000000 136.000000 0.095120 171.000000 0.257960 196.000000 -0.029925 228.000000 -0.018090 27.000000 -0.546739 127.000000 0.127755 136.000000 0.095120
389886.000000 1.840075 271.000000 275.000000 135.000000 0.070506 180.000000 0.220316 205.000000 -0.025846 251.000000 -0.039971 24.000000 -0.734911 163.000000 0.140319 205.000000 -0.025846
390426.000000 1.625377 265.000000 252.000000 140.000000 0.061618 173.000000 0.261693 191.000000 -0.021585 231.000000 -0.033198 27.000000 -0.649700 126.000000 0.118625 141.000000 0.062276
390938.000000 1.773840 260.000000 251.000000 146.000000 0.080151 173.000000 0.238447 188.000000 -0.008229 229.000000 -0.003619 25.000000 -0.699450 129.000000 0.120341 146.000000 0.080151
391694.000000 1.651347 254.000000 220.000000 145.000000 0.156567 167.000000 0.270973 198.000000 -0.157003 199.000000 -0.194026 25.000000 -0.688403 124.000000 0.233730 145.000000 0.156567
391914.000000 0.734768 220.000000 584.000000 459.000000 0.080848 485.000000 0.226160 514.000000 -0.057913 574.000000 0.693104 27.000000 -1.066375 312.000000 1.780175 346.000000 -0.482319
393515.000000 1.779227 255.000000 252.000000 143.000000 0.085599 174.000000 0.263527 193.000000 -0.011645 228.000000 -0.014014 25.000000 -0.661385 133.000000 0.111163 143.000000 0.085599
393767.000000 1.610140 252.000000 253.000000 138.000000 0.053213 174.000000 0.228971 193.000000 -0.031892 233.000000 -0.045419 24.000000 -0.657257 120.000000 0.108638 138.000000 0.053213
394289.000000 1.530334 269.000000 215.000000 144.000000 0.179216 169.000000 0.256083 176.000000 0.217370 192.000000 -0.079762 23.000000 -0.664852 128.000000 0.260691 144.000000 0.179216
394504.000000 0.691617 215.000000 325.000000 198.000000 -0.138197 237.000000 0.036455 253.000000 -0.156601 314.000000 0.543992 30.000000 -1.054246 117.000000 0.589858 198.000000 -0.138197
395585.000000 1.460378 259.000000 255.000000 149.000000 0.101281 175.000000 0.254215 192.000000 -0.019061 245.000000 0.569077 24.000000 -0.647364 134.000000 0.133713 142.000000 0.083570
396095.000000 1.645110 255.000000 259.000000 139.000000 0.073921 175.000000 0.243669 192.000000 -0.008682 248.000000 0.584044 21.000000 -0.707304 151.000000 0.123435 192.000000 -0.008682
397153.000000 1.516445 266.000000 251.000000 116.000000 0.078307 169.000000 0.211456 189.000000 -0.042179 231.000000 -0.089437 24.000000 -0.642489 120.000000 0.120235 154.000000 0.126987
398963.000000 1.599985 267.000000 266.000000 141.000000 0.034390 180.000000 0.225814 210.000000 -0.032947 245.000000 -0.079263 26.000000 -0.579136 122.000000 0.083793 142.000000 0.025174
399738.000000 1.557335 250.000000 246.000000 141.000000 0.106522 168.000000 0.242725 186.000000 0.002584 236.000000 0.584733 23.000000 -0.664611 126.000000 0.137415 136.000000 0.086835
399984.000000 1.588088 246.000000 255.000000 139.000000 0.061672 168.000000 0.226252 190.000000 -0.024640 235.000000 -0.056097 10.000000 0.214735 126.000000 0.111610 143.000000 0.074492
400506.000000 1.611191 267.000000 269.000000 144.000000 0.068042 168.000000 0.215971 202.000000 -0.045752 245.000000 -0.037164 25.000000 -0.686067 158.000000 0.113543 202.000000 -0.045752
402578.000000 1.654967 262.000000 273.000000 147.000000 0.064058 178.000000 0.220924 183.000000 0.191628 249.000000 -0.022038 28.000000 -0.572133 161.000000 0.152883 181.000000 0.183321
404387.000000 1.722694 250.000000 250.000000 139.000000 0.067352 174.000000 0.253953 192.000000 -0.015889 231.000000 -0.019039 23.000000 -0.722115 128.000000 0.112368 142.000000 0.069609
405181.000000 1.678040 280.000000 263.000000 140.000000 0.074166 175.000000 0.237242 197.000000 -0.037804 242.000000 -0.086691 25.000000 -0.679296 156.000000 0.119213 197.000000 -0.037804
405444.000000 1.723451 263.000000 255.000000 146.000000 0.107663 169.000000 0.255959 190.000000 -0.016236 233.000000 -0.041048 25.000000 -0.723840 145.000000 0.120829 151.000000 0.092899
406453.000000 1.713923 255.000000 254.000000 143.000000 0.090640 174.000000 0.255582 190.000000 -0.007129 230.000000 -0.019386 24.000000 -0.693836 126.000000 0.138743 145.000000 0.093069
407507.000000 1.643736 280.000000 265.000000 142.000000 0.069685 169.000000 0.245394 204.000000 -0.029045 242.000000 -0.040833 26.000000 -0.702396 158.000000 0.125658 204.000000 -0.029045
409041.000000 1.698966 261.000000 268.000000 146.000000 0.045050 173.000000 0.238164 205.000000 -0.037479 246.000000 -0.080599 23.000000 -0.711991 159.000000 0.128841 205.000000 -0.037479
409309.000000 1.767804 268.000000 264.000000 142.000000 0.052759 179.000000 0.230861 203.000000 -0.025486 243.000000 -0.074421 23.000000 -0.732778 157.000000 0.115613 198.000000 -0.024420
410862.000000 1.861159 251.000000 261.000000 143.000000 0.062668 177.000000 0.257977 199.000000 -0.013981 240.000000 -0.048887 23.000000 -0.784186 151.000000 0.125958 199.000000 -0.013981
411923.000000 1.749047 268.000000 278.000000 149.000000 0.028964 193.000000 0.254643 216.000000 -0.044825 253.000000 -0.037650 27.000000 -0.737838 165.000000 0.144247 216.000000 -0.044825
412201.000000 1.833198 278.000000 252.000000 144.000000 0.124482 170.000000 0.269799 190.000000 -0.021345 232.000000 -0.061798 23.000000 -0.775004 121.000000 0.143790 144.000000 0.124482
412950.000000 1.758182 252.000000 251.000000 134.000000 0.078214 169.000000 0.275546 185.000000 -0.013639 225.000000 -0.018340 26.000000 -0.702099 121.000000 0.126303 134.000000 0.078214
413201.000000 1.814842 251.000000 266.000000 153.000000 0.137324 180.000000 0.259173 196.000000 -0.018930 254.000000 0.752763 27.000000 -0.706522 157.000000 0.137621 196.000000 -0.018930
413467.000000 1.870727 266.000000 265.000000 146.000000 0.083399 176.000000 0.252413 199.000000 -0.003368 242.000000 -0.028902 24.000000 -0.771640 156.000000 0.136048 199.000000 -0.003368
416051.000000 1.687697 269.000000 261.000000 147.000000 0.096470 182.000000 0.252883 201.000000 -0.023887 239.000000 -0.046237 25.000000 -0.699152 152.000000 0.137866 201.000000 -0.023887
417077.000000 1.579870 250.000000 242.000000 143.000000 0.086742 163.000000 0.239779 183.000000 -0.004610 221.000000 -0.044046 26.000000 -0.585614 140.000000 0.128984 144.000000 0.053027
420137.000000 1.747931 262.000000 535.000000 240.000000 -0.683527 333.000000 0.271867 395.000000 -0.082677 510.000000 -0.028790 28.000000 -0.694105 204.000000 0.587994 240.000000 -0.683527
420930.000000 1.603749 258.000000 255.000000 138.000000 0.022948 175.000000 0.256413 195.000000 -0.021879 234.000000 -0.056017 23.000000 -0.699090 123.000000 0.099954 141.000000 0.010017
421945.000000 1.553447 251.000000 265.000000 141.000000 0.062331 175.000000 0.245313 199.000000 -0.033544 241.000000 -0.063526 27.000000 -0.631711 158.000000 0.138038 199.000000 -0.033544
423762.000000 1.736534 259.000000 251.000000 138.000000 0.068797 169.000000 0.246113 188.000000 -0.017678 238.000000 0.247197 24.000000 -0.704641 122.000000 0.102105 138.000000 0.068797
424268.000000 1.620517 255.000000 268.000000 140.000000 0.055483 179.000000 0.231943 202.000000 -0.046049 242.000000 -0.036627 27.000000 -0.636643 155.000000 0.099105 202.000000 -0.046049
424536.000000 1.695313 268.000000 262.000000 150.000000 0.082323 176.000000 0.243794 194.000000 -0.018682 238.000000 -0.027255 26.000000 -0.699062 156.000000 0.083483 194.000000 -0.018682
427130.000000 1.710393 265.000000 263.000000 144.000000 0.074753 179.000000 0.251930 197.000000 -0.024324 241.000000 0.001191 27.000000 -0.680532 156.000000 0.114989 197.000000 -0.024324
427891.000000 1.643465 498.000000 250.000000 137.000000 0.074890 168.000000 0.260189 185.000000 -0.024293 228.000000 -0.035248 23.000000 -0.703900 121.000000 0.127319 137.000000 0.074890
429457.000000 1.758123 260.000000 259.000000 151.000000 0.123906 175.000000 0.280173 196.000000 -0.022790 236.000000 -0.026319 28.000000 -0.669995 152.000000 0.128389 191.000000 -0.004311
430210.000000 1.670837 248.000000 250.000000 131.000000 0.094533 166.000000 0.261114 190.000000 0.001584 229.000000 -0.062180 22.000000 -0.720872 118.000000 0.136399 132.000000 0.080505
431767.000000 1.692669 252.000000 253.000000 138.000000 0.096333 173.000000 0.261177 191.000000 -0.009200 239.000000 0.243027 24.000000 -0.697315 128.000000 0.137821 138.000000 0.096333
432020.000000 1.755158 253.000000 252.000000 140.000000 0.104988 174.000000 0.281241 199.000000 -0.016269 230.000000 -0.035425 22.000000 -0.736691 127.000000 0.137777 142.000000 0.091493
433574.000000 1.732599 259.000000 258.000000 155.000000 0.126082 180.000000 0.237541 214.000000 -0.015297 228.000000 0.000627 25.000000 -0.674689 127.000000 0.124671 155.000000 0.126082
434337.000000 1.652275 254.000000 258.000000 142.000000 0.065912 167.000000 0.236834 195.000000 -0.024186 239.000000 -0.062509 22.000000 -0.685657 125.000000 0.128372 142.000000 0.065912
436413.000000 1.616176 503.000000 253.000000 150.000000 0.091970 174.000000 0.239591 196.000000 -0.017211 234.000000 -0.052963 23.000000 -0.664952 149.000000 0.108914 152.000000 0.078914
437715.000000 1.613291 275.000000 267.000000 138.000000 0.123922 173.000000 0.232728 204.000000 -0.011928 255.000000 0.480109 28.000000 -0.631508 159.000000 0.142056 204.000000 -0.011928
437982.000000 1.638949 267.000000 256.000000 144.000000 0.082730 177.000000 0.258916 205.000000 -0.018936 237.000000 -0.015551 18.000000 -0.697605 152.000000 0.154861 205.000000 -0.018936
438992.000000 1.605312 257.000000 264.000000 149.000000 0.092293 175.000000 0.234452 196.000000 -0.039421 241.000000 -0.071270 8.000000 0.511847 157.000000 0.118906 196.000000 -0.039421
440316.000000 1.647588 267.000000 253.000000 141.000000 0.065780 176.000000 0.225972 195.000000 -0.041378 232.000000 -0.030594 25.000000 -0.617928 124.000000 0.117347 141.000000 0.065780
441068.000000 1.565139 252.000000 258.000000 135.000000 0.046974 173.000000 0.209408 190.000000 -0.032583 237.000000 -0.077348 21.000000 -0.643606 126.000000 0.105830 136.000000 0.057914
441326.000000 1.610708 258.000000 270.000000 144.000000 0.059983 180.000000 0.222383 206.000000 -0.031302 247.000000 -0.038198 23.000000 -0.671469 161.000000 0.120845 206.000000 -0.031302
441596.000000 1.697885 270.000000 265.000000 141.000000 0.021424 179.000000 0.231095 200.000000 -0.039909 254.000000 0.601660 26.000000 -0.681126 155.000000 0.095562 170.000000 0.191189
442122.000000 1.497104 261.000000 267.000000 140.000000 0.076094 170.000000 0.229636 202.000000 -0.022114 245.000000 -0.071187 10.000000 0.409330 159.000000 0.132975 202.000000 -0.022114
442651.000000 1.648668 262.000000 247.000000 147.000000 0.089968 170.000000 0.254170 194.000000 -0.023667 228.000000 -0.051585 23.000000 -0.680985 122.000000 0.122412 131.000000 0.087458
442898.000000 1.688147 247.000000 241.000000 136.000000 0.072543 164.000000 0.225851 193.000000 -0.018946 221.000000 -0.018495 19.000000 -0.718623 113.000000 0.104534 136.000000 0.072543
443922.000000 1.687212 273.000000 259.000000 140.000000 0.057882 175.000000 0.238858 195.000000 -0.001251 238.000000 -0.035923 24.000000 -0.698289 128.000000 0.095609 143.000000 0.051425
445212.000000 1.743624 249.000000 245.000000 141.000000 0.075891 168.000000 0.255172 189.000000 -0.011207 220.000000 -0.011378 24.000000 -0.636142 117.000000 0.107036 133.000000 0.072881
445457.000000 1.689721 245.000000 258.000000 140.000000 0.060531 178.000000 0.244376 202.000000 -0.025060 237.000000 -0.041219 24.000000 -0.712757 123.000000 0.112929 141.000000 0.071064
447289.000000 1.735999 255.000000 248.000000 139.000000 0.109561 172.000000 0.274688 190.000000 -0.036408 229.000000 -0.063272 23.000000 -0.728282 127.000000 0.158699 139.000000 0.109561
447537.000000 1.801117 248.000000 250.000000 150.000000 0.097614 172.000000 0.272633 193.000000 -0.016959 229.000000 -0.052553 22.000000 -0.738118 143.000000 0.142756 151.000000 0.091360
449363.000000 1.724009 261.000000 254.000000 140.000000 0.073482 175.000000 0.292432 194.000000 -0.018555 233.000000 -0.066689 24.000000 -0.776695 129.000000 0.121774 142.000000 0.079343
449617.000000 1.723454 254.000000 250.000000 133.000000 0.116596 173.000000 0.267620 201.000000 -0.023447 230.000000 -0.041063 22.000000 -0.726203 127.000000 0.141957 139.000000 0.086565
450930.000000 1.679517 544.000000 255.000000 141.000000 0.085388 173.000000 0.275518 221.000000 -0.046207 233.000000 -0.055956 24.000000 -0.735690 127.000000 0.138712 141.000000 0.085388
451429.000000 1.870973 244.000000 257.000000 139.000000 0.085610 173.000000 0.267319 191.000000 -0.012023 235.000000 -0.043182 25.000000 -0.716614 127.000000 0.128008 139.000000 0.085610
453759.000000 1.810297 247.000000 262.000000 142.000000 0.052260 174.000000 0.254762 197.000000 -0.003467 246.000000 0.184355 22.000000 -0.744858 154.000000 0.122352 197.000000 -0.003467
454021.000000 1.843324 262.000000 254.000000 150.000000 0.100482 170.000000 0.254672 192.000000 -0.027616 233.000000 -0.034089 24.000000 -0.744420 122.000000 0.105670 150.000000 0.100482
454532.000000 1.696019 257.000000 265.000000 143.000000 0.088169 180.000000 0.247462 195.000000 -0.025032 243.000000 -0.069311 27.000000 -0.714606 157.000000 0.148153 195.000000 -0.025032
455065.000000 1.766034 268.000000 268.000000 147.000000 0.071534 182.000000 0.234921 201.000000 -0.025610 243.000000 -0.025514 25.000000 -0.724733 159.000000 0.156487 199.000000 -0.010641
455839.000000 1.673543 249.000000 246.000000 144.000000 0.110065 164.000000 0.230580 182.000000 -0.027757 224.000000 -0.025501 26.000000 -0.607459 139.000000 0.130943 145.000000 0.106115
458666.000000 1.704494 264.000000 263.000000 153.000000 0.078826 175.000000 0.230456 196.000000 -0.036989 240.000000 -0.031064 25.000000 -0.681635 151.000000 0.105362 155.000000 0.074046
459967.000000 1.701979 257.000000 253.000000 147.000000 0.099735 175.000000 0.271554 190.000000 -0.015562 231.000000 -0.026816 24.000000 -0.694417 145.000000 0.130535 154.000000 0.086068
460466.000000 1.616900 246.000000 247.000000 133.000000 0.075215 164.000000 0.224011 183.000000 -0.008168 225.000000 -0.053276 25.000000 -0.594543 121.000000 0.125420 133.000000 0.075215
460987.000000 1.753110 274.000000 266.000000 143.000000 0.065877 181.000000 0.235111 201.000000 -0.026595 244.000000 -0.057567 13.000000 -0.151498 158.000000 0.131065 199.000000 -0.021235
463034.000000 1.703861 250.000000 271.000000 144.000000 0.057840 169.000000 0.228291 199.000000 -0.027588 248.000000 -0.059311 26.000000 -0.688302 161.000000 0.149625 199.000000 -0.027588
463833.000000 1.659646 260.000000 254.000000 150.000000 0.144753 174.000000 0.268638 194.000000 -0.019153 243.000000 0.528777 22.000000 -0.706702 149.000000 0.151383 152.000000 0.137590
464337.000000 1.744425 250.000000 251.000000 141.000000 0.088774 173.000000 0.261831 192.000000 -0.008812 229.000000 -0.030570 24.000000 -0.705624 120.000000 0.123916 141.000000 0.088774
465350.000000 1.754155 255.000000 269.000000 142.000000 0.047054 180.000000 0.237462 200.000000 -0.026238 246.000000 -0.031269 24.000000 -0.723417 156.000000 0.113119 200.000000 -0.026238
466149.000000 1.720114 262.000000 246.000000 145.000000 0.119564 167.000000 0.265393 191.000000 -0.011519 227.000000 -0.049015 23.000000 -0.696690 138.000000 0.142370 146.000000 0.101319
466641.000000 1.755153 246.000000 247.000000 142.000000 0.057868 164.000000 0.237712 187.000000 -0.015924 226.000000 -0.041472 22.000000 -0.735189 120.000000 0.111820 129.000000 0.068903
467397.000000 1.778356 252.000000 254.000000 151.000000 0.107441 173.000000 0.246190 221.000000 -0.004278 232.000000 -0.022601 26.000000 -0.687492 145.000000 0.124667 152.000000 0.091627
468191.000000 1.701295 273.000000 256.000000 138.000000 0.107290 173.000000 0.254309 191.000000 -0.022401 235.000000 -0.061915 25.000000 -0.699236 148.000000 0.144438 191.000000 -0.022401
468447.000000 1.806014 256.000000 243.000000 137.000000 0.112919 161.000000 0.247916 188.000000 -0.012884 222.000000 -0.033009 24.000000 -0.701538 120.000000 0.125445 137.000000 0.112919
468690.000000 1.886208 243.000000 247.000000 132.000000 0.054215 165.000000 0.252035 187.000000 -0.018826 225.000000 -0.024281 22.000000 -0.781616 118.000000 0.104639 132.000000 0.054215
470762.000000 1.799510 254.000000 242.000000 129.000000 0.072869 162.000000 0.235330 181.000000 0.000330 234.000000 0.843559 22.000000 -0.766572 116.000000 0.140204 130.000000 0.063841
472305.000000 1.823623 266.000000 262.000000 142.000000 0.051124 174.000000 0.236893 195.000000 -0.044376 239.000000 -0.038841 24.000000 -0.738588 156.000000 0.109194 195.000000 -0.044376
473090.000000 1.662560 253.000000 242.000000 131.000000 0.067818 163.000000 0.250345 184.000000 -0.023840 222.000000 -0.055562 24.000000 -0.699008 122.000000 0.140500 133.000000 0.084746
474074.000000 0.782931 233.000000 307.000000 188.000000 -0.069036 224.000000 0.058765 240.000000 -0.183774 286.000000 -0.124072 19.000000 -1.368511 121.000000 0.524909 189.000000 -0.081232
474381.000000 1.661459 307.000000 263.000000 103.000000 -0.141912 168.000000 0.246258 199.000000 -0.062976 242.000000 -0.061553 25.000000 -0.692399 156.000000 0.165538 199.000000 -0.062976
477224.000000 1.731155 252.000000 506.000000 390.000000 0.067370 426.000000 0.240609 447.000000 -0.047180 497.000000 0.653119 27.000000 -0.633641 258.000000 1.653223 286.000000 -0.622917
479534.000000 1.684260 769.000000 258.000000 139.000000 0.088962 174.000000 0.232869 200.000000 -0.036082 239.000000 -0.074059 26.000000 -0.659095 151.000000 0.123634 195.000000 -0.032461
480295.000000 1.487749 251.000000 263.000000 135.000000 0.066909 175.000000 0.223197 193.000000 -0.025921 240.000000 -0.070403 26.000000 -0.619649 156.000000 0.156847 192.000000 -0.025467
480823.000000 1.658665 265.000000 268.000000 139.000000 0.099267 181.000000 0.234827 198.000000 -0.027165 244.000000 -0.040739 27.000000 -0.685961 157.000000 0.144454 173.000000 0.212256
481091.000000 1.710910 268.000000 261.000000 146.000000 0.071865 182.000000 0.247323 201.000000 -0.013180 241.000000 -0.050844 25.000000 -0.720057 154.000000 0.126362 200.000000 -0.012647
481604.000000 1.491086 252.000000 246.000000 130.000000 0.097349 163.000000 0.219262 211.000000 -0.016288 223.000000 -0.045850 23.000000 -0.640231 115.000000 0.130405 130.000000 0.097349
481850.000000 1.605122 246.000000 259.000000 152.000000 0.100675 174.000000 0.269512 193.000000 -0.001240 238.000000 -0.076444 25.000000 -0.647417 144.000000 0.130048 147.000000 0.110142
482881.000000 1.523575 267.000000 261.000000 145.000000 0.109900 174.000000 0.235781 197.000000 -0.039345 238.000000 -0.063059 26.000000 -0.652788 155.000000 0.117001 197.000000 -0.039345
484933.000000 1.705783 257.000000 261.000000 137.000000 0.067118 174.000000 0.258214 197.000000 -0.044516 241.000000 -0.051458 25.000000 -0.727257 128.000000 0.101647 137.000000 0.067118
485970.000000 1.824204 250.000000 490.000000 387.000000 0.079669 406.000000 0.240486 430.000000 -0.038840 468.000000 -0.038497 22.000000 -0.770688 241.000000 1.781323 269.000000 -0.620183
488020.000000 1.781114 260.000000 249.000000 137.000000 0.098385 171.000000 0.265328 199.000000 -0.048746 229.000000 -0.062978 23.000000 -0.779387 148.000000 0.147163 199.000000 -0.048746
491875.000000 1.753173 258.000000 257.000000 143.000000 0.093590 170.000000 0.249704 188.000000 -0.031535 235.000000 -0.056864 23.000000 -0.736609 153.000000 0.132683 188.000000 -0.031535
492132.000000 1.798543 257.000000 249.000000 148.000000 0.069667 169.000000 0.247397 191.000000 -0.044154 227.000000 -0.019920 24.000000 -0.759181 121.000000 0.115376 134.000000 0.078916
493135.000000 1.731550 250.000000 256.000000 130.000000 0.086366 169.000000 0.260908 194.000000 -0.023058 245.000000 0.679527 20.000000 -0.730299 152.000000 0.149013 194.000000 -0.023058
493391.000000 1.766001 256.000000 276.000000 142.000000 0.075276 170.000000 0.228261 205.000000 -0.038137 254.000000 -0.054375 25.000000 -0.735063 158.000000 0.154526 205.000000 -0.038137
494186.000000 1.631507 256.000000 253.000000 144.000000 0.128292 168.000000 0.247291 188.000000 -0.023618 230.000000 -0.052473 22.000000 -0.715184 131.000000 0.132117 144.000000 0.128292
494439.000000 1.676949 253.000000 243.000000 131.000000 0.109879 166.000000 0.235285 191.000000 -0.001957 223.000000 -0.032992 25.000000 -0.678161 124.000000 0.133075 133.000000 0.096885
496742.000000 1.691767 250.000000 246.000000 146.000000 0.123638 169.000000 0.268322 192.000000 -0.004798 232.000000 -0.025706 26.000000 -0.643406 132.000000 0.136395 146.000000 0.123638
498295.000000 1.729625 274.000000 261.000000 147.000000 0.089423 180.000000 0.249373 201.000000 -0.011301 242.000000 -0.061020 24.000000 -0.693888 153.000000 0.128074 201.000000 -0.011301
499822.000000 1.663094 267.000000 266.000000 139.000000 0.032034 177.000000 0.233653 197.000000 -0.025565 242.000000 -0.048701 25.000000 -0.714431 158.000000 0.129984 196.000000 -0.025001
500088.000000 1.604511 266.000000 257.000000 139.000000 0.077853 170.000000 0.239860 195.000000 -0.018231 234.000000 -0.031114 25.000000 -0.649706 152.000000 0.126256 191.000000 -0.025910
501876.000000 1.740694 258.000000 264.000000 136.000000 0.065828 175.000000 0.241190 196.000000 -0.038604 252.000000 0.630613 25.000000 -0.719027 157.000000 0.177663 194.000000 -0.033117
502140.000000 1.803779 264.000000 261.000000 138.000000 0.065254 175.000000 0.238808 194.000000 -0.019454 241.000000 -0.054626 23.000000 -0.764592 153.000000 0.105253 194.000000 -0.019454
503179.000000 1.765413 255.000000 247.000000 130.000000 0.088498 167.000000 0.246990 190.000000 -0.034986 222.000000 -0.009061 24.000000 -0.692189 139.000000 0.143905 190.000000 -0.034986
505739.000000 1.733151 250.000000 245.000000 131.000000 0.051509 164.000000 0.224106 211.000000 -0.021098 223.000000 -0.022383 25.000000 -0.681391 146.000000 0.147101 164.000000 0.224106
505984.000000 1.778589 245.000000 257.000000 135.000000 0.046050 171.000000 0.224891 192.000000 -0.053214 234.000000 -0.045253 16.000000 -0.581144 153.000000 0.105662 192.000000 -0.053214
506778.000000 1.577946 276.000000 265.000000 150.000000 0.075941 171.000000 0.258591 201.000000 -0.036568 254.000000 0.469937 26.000000 -0.651976 158.000000 0.156884 201.000000 -0.036568
507299.000000 1.747888 256.000000 249.000000 140.000000 0.083558 170.000000 0.250094 191.000000 -0.026206 227.000000 -0.024387 23.000000 -0.727833 123.000000 0.109404 140.000000 0.083558
509874.000000 1.682982 251.000000 260.000000 141.000000 0.056580 175.000000 0.244123 202.000000 -0.055249 250.000000 0.542525 25.000000 -0.702017 151.000000 0.127850 200.000000 -0.043712
510907.000000 1.575702 266.000000 237.000000 141.000000 0.133682 163.000000 0.278245 204.000000 -0.038810 212.000000 -0.115441 26.000000 -0.678093 127.000000 0.227334 142.000000 0.138399
511144.000000 0.734090 237.000000 298.000000 176.000000 0.010423 196.000000 0.103055 229.000000 -0.163809 275.000000 -0.073917 17.000000 -1.041974 122.000000 0.385769 157.000000 0.039061
511950.000000 1.521534 253.000000 252.000000 135.000000 0.088790 168.000000 0.236753 191.000000 -0.021616 230.000000 -0.077540 24.000000 -0.646146 150.000000 0.162269 186.000000 -0.011302
512202.000000 1.583608 252.000000 262.000000 144.000000 0.069717 175.000000 0.244249 195.000000 -0.028352 242.000000 -0.069748 23.000000 -0.693145 156.000000 0.123636 195.000000 -0.028352
512464.000000 1.641787 262.000000 259.000000 137.000000 0.070771 172.000000 0.231535 189.000000 -0.005613 237.000000 -0.056380 21.000000 -0.698651 154.000000 0.158091 189.000000 -0.005613
512723.000000 1.677885 259.000000 260.000000 134.000000 0.057792 171.000000 0.237023 196.000000 -0.041412 244.000000 -0.063576 25.000000 -0.706865 155.000000 0.108689 196.000000 -0.041412
513251.000000 1.491198 268.000000 264.000000 137.000000 0.058073 172.000000 0.237745 201.000000 -0.019385 238.000000 -0.043649 26.000000 -0.640293 157.000000 0.181317 201.000000 -0.019385
514788.000000 1.666798 262.000000 520.000000 406.000000 0.063821 433.000000 0.212928 449.000000 -0.015741 496.000000 -0.052261 22.000000 -0.707887 259.000000 1.666538 291.000000 -0.491674
515833.000000 1.610049 259.000000 260.000000 135.000000 0.058999 173.000000 0.224893 225.000000 -0.017866 236.000000 -0.053605 27.000000 -0.630845 155.000000 0.156414 164.000000 0.175364
516093.000000 1.671441 260.000000 246.000000 140.000000 0.122668 167.000000 0.242277 187.000000 -0.028524 224.000000 -0.018007 27.000000 -0.637698 141.000000 0.128326 185.000000 -0.019794
518887.000000 1.748171 244.000000 253.000000 136.000000 0.093715 168.000000 0.264420 187.000000 -0.021787 232.000000 -0.019296 22.000000 -0.716704 126.000000 0.120815 136.000000 0.093715
519678.000000 1.680019 268.000000 255.000000 132.000000 0.091130 168.000000 0.261348 190.000000 -0.018291 231.000000 -0.022083 26.000000 -0.656281 151.000000 0.164767 185.000000 0.007273
524051.000000 1.831228 275.000000 216.000000 151.000000 0.172945 175.000000 0.271347 182.000000 0.129607 189.000000 -0.059061 25.000000 -0.709242 127.000000 0.219717 142.000000 0.158730
524267.000000 0.813025 216.000000 295.000000 178.000000 -0.050362 200.000000 0.056912 235.000000 -0.187583 275.000000 -0.136844 30.000000 -1.032071 115.000000 0.580671 158.000000 0.041958
530549.000000 1.482442 250.000000 248.000000 143.000000 0.131725 164.000000 0.241787 204.000000 0.008887 220.000000 -0.003199 25.000000 -0.621602 134.000000 0.183918 143.000000 0.131725
531050.000000 1.452900 253.000000 229.000000 69.000000 -0.361413 148.000000 0.236413 167.000000 0.004188 207.000000 -0.026407 24.000000 -0.655879 118.000000 0.274653 138.000000 0.185314
531934.000000 1.469451 217.000000 219.000000 73.000000 -0.368996 132.000000 0.227744 148.000000 -0.031409 207.000000 0.406271 24.000000 -0.693369 128.000000 0.335502 148.000000 -0.031409
535253.000000 1.447854 242.000000 236.000000 35.000000 -0.394293 145.000000 0.248152 151.000000 0.211803 216.000000 -0.069764 25.000000 -0.669872 134.000000 0.227604 150.000000 0.213778
539706.000000 1.494281 251.000000 241.000000 133.000000 0.141423 167.000000 0.263214 211.000000 -0.024984 219.000000 -0.036911 25.000000 -0.658839 121.000000 0.192600 134.000000 0.122239
540450.000000 1.579688 258.000000 254.000000 135.000000 0.064010 174.000000 0.258088 193.000000 -0.014951 233.000000 -0.051222 24.000000 -0.679168 120.000000 0.136124 138.000000 0.076283
540960.000000 1.676489 256.000000 269.000000 146.000000 0.029203 181.000000 0.223479 204.000000 -0.019202 246.000000 -0.063635 25.000000 -0.709703 157.000000 0.120096 200.000000 -0.022792
541229.000000 1.690612 269.000000 266.000000 144.000000 0.039455 181.000000 0.245788 204.000000 -0.023681 241.000000 -0.030781 26.000000 -0.719090 156.000000 0.108187 196.000000 -0.020999
541770.000000 1.790061 275.000000 257.000000 147.000000 0.032121 180.000000 0.268608 205.000000 -0.016378 232.000000 -0.023086 27.000000 -0.729406 131.000000 0.119849 147.000000 0.032121
542027.000000 1.646725 257.000000 251.000000 142.000000 0.032287 175.000000 0.273040 196.000000 -0.025847 229.000000 -0.025171 25.000000 -0.678916 122.000000 0.151064 143.000000 0.037961
542278.000000 1.726488 251.000000 260.000000 143.000000 0.018903 177.000000 0.237839 198.000000 -0.025843 238.000000 -0.046048 22.000000 -0.713526 122.000000 0.118716 145.000000 0.030439
542807.000000 1.853543 269.000000 265.000000 146.000000 0.007176 182.000000 0.236111 203.000000 -0.043511 244.000000 -0.049544 23.000000 -0.742194 158.000000 0.110845 202.000000 -0.037899
543342.000000 1.741661 270.000000 271.000000 149.000000 0.040443 175.000000 0.254909 204.000000 -0.031833 248.000000 -0.053447 26.000000 -0.688510 161.000000 0.134471 204.000000 -0.031833
544663.000000 1.883320 253.000000 269.000000 146.000000 0.008414 173.000000 0.261394 177.000000 0.228525 245.000000 -0.024265 22.000000 -0.760911 160.000000 0.136784 177.000000 0.228525
544932.000000 1.843775 269.000000 230.000000 155.000000 0.175786 175.000000 0.319122 178.000000 0.297728 211.000000 -0.181754 25.000000 -0.738715 126.000000 0.290221 155.000000 0.175786
545162.000000 0.988652 230.000000 313.000000 197.000000 -0.109953 232.000000 0.059641 253.000000 -0.197240 289.000000 -0.110487 26.000000 -1.343229 118.000000 0.615267 199.000000 -0.133824
546533.000000 1.715752 259.000000 247.000000 136.000000 0.048920 168.000000 0.256128 186.000000 -0.024247 228.000000 -0.036880 21.000000 -0.735516 120.000000 0.151853 139.000000 0.087070
548340.000000 1.505391 258.000000 257.000000 142.000000 0.089262 169.000000 0.238574 196.000000 -0.021707 235.000000 -0.024760 24.000000 -0.654576 126.000000 0.146395 143.000000 0.079763
549107.000000 1.762193 253.000000 253.000000 144.000000 0.043235 173.000000 0.220848 187.000000 0.002633 233.000000 -0.040880 20.000000 -0.719829 122.000000 0.108423 144.000000 0.043235
549912.000000 1.655064 275.000000 264.000000 149.000000 0.034857 185.000000 0.214623 201.000000 -0.034232 242.000000 -0.028463 24.000000 -0.664495 138.000000 0.106314 150.000000 0.037944
550957.000000 1.522760 516.000000 255.000000 143.000000 0.062944 179.000000 0.251113 198.000000 -0.002663 230.000000 -0.004903 24.000000 -0.641314 125.000000 0.121911 143.000000 0.062944
552557.000000 1.757681 262.000000 263.000000 144.000000 0.028342 181.000000 0.253747 213.000000 -0.028213 243.000000 -0.046022 23.000000 -0.708056 156.000000 0.084705 213.000000 -0.028213
553595.000000 1.703652 259.000000 261.000000 146.000000 0.026148 180.000000 0.238588 205.000000 -0.005236 242.000000 -0.054626 23.000000 -0.703403 128.000000 0.108092 148.000000 0.016243
554135.000000 1.715361 279.000000 281.000000 88.000000 -0.332756 181.000000 0.224345 214.000000 -0.047523 257.000000 -0.057213 27.000000 -0.687788 167.000000 0.152670 214.000000 -0.047523
554416.000000 1.708241 281.000000 269.000000 149.000000 0.035052 176.000000 0.225910 181.000000 0.200987 246.000000 -0.037260 24.000000 -0.680738 160.000000 0.118875 181.000000 0.200987
555731.000000 1.740972 268.000000 267.000000 147.000000 0.006111 182.000000 0.224249 207.000000 -0.023227 254.000000 0.378294 22.000000 -0.706739 157.000000 0.093117 207.000000 -0.023227
555998.000000 1.751616 267.000000 270.000000 149.000000 0.001405 184.000000 0.210813 210.000000 -0.013404 248.000000 -0.035628 10.000000 0.359138 160.000000 0.082909 210.000000 -0.013404
556554.000000 1.845814 286.000000 277.000000 152.000000 0.021743 180.000000 0.215470 212.000000 -0.021348 256.000000 -0.064281 27.000000 -0.701988 165.000000 0.108593 212.000000 -0.021348
558413.000000 1.781097 269.000000 271.000000 147.000000 0.004500 174.000000 0.231147 179.000000 0.186634 249.000000 -0.069325 22.000000 -0.720124 161.000000 0.110440 179.000000 0.186634
558970.000000 1.823888 286.000000 261.000000 144.000000 0.003306 175.000000 0.251832 205.000000 -0.003841 240.000000 -0.050129 20.000000 -0.775472 128.000000 0.094606 145.000000 0.020391
559738.000000 1.734702 255.000000 253.000000 140.000000 0.017600 170.000000 0.229888 189.000000 -0.014031 237.000000 -0.035016 24.000000 -0.718979 121.000000 0.093446 140.000000 0.017600
560261.000000 1.909060 270.000000 270.000000 151.000000 0.064154 174.000000 0.251615 208.000000 -0.022883 248.000000 -0.020124 26.000000 -0.737804 161.000000 0.120000 208.000000 -0.022883
560531.000000 1.894655 270.000000 269.000000 148.000000 0.044058 174.000000 0.236991 203.000000 -0.023652 247.000000 -0.016695 23.000000 -0.775784 160.000000 0.109872 203.000000 -0.023652
561067.000000 1.770093 267.000000 274.000000 150.000000 0.057589 189.000000 0.249279 212.000000 -0.026364 252.000000 -0.072397 27.000000 -0.672225 163.000000 0.143403 212.000000 -0.026364
561592.000000 1.932225 251.000000 498.000000 386.000000 0.073689 415.000000 0.272790 434.000000 -0.015110 476.000000 -0.055439 23.000000 -0.796849 243.000000 1.754967 272.000000 -0.628243
563152.000000 1.565547 269.000000 258.000000 139.000000 0.092135 175.000000 0.269044 197.000000 -0.033589 236.000000 -0.063498 25.000000 -0.644028 151.000000 0.133123 192.000000 -0.035706
563410.000000 1.680687 258.000000 265.000000 148.000000 0.023025 170.000000 0.248887 210.000000 -0.043213 246.000000 -0.086614 23.000000 -0.717824 133.000000 0.130125 148.000000 0.023025
564173.000000 1.559887 245.000000 252.000000 135.000000 0.024486 170.000000 0.231147 213.000000 -0.029543 226.000000 -0.027411 26.000000 -0.678545 122.000000 0.098122 136.000000 0.030066
564681.000000 1.566870 256.000000 267.000000 141.000000 0.105000 182.000000 0.239971 209.000000 -0.040796 245.000000 -0.078050 26.000000 -0.674164 159.000000 0.154813 177.000000 0.199454
565954.000000 1.734185 244.000000 230.000000 138.000000 0.123009 158.000000 0.292604 179.000000 0.023731 220.000000 0.577586 28.000000 -0.581569 133.000000 0.279482 142.000000 0.176208
566184.000000 1.196975 230.000000 234.000000 137.000000 0.272665 162.000000 0.227006 179.000000 -0.007193 214.000000 -0.099419 13.000000 0.206974 137.000000 0.272665 179.000000 -0.007193
566894.000000 0.934733 249.000000 245.000000 116.000000 0.157223 161.000000 0.246377 177.000000 -0.009059 233.000000 0.316429 6.000000 0.536018 129.000000 0.238884 149.000000 0.197520
567396.000000 1.140487 257.000000 233.000000 78.000000 -0.245158 155.000000 0.350423 164.000000 -0.009060 224.000000 0.658684 13.000000 0.025830 126.000000 0.287789 164.000000 -0.009060
569796.000000 2.165267 251.000000 235.000000 82.000000 -0.617349 164.000000 0.215143 186.000000 0.044374 212.000000 0.028559 13.000000 0.677209 127.000000 0.186319 150.000000 0.128342
570031.000000 2.375471 235.000000 223.000000 71.000000 -0.750970 158.000000 0.284563 193.000000 -0.067023 203.000000 -0.019014 16.000000 0.194013 124.000000 0.341538 145.000000 0.243575
582167.000000 2.608763 272.000000 274.000000 156.000000 0.066566 179.000000 0.203305 217.000000 -0.045754 258.000000 0.053242 10.000000 1.254092 163.000000 0.115799 176.000000 0.161503
586896.000000 2.768669 280.000000 266.000000 147.000000 -0.071442 185.000000 0.180266 201.000000 -0.048260 242.000000 -0.064012 15.000000 0.688983 119.000000 0.048763 147.000000 -0.071442
589259.000000 2.611961 280.000000 260.000000 144.000000 -0.050189 180.000000 0.161065 196.000000 -0.050080 234.000000 -0.029186 26.000000 -0.874386 125.000000 0.080297 147.000000 -0.066331
590538.000000 2.527024 267.000000 274.000000 155.000000 0.035280 179.000000 0.148230 190.000000 0.122556 252.000000 -0.037632 15.000000 0.625160 136.000000 0.075059 157.000000 0.017976
618828.000000 2.668715 272.000000 271.000000 153.000000 -0.059388 177.000000 0.150393 186.000000 0.087024 249.000000 -0.035217 14.000000 0.733809 129.000000 0.043952 153.000000 -0.059388
631392.000000 2.519403 268.000000 236.000000 182.000000 0.326345 215.000000 0.885595 213.000000 0.787554 220.000000 1.213777 28.000000 -0.814436 135.000000 0.208760 152.000000 0.139622
631628.000000 2.920109 236.000000 310.000000 203.000000 0.057331 228.000000 0.150092 242.000000 -0.085331 283.000000 -0.048229 19.000000 -1.534921 127.000000 0.517648 188.000000 0.002880
636195.000000 2.431081 275.000000 271.000000 149.000000 -0.055753 188.000000 0.150722 207.000000 -0.063024 249.000000 -0.093226 29.000000 -0.747712 120.000000 0.101285 150.000000 -0.045706
637271.000000 2.555893 264.000000 259.000000 147.000000 -0.075797 179.000000 0.171019 195.000000 -0.014842 236.000000 -0.056066 14.000000 0.736537 123.000000 0.071648 148.000000 -0.066534
640494.000000 2.495751 281.000000 523.000000 322.000000 -0.586001 399.000000 0.265343 424.000000 0.122946 511.000000 0.464874 17.000000 0.251049 268.000000 2.660423 322.000000 -0.586001
641017.000000 2.661207 523.000000 247.000000 119.000000 0.117322 170.000000 0.210248 191.000000 -0.039516 224.000000 -0.036023 14.000000 0.931002 133.000000 0.230236 159.000000 0.150000
641264.000000 2.761062 247.000000 239.000000 148.000000 0.100390 166.000000 0.187882 202.000000 -0.014295 213.000000 -0.028025 30.000000 -0.942009 125.000000 0.235169 148.000000 0.100390
644961.000000 2.679015 509.000000 266.000000 151.000000 0.117398 185.000000 0.229043 216.000000 -0.033856 245.000000 -0.041553 19.000000 -0.041473 154.000000 0.143369 216.000000 -0.033856
645227.000000 2.431301 266.000000 254.000000 154.000000 0.085187 177.000000 0.269217 198.000000 -0.026550 233.000000 -0.057555 29.000000 -0.888028 128.000000 0.157713 145.000000 0.106098
646459.000000 2.510269 254.000000 258.000000 156.000000 0.075533 181.000000 0.211273 200.000000 -0.024166 233.000000 -0.029621 29.000000 -0.849229 133.000000 0.117303 147.000000 0.022523
649663.000000 2.658951 287.000000 267.000000 156.000000 -0.002130 179.000000 0.140731 208.000000 -0.164338 246.000000 -0.109529 14.000000 0.983201 133.000000 0.111178 156.000000 -0.002130
