2407.000000 0.853482 184.000000 188.000000 57.000000 0.339481 124.000000 0.002727 147.000000 -0.131238 174.000000 -0.110171 13.000000 -0.334796 65.000000 0.381423 124.000000 0.002727
7216.000000 0.779904 203.000000 198.000000 67.000000 0.348965 133.000000 -0.007867 169.000000 -0.144954 182.000000 -0.131238 17.000000 -0.148591 65.000000 0.359310 72.000000 0.332194
9549.000000 0.803272 445.000000 196.000000 64.000000 0.223524 133.000000 0.048810 164.000000 -0.090267 181.000000 -0.120799 14.000000 -0.303656 66.000000 0.238241 134.000000 0.033700
9745.000000 0.671487 196.000000 200.000000 109.000000 -0.089292 135.000000 0.000597 136.000000 -0.004261 184.000000 -0.115781 14.000000 -0.349829 68.000000 0.329969 109.000000 -0.089292
10875.000000 0.777334 390.000000 188.000000 70.000000 0.252931 127.000000 0.047821 128.000000 0.032445 173.000000 -0.142693 14.000000 -0.355769 59.000000 0.273746 70.000000 0.252931
11254.000000 0.774718 191.000000 196.000000 112.000000 -0.063667 134.000000 0.097837 149.000000 -0.051754 182.000000 -0.148964 13.000000 -0.483854 71.000000 0.372225 114.000000 -0.070486
11842.000000 0.729372 198.000000 209.000000 69.000000 0.379282 137.000000 0.007557 154.000000 -0.118793 187.000000 -0.143198 15.000000 -0.292963 70.000000 0.384141 131.000000 -0.157396
15262.000000 1.061775 243.000000 194.000000 68.000000 0.194655 130.000000 0.032586 160.000000 -0.107286 176.000000 -0.102334 14.000000 -0.240077 65.000000 0.226302 73.000000 0.181457
15456.000000 0.845113 194.000000 194.000000 63.000000 0.326476 133.000000 -0.031052 168.000000 -0.156571 181.000000 -0.142496 14.000000 -0.275090 63.000000 0.326476 132.000000 -0.055722
16437.000000 0.785316 192.000000 199.000000 65.000000 0.345234 137.000000 0.004952 170.000000 -0.172226 183.000000 -0.170689 13.000000 -0.441816 71.000000 0.354968 135.000000 -0.025016
17181.000000 0.773446 175.000000 181.000000 62.000000 0.367117 124.000000 -0.008213 149.000000 -0.136255 165.000000 -0.134781 12.000000 -0.442979 60.000000 0.386600 63.000000 0.362180
17927.000000 0.836658 196.000000 203.000000 76.000000 0.364434 136.000000 0.003995 155.000000 -0.115613 187.000000 -0.141100 13.000000 -0.573059 69.000000 0.381253 76.000000 0.364434
18130.000000 0.873620 203.000000 198.000000 66.000000 0.340223 130.000000 -0.002398 159.000000 -0.130596 184.000000 -0.201678 15.000000 -0.313635 64.000000 0.350160 67.000000 0.320239
20595.000000 0.839639 192.000000 201.000000 67.000000 0.343562 132.000000 -0.012619 166.000000 -0.116930 186.000000 -0.142010 14.000000 -0.407084 71.000000 0.378547 132.000000 -0.012619
28243.000000 0.888058 186.000000 187.000000 68.000000 0.307194 125.000000 -0.031191 127.000000 -0.046253 172.000000 -0.136692 13.000000 -0.412759 58.000000 0.322083 60.000000 0.302663
28628.000000 0.863260 198.000000 196.000000 70.000000 0.356709 136.000000 -0.038510 164.000000 -0.165954 181.000000 -0.163477 13.000000 -0.498777 74.000000 0.381223 134.000000 -0.063572
29400.000000 1.073529 187.000000 190.000000 66.000000 0.389389 125.000000 -0.032850 128.000000 -0.058587 171.000000 -0.159888 14.000000 -0.348998 65.000000 0.389655 67.000000 0.368903
29590.000000 1.071130 190.000000 188.000000 66.000000 0.357036 127.000000 -0.006897 152.000000 -0.176300 173.000000 -0.120408 16.000000 -0.259076 66.000000 0.357036 125.000000 -0.046615
29778.000000 0.978871 188.000000 180.000000 62.000000 0.386722 120.000000 -0.013606 122.000000 -0.023386 164.000000 -0.126317 13.000000 -0.465770 59.000000 0.397491 62.000000 0.386722
30138.000000 0.894199 180.000000 177.000000 63.000000 0.359781 119.000000 -0.017553 143.000000 -0.167380 162.000000 -0.143570 15.000000 -0.292870 64.000000 0.369092 118.000000 -0.022161
31267.000000 0.886616 201.000000 202.000000 64.000000 0.335929 130.000000 -0.043010 135.000000 -0.049515 188.000000 -0.168700 13.000000 -0.423461 65.000000 0.355991 135.000000 -0.049515
31469.000000 0.992288 202.000000 202.000000 118.000000 -0.112740 139.000000 -0.025155 168.000000 -0.106159 185.000000 -0.131551 13.000000 -0.460125 77.000000 0.352008 118.000000 -0.112740
32585.000000 0.931802 188.000000 198.000000 102.000000 -0.078789 133.000000 0.045864 145.000000 -0.054780 181.000000 -0.089481 14.000000 -0.421254 66.000000 0.406053 111.000000 -0.105295
32783.000000 0.893874 198.000000 196.000000 64.000000 0.353247 130.000000 -0.006097 165.000000 -0.177992 178.000000 -0.136550 13.000000 -0.432223 65.000000 0.368106 130.000000 -0.006097
36057.000000 2.069074 151.000000 226.000000 119.000000 -0.081910 168.000000 0.134764 191.000000 -0.060909 212.000000 -0.068714 20.000000 -0.644705 91.000000 -0.044795 119.000000 -0.081910
39478.000000 1.057884 181.000000 200.000000 70.000000 0.389936 131.000000 -0.036174 146.000000 -0.108760 182.000000 -0.175328 16.000000 -0.206648 69.000000 0.389967 101.000000 -0.070722
43492.000000 0.961884 184.000000 195.000000 69.000000 0.364438 130.000000 0.060927 154.000000 -0.125311 183.000000 -0.112192 12.000000 -0.481030 63.000000 0.370505 70.000000 0.369078
44076.000000 0.829184 197.000000 205.000000 72.000000 0.356224 139.000000 -0.007288 162.000000 -0.105110 186.000000 -0.198305 14.000000 -0.390156 73.000000 0.366160 125.000000 -0.106960
44281.000000 0.840159 205.000000 211.000000 117.000000 -0.099854 142.000000 -0.014791 163.000000 -0.077957 195.000000 -0.174762 15.000000 -0.450280 67.000000 0.377920 70.000000 0.283594
44492.000000 0.903107 211.000000 194.000000 66.000000 0.338087 126.000000 -0.004921 170.000000 -0.113933 181.000000 -0.109246 14.000000 -0.346363 65.000000 0.348166 67.000000 0.312993
48081.000000 0.988776 188.000000 189.000000 68.000000 0.387349 124.000000 -0.018448 125.000000 -0.028369 174.000000 -0.175078 14.000000 -0.351741 69.000000 0.392334 125.000000 -0.028369
49050.000000 0.974937 187.000000 188.000000 63.000000 0.342114 126.000000 -0.012991 145.000000 -0.150721 174.000000 -0.122288 14.000000 -0.348920 66.000000 0.360751 126.000000 -0.012991
50348.000000 0.909971 203.000000 202.000000 68.000000 0.374580 135.000000 -0.017462 161.000000 -0.132100 186.000000 -0.134406 14.000000 -0.386283 69.000000 0.384487 135.000000 -0.017462
50753.000000 0.933154 203.000000 195.000000 68.000000 0.326052 133.000000 -0.027493 145.000000 -0.137712 180.000000 -0.115017 14.000000 -0.406847 66.000000 0.341302 70.000000 0.330628
50948.000000 0.836551 195.000000 192.000000 136.000000 -0.017271 171.000000 0.333026 157.000000 -0.093087 164.000000 0.059531 13.000000 -0.450298 69.000000 0.284861 124.000000 -0.035154
52855.000000 0.772552 196.000000 203.000000 68.000000 0.350829 136.000000 -0.026612 137.000000 -0.031972 188.000000 -0.130580 14.000000 -0.365176 70.000000 0.375782 123.000000 -0.098211
54756.000000 1.091084 196.000000 196.000000 66.000000 0.341003 131.000000 -0.046051 166.000000 -0.142056 181.000000 -0.154126 13.000000 -0.492804 71.000000 0.406176 131.000000 -0.046051
54952.000000 1.040782 196.000000 209.000000 72.000000 0.382256 139.000000 -0.020548 169.000000 -0.152961 190.000000 -0.157773 14.000000 -0.402040 72.000000 0.382256 139.000000 -0.020548
55360.000000 0.829518 199.000000 194.000000 63.000000 0.337888 132.000000 -0.042023 162.000000 -0.119028 178.000000 -0.158494 15.000000 -0.332064 66.000000 0.362417 129.000000 -0.070847
55732.000000 1.081222 178.000000 176.000000 60.000000 0.401235 116.000000 -0.002052 144.000000 -0.106550 163.000000 -0.115358 15.000000 -0.205549 60.000000 0.401235 115.000000 -0.007099
56658.000000 1.103575 190.000000 193.000000 114.000000 -0.129528 130.000000 -0.066143 131.000000 -0.086096 174.000000 -0.179812 13.000000 -0.533980 70.000000 0.368559 114.000000 -0.129528
57394.000000 0.892002 155.000000 230.000000 135.000000 -0.106635 168.000000 0.081439 181.000000 0.012568 216.000000 -0.038465 8.000000 0.666782 20.000000 0.505936 46.000000 -0.399676
61366.000000 0.810626 197.000000 201.000000 68.000000 0.340519 136.000000 0.018320 149.000000 -0.081538 184.000000 -0.116224 14.000000 -0.414671 70.000000 0.360723 136.000000 0.018320
63257.000000 0.883526 199.000000 191.000000 66.000000 0.315629 129.000000 0.003372 150.000000 -0.161082 178.000000 -0.115237 14.000000 -0.470674 69.000000 0.364736 130.000000 0.003278
63448.000000 0.956800 191.000000 200.000000 63.000000 0.360514 130.000000 -0.014575 164.000000 -0.143117 184.000000 -0.131096 13.000000 -0.411727 64.000000 0.370796 129.000000 -0.039230
63850.000000 0.832775 202.000000 210.000000 67.000000 0.342255 141.000000 -0.014575 157.000000 -0.113479 193.000000 -0.183651 14.000000 -0.477900 70.000000 0.418055 139.000000 -0.034372
65961.000000 0.785363 198.000000 194.000000 97.000000 -0.069249 130.000000 0.021428 161.000000 -0.093665 176.000000 -0.139527 13.000000 -0.478290 70.000000 0.355392 113.000000 -0.068385
67437.000000 1.013855 194.000000 189.000000 126.000000 -0.153009 154.000000 0.351176 170.000000 -0.219374 174.000000 -0.163950 15.000000 -0.217743 58.000000 0.369611 66.000000 0.315426
68799.000000 1.241549 177.000000 171.000000 62.000000 0.360596 105.000000 0.269797 132.000000 -0.097773 154.000000 -0.202037 16.000000 -0.473310 66.000000 0.448591 104.000000 0.100189
69148.000000 1.103182 178.000000 182.000000 53.000000 0.236537 114.000000 0.127353 146.000000 -0.135971 162.000000 -0.055830 15.000000 -0.334827 62.000000 0.659829 112.000000 -0.035500
69330.000000 1.065268 182.000000 192.000000 63.000000 0.436350 120.000000 -0.018683 127.000000 -0.064875 173.000000 -0.145049 15.000000 -0.315828 55.000000 0.512745 66.000000 0.316491
70112.000000 1.020330 196.000000 203.000000 138.000000 -0.031946 179.000000 0.042994 181.000000 -0.011380 186.000000 -0.197038 16.000000 -0.275138 70.000000 0.410677 144.000000 -0.074594
70315.000000 1.062164 203.000000 191.000000 106.000000 -0.164999 144.000000 0.443871 161.000000 -0.013557 181.000000 -0.222053 14.000000 -0.505124 61.000000 0.789860 106.000000 -0.164999
71231.000000 1.040611 178.000000 191.000000 65.000000 0.341033 119.000000 0.012978 155.000000 -0.204574 173.000000 -0.133681 14.000000 -0.399937 67.000000 0.375468 120.000000 0.002413
71990.000000 1.167130 307.000000 208.000000 77.000000 0.234013 126.000000 0.040753 148.000000 -0.059073 188.000000 -0.133965 8.000000 -0.399624 50.000000 0.244168 77.000000 0.234013
73319.000000 1.067918 174.000000 177.000000 59.000000 0.384893 120.000000 -0.041365 143.000000 -0.177493 158.000000 -0.193186 15.000000 -0.244793 60.000000 0.405364 118.000000 -0.056411
73679.000000 0.839406 183.000000 193.000000 63.000000 0.322177 126.000000 -0.053056 157.000000 -0.171705 176.000000 -0.142097 13.000000 -0.374123 60.000000 0.357146 63.000000 0.322177
76721.000000 1.093762 199.000000 202.000000 144.000000 -0.095284 176.000000 0.046252 178.000000 0.006441 185.000000 0.017131 14.000000 -0.425971 66.000000 0.393169 68.000000 0.379015
78391.000000 1.013558 197.000000 199.000000 64.000000 0.379622 130.000000 -0.027871 164.000000 -0.144577 183.000000 -0.118638 15.000000 -0.214187 63.000000 0.384637 64.000000 0.379622
78790.000000 1.092259 200.000000 200.000000 104.000000 -0.097550 133.000000 -0.041770 145.000000 -0.159921 178.000000 -0.169389 14.000000 -0.373695 66.000000 0.381400 68.000000 0.356259
82180.000000 0.966928 180.000000 169.000000 56.000000 0.328652 132.000000 0.011475 139.000000 -0.178964 148.000000 -0.011002 14.000000 -0.318981 60.000000 0.419155 117.000000 -0.021456
82349.000000 1.003342 169.000000 207.000000 109.000000 -0.110564 141.000000 0.018433 170.000000 -0.127069 190.000000 -0.078684 17.000000 -0.329637 78.000000 0.320002 112.000000 -0.064764
85637.000000 1.084307 198.000000 189.000000 66.000000 0.301226 119.000000 -0.056816 126.000000 -0.108086 175.000000 -0.114296 20.000000 -0.163372 64.000000 0.347009 68.000000 0.295285
85826.000000 1.088855 189.000000 180.000000 93.000000 -0.040708 116.000000 -0.001883 122.000000 -0.031897 173.000000 0.179091 14.000000 -0.279108 60.000000 0.367129 61.000000 0.361534
86541.000000 0.957416 180.000000 181.000000 130.000000 -0.041110 156.000000 0.001491 153.000000 -0.085406 160.000000 -0.213430 15.000000 -0.175704 58.000000 0.373684 60.000000 0.352822
88976.000000 1.296913 189.000000 197.000000 124.000000 -0.137162 162.000000 -0.003288 171.000000 -0.054824 183.000000 -0.116659 14.000000 -0.298823 60.000000 0.397274 69.000000 0.274751
89762.000000 0.929547 199.000000 189.000000 68.000000 0.405972 126.000000 0.022132 129.000000 -0.048307 170.000000 -0.164873 14.000000 -0.472194 71.000000 0.488589 113.000000 0.005832
91225.000000 0.898417 189.000000 203.000000 64.000000 0.291361 133.000000 0.078259 170.000000 -0.028071 185.000000 -0.012053 16.000000 -0.293701 68.000000 0.365405 131.000000 -0.036005
92771.000000 1.151706 183.000000 175.000000 61.000000 0.425642 117.000000 -0.000641 143.000000 -0.248775 160.000000 -0.084185 13.000000 -0.481146 62.000000 0.429733 117.000000 -0.000641
93321.000000 1.066660 190.000000 206.000000 70.000000 0.340059 136.000000 0.023698 167.000000 -0.171003 183.000000 -0.204169 14.000000 -0.399532 66.000000 0.395843 70.000000 0.340059
95823.000000 1.036317 203.000000 200.000000 66.000000 0.388558 134.000000 0.069700 162.000000 -0.003073 183.000000 -0.104907 15.000000 -0.277257 65.000000 0.428730 95.000000 -0.004186
97558.000000 1.190830 194.000000 201.000000 71.000000 0.372209 135.000000 0.011724 174.000000 -0.173589 187.000000 -0.154482 19.000000 -0.169971 69.000000 0.381942 71.000000 0.372209
97759.000000 1.188466 201.000000 201.000000 68.000000 0.409862 132.000000 0.116926 150.000000 -0.231584 182.000000 -0.182272 14.000000 -0.339261 72.000000 0.450049 117.000000 -0.070737
103560.000000 0.809658 194.000000 187.000000 60.000000 0.308499 125.000000 0.006741 128.000000 -0.057523 174.000000 -0.120860 13.000000 -0.361690 66.000000 0.344549 128.000000 -0.057523
103747.000000 0.842134 187.000000 193.000000 103.000000 -0.131740 128.000000 0.040095 130.000000 0.005095 177.000000 -0.167788 13.000000 -0.414919 65.000000 0.357182 110.000000 -0.077899
103940.000000 0.839328 193.000000 192.000000 67.000000 0.347775 130.000000 0.037760 166.000000 -0.140391 178.000000 -0.104608 17.000000 -0.178178 65.000000 0.364140 67.000000 0.347775
104527.000000 0.837807 198.000000 207.000000 70.000000 0.368416 142.000000 -0.007914 162.000000 -0.121753 191.000000 -0.094370 15.000000 -0.396521 70.000000 0.368416 141.000000 -0.022349
104927.000000 0.861662 193.000000 201.000000 73.000000 0.329247 137.000000 -0.057760 140.000000 -0.107289 186.000000 -0.094152 14.000000 -0.409435 73.000000 0.329247 124.000000 -0.157195
106212.000000 1.204202 185.000000 202.000000 65.000000 0.403762 133.000000 -0.015017 135.000000 -0.041099 186.000000 -0.153791 17.000000 -0.164137 65.000000 0.403762 135.000000 -0.041099
107049.000000 0.991847 213.000000 191.000000 59.000000 0.344810 128.000000 -0.009718 146.000000 -0.138040 177.000000 -0.133258 14.000000 -0.305003 61.000000 0.384904 122.000000 -0.025862
107427.000000 0.964704 187.000000 186.000000 59.000000 0.333074 123.000000 0.024029 139.000000 -0.030515 168.000000 -0.169670 14.000000 -0.251738 63.000000 0.377885 125.000000 -0.016551
108365.000000 0.787511 202.000000 197.000000 70.000000 0.325565 133.000000 -0.015312 156.000000 -0.170124 182.000000 -0.133855 14.000000 -0.479449 63.000000 0.385581 70.000000 0.325565
108562.000000 0.860266 197.000000 204.000000 73.000000 0.388137 138.000000 0.032854 140.000000 0.002415 183.000000 -0.132996 15.000000 -0.402005 73.000000 0.388137 139.000000 0.017604
108766.000000 0.868665 204.000000 196.000000 65.000000 0.372192 135.000000 0.044168 160.000000 -0.181193 171.000000 -0.072776 14.000000 -0.446334 65.000000 0.372192 134.000000 0.028838
110463.000000 0.858180 400.000000 200.000000 65.000000 0.311333 133.000000 0.028012 134.000000 0.002729 186.000000 -0.118838 13.000000 -0.454924 67.000000 0.315048 134.000000 0.002729
111052.000000 0.802053 199.000000 201.000000 60.000000 0.362637 131.000000 -0.025109 168.000000 -0.097553 186.000000 -0.130172 14.000000 -0.459748 60.000000 0.362637 132.000000 -0.040564
111253.000000 0.811364 201.000000 202.000000 74.000000 0.344296 140.000000 -0.040328 149.000000 -0.060971 185.000000 -0.173243 14.000000 -0.487302 76.000000 0.353716 134.000000 -0.089027
112552.000000 1.254546 192.000000 190.000000 137.000000 -0.147493 162.000000 0.004169 164.000000 -0.170957 171.000000 -0.158151 16.000000 -0.105549 60.000000 0.472069 62.000000 0.417133
112941.000000 1.157603 199.000000 198.000000 68.000000 0.424531 129.000000 0.083841 152.000000 -0.103559 180.000000 -0.167178 14.000000 -0.325407 67.000000 0.424953 68.000000 0.424531
113920.000000 1.270547 186.000000 179.000000 59.000000 0.365674 117.000000 0.014467 147.000000 -0.211567 161.000000 -0.165454 16.000000 -0.163435 64.000000 0.442837 117.000000 0.014467
117930.000000 1.104965 186.000000 190.000000 106.000000 -0.119501 128.000000 -0.025674 152.000000 -0.124969 175.000000 -0.164248 14.000000 -0.297512 62.000000 0.413711 69.000000 0.357238
118306.000000 1.073608 186.000000 181.000000 60.000000 0.395159 123.000000 -0.031661 135.000000 -0.125627 164.000000 -0.117463 13.000000 -0.475999 63.000000 0.447855 122.000000 -0.041331
119990.000000 1.006440 197.000000 203.000000 65.000000 0.454560 139.000000 -0.024311 165.000000 -0.098040 184.000000 -0.131738 10.000000 -0.802619 66.000000 0.464560 133.000000 -0.068355
120377.000000 0.916504 184.000000 181.000000 61.000000 0.346959 122.000000 0.044186 154.000000 -0.144763 170.000000 -0.093071 13.000000 -0.371899 63.000000 0.401049 121.000000 0.029265
120558.000000 0.956445 181.000000 176.000000 59.000000 0.393765 117.000000 -0.001110 139.000000 -0.117286 163.000000 -0.084544 12.000000 -0.361233 61.000000 0.432841 116.000000 -0.021063
121102.000000 0.885815 189.000000 194.000000 101.000000 -0.094888 128.000000 -0.025625 143.000000 -0.081926 178.000000 -0.099497 13.000000 -0.498855 63.000000 0.381773 65.000000 0.366052
121296.000000 1.019625 194.000000 190.000000 67.000000 0.386551 122.000000 -0.021817 123.000000 -0.032036 173.000000 -0.175423 14.000000 -0.386850 68.000000 0.396488 123.000000 -0.032036
121689.000000 0.961270 203.000000 191.000000 65.000000 0.351096 126.000000 -0.015689 152.000000 -0.107773 175.000000 -0.096786 13.000000 -0.415048 64.000000 0.371221 106.000000 -0.056457
122835.000000 0.975641 182.000000 188.000000 65.000000 0.388762 123.000000 0.011975 153.000000 -0.076756 175.000000 -0.153246 15.000000 -0.261476 59.000000 0.390078 65.000000 0.388762
124202.000000 0.849907 216.000000 208.000000 110.000000 -0.079216 138.000000 0.010139 160.000000 -0.124641 193.000000 -0.123370 15.000000 -0.392067 78.000000 0.459156 111.000000 -0.030643
124971.000000 0.966254 180.000000 178.000000 60.000000 0.334481 123.000000 -0.016068 150.000000 -0.257603 162.000000 -0.171332 13.000000 -0.354562 64.000000 0.458274 120.000000 -0.026067
125149.000000 0.879325 178.000000 188.000000 65.000000 0.381865 124.000000 0.034735 133.000000 -0.052021 167.000000 -0.169479 13.000000 -0.399390 66.000000 0.391472 109.000000 -0.097648
125911.000000 1.050532 197.000000 204.000000 72.000000 0.412508 131.000000 -0.056378 157.000000 -0.210186 188.000000 -0.142022 14.000000 -0.439734 73.000000 0.421945 131.000000 -0.056378
126315.000000 0.898485 200.000000 205.000000 70.000000 0.352931 135.000000 0.007475 137.000000 -0.038074 186.000000 -0.145328 16.000000 -0.309525 70.000000 0.352931 120.000000 -0.093779
127080.000000 0.872976 187.000000 184.000000 61.000000 0.346444 121.000000 -0.031520 137.000000 -0.135520 167.000000 -0.128780 13.000000 -0.415300 60.000000 0.351883 101.000000 -0.136285
127264.000000 1.110532 184.000000 179.000000 61.000000 0.370489 115.000000 -0.008983 139.000000 -0.147666 161.000000 -0.153950 14.000000 -0.205564 62.000000 0.405301 115.000000 -0.008983
128220.000000 0.895331 204.000000 198.000000 114.000000 -0.083888 133.000000 -0.032507 168.000000 -0.120513 181.000000 -0.148839 14.000000 -0.400578 67.000000 0.342964 70.000000 0.302399
130967.000000 0.862244 203.000000 190.000000 63.000000 0.332867 126.000000 -0.003902 152.000000 -0.133916 174.000000 -0.115862 13.000000 -0.384984 66.000000 0.372161 127.000000 -0.023933
135738.000000 1.074294 178.000000 183.000000 61.000000 0.449717 124.000000 -0.009356 154.000000 -0.143290 168.000000 -0.117898 15.000000 -0.176004 62.000000 0.469387 122.000000 -0.044419
137083.000000 0.806711 192.000000 161.000000 67.000000 0.352133 133.000000 -0.049702 134.000000 -0.059859 141.000000 -0.120392 14.000000 -0.319104 69.000000 0.374170 122.000000 -0.106646
137668.000000 0.929606 192.000000 177.000000 121.000000 -0.027603 156.000000 0.666004 155.000000 0.529389 162.000000 1.247885 13.000000 -0.454422 66.000000 0.401409 123.000000 0.038024
139593.000000 1.082652 201.000000 184.000000 63.000000 0.440221 118.000000 -0.010705 131.000000 -0.126708 171.000000 -0.041019 14.000000 -0.329416 62.000000 0.440519 64.000000 0.419861
141304.000000 0.933351 203.000000 204.000000 103.000000 -0.066505 135.000000 -0.007836 152.000000 -0.108323 187.000000 -0.165751 15.000000 -0.362510 72.000000 0.395782 74.000000 0.370249
141898.000000 1.006646 193.000000 192.000000 99.000000 -0.076804 130.000000 -0.016037 131.000000 -0.041084 177.000000 -0.106650 13.000000 -0.458746 66.000000 0.388166 99.000000 -0.076804
142090.000000 1.050311 192.000000 183.000000 64.000000 0.437225 125.000000 0.010657 154.000000 -0.146693 164.000000 -0.194453 14.000000 -0.285285 64.000000 0.437225 125.000000 0.010657
143416.000000 0.937164 194.000000 213.000000 120.000000 -0.051570 142.000000 -0.018341 159.000000 -0.049061 192.000000 -0.068856 14.000000 -0.453290 69.000000 0.477679 120.000000 -0.051570
143836.000000 0.912946 207.000000 202.000000 72.000000 0.355533 134.000000 0.017478 169.000000 -0.136487 186.000000 -0.161063 14.000000 -0.405753 70.000000 0.396192 72.000000 0.355533
145770.000000 0.856412 198.000000 156.000000 100.000000 -0.050313 135.000000 0.108922 119.000000 -0.064873 126.000000 -0.064480 15.000000 -0.396222 69.000000 0.352118 118.000000 -0.064873
146722.000000 0.954530 179.000000 192.000000 57.000000 0.475047 129.000000 0.004515 141.000000 -0.094090 174.000000 -0.182523 12.000000 -0.336160 57.000000 0.475047 123.000000 -0.004215
147053.000000 2.238932 139.000000 244.000000 138.000000 -0.119245 176.000000 0.153749 193.000000 0.127981 230.000000 0.001317 23.000000 -0.595582 85.000000 0.041944 103.000000 -0.057930
147488.000000 1.147275 191.000000 198.000000 68.000000 0.428278 123.000000 0.060940 144.000000 -0.205360 180.000000 -0.117023 15.000000 -0.311597 71.000000 0.448403 121.000000 0.012131
147889.000000 0.975423 203.000000 222.000000 114.000000 -0.083273 150.000000 -0.059370 166.000000 -0.114841 207.000000 -0.109215 15.000000 -0.464375 78.000000 0.405504 107.000000 -0.068368
148111.000000 1.076491 222.000000 199.000000 71.000000 0.363292 133.000000 -0.054152 152.000000 -0.178054 185.000000 -0.116142 14.000000 -0.416159 65.000000 0.363481 71.000000 0.363292
149028.000000 1.185030 179.000000 189.000000 103.000000 -0.108641 130.000000 -0.055362 163.000000 -0.137428 173.000000 -0.128854 15.000000 -0.302134 69.000000 0.380154 103.000000 -0.108641
149408.000000 0.910094 191.000000 210.000000 73.000000 0.336997 144.000000 -0.019765 171.000000 -0.137526 193.000000 -0.165504 14.000000 -0.453227 71.000000 0.397106 75.000000 0.376745
151009.000000 0.998103 189.000000 193.000000 59.000000 0.422115 125.000000 -0.025954 128.000000 -0.060969 175.000000 -0.128260 13.000000 -0.430048 61.000000 0.497272 128.000000 -0.060969
153523.000000 1.055533 186.000000 197.000000 67.000000 0.361614 136.000000 0.044749 165.000000 -0.114814 178.000000 -0.195629 15.000000 -0.302790 69.000000 0.386489 133.000000 -0.044091
153720.000000 0.954043 197.000000 138.000000 42.000000 -0.022791 83.000000 0.110470 105.000000 -0.193856 112.000000 -0.206223 15.000000 -0.417901 72.000000 0.369467 140.000000 1.457962
153858.000000 1.599404 138.000000 325.000000 173.000000 -0.386411 220.000000 0.036693 241.000000 -0.108714 304.000000 -0.021461 15.000000 -0.071880 132.000000 2.009906 173.000000 -0.386411
154349.000000 0.858058 166.000000 204.000000 71.000000 0.265017 138.000000 0.049810 139.000000 0.039763 187.000000 -0.118902 15.000000 -0.490343 77.000000 0.328966 139.000000 0.039763
156076.000000 1.081709 230.000000 200.000000 71.000000 0.438339 140.000000 -0.015250 163.000000 -0.133885 182.000000 -0.139089 15.000000 -0.275642 71.000000 0.438339 136.000000 -0.044482
156276.000000 0.961460 200.000000 201.000000 126.000000 -0.083839 149.000000 -0.013086 162.000000 -0.127444 169.000000 -0.129341 15.000000 -0.315688 68.000000 0.452572 105.000000 -0.083292
156683.000000 0.936539 206.000000 209.000000 110.000000 -0.086377 137.000000 0.028763 166.000000 -0.100343 192.000000 -0.054686 15.000000 -0.396014 76.000000 0.470191 117.000000 -0.081158
157632.000000 0.850876 181.000000 184.000000 100.000000 -0.049046 124.000000 0.032835 149.000000 -0.096223 167.000000 -0.091789 15.000000 -0.351019 63.000000 0.401050 100.000000 -0.049046
158399.000000 0.879512 204.000000 156.000000 109.000000 -0.059293 135.000000 0.130989 124.000000 -0.087333 131.000000 0.017196 13.000000 -0.521866 63.000000 0.414310 109.000000 -0.059293
159017.000000 0.950626 194.000000 191.000000 69.000000 0.352635 131.000000 -0.024450 143.000000 -0.093352 178.000000 -0.081690 14.000000 -0.439546 64.000000 0.368402 69.000000 0.352635
160141.000000 0.946615 187.000000 197.000000 71.000000 0.338606 133.000000 -0.030142 152.000000 -0.138292 182.000000 -0.130078 16.000000 -0.277241 63.000000 0.366991 71.000000 0.338606
160338.000000 0.919955 197.000000 196.000000 61.000000 0.371834 128.000000 0.079312 162.000000 -0.159041 179.000000 -0.149073 15.000000 -0.364497 59.000000 0.392195 61.000000 0.371834
160733.000000 0.861081 199.000000 208.000000 100.000000 -0.027368 132.000000 0.053463 154.000000 -0.099359 190.000000 -0.162918 13.000000 -0.470345 65.000000 0.347396 69.000000 0.327444
162848.000000 0.882067 215.000000 204.000000 73.000000 0.360985 124.000000 -0.004905 141.000000 -0.104153 187.000000 0.017225 15.000000 -0.400630 74.000000 0.375641 126.000000 -0.072915
163259.000000 1.020517 207.000000 185.000000 62.000000 0.380674 122.000000 -0.035378 123.000000 -0.055346 170.000000 -0.125957 13.000000 -0.436819 64.000000 0.439812 123.000000 -0.055346
164758.000000 1.016413 195.000000 205.000000 107.000000 -0.140468 135.000000 -0.015170 136.000000 -0.025280 187.000000 -0.161173 14.000000 -0.338509 73.000000 0.433874 111.000000 -0.041831
165361.000000 0.858103 197.000000 200.000000 134.000000 -0.093714 173.000000 0.014358 174.000000 -0.006677 178.000000 -0.179561 15.000000 -0.375095 66.000000 0.409339 69.000000 0.352867
165753.000000 1.066818 192.000000 182.000000 63.000000 0.341411 118.000000 0.053667 145.000000 -0.208996 160.000000 -0.070753 17.000000 -0.116208 67.000000 0.398652 118.000000 0.053667
168990.000000 0.995315 196.000000 208.000000 72.000000 0.370958 134.000000 -0.024516 136.000000 -0.045455 194.000000 -0.133715 10.000000 -0.772476 73.000000 0.381162 136.000000 -0.045455
169198.000000 0.948886 208.000000 200.000000 65.000000 0.386641 132.000000 -0.039045 147.000000 -0.104013 185.000000 -0.141930 14.000000 -0.430206 64.000000 0.391578 68.000000 0.381720
169797.000000 1.054781 198.000000 186.000000 69.000000 0.381114 125.000000 -0.032995 126.000000 -0.037635 174.000000 -0.138121 14.000000 -0.369263 64.000000 0.381694 76.000000 0.303903
170916.000000 0.632165 193.000000 191.000000 62.000000 0.315581 127.000000 0.016834 129.000000 0.016208 177.000000 -0.105329 13.000000 -0.433886 67.000000 0.333825 129.000000 0.016208
171498.000000 0.978579 200.000000 213.000000 72.000000 0.359119 139.000000 -0.001255 167.000000 -0.119340 197.000000 -0.166706 13.000000 -0.398946 72.000000 0.359119 139.000000 -0.001255
171915.000000 0.659200 204.000000 202.000000 66.000000 0.293825 135.000000 0.038526 152.000000 -0.101101 186.000000 -0.112936 13.000000 -0.532885 64.000000 0.319359 66.000000 0.293825
173352.000000 2.388476 134.000000 265.000000 170.000000 0.004497 198.000000 0.078807 239.000000 -0.090050 251.000000 -0.066522 19.000000 -0.597229 158.000000 -0.045191 172.000000 -0.023999
173617.000000 1.058116 265.000000 195.000000 72.000000 0.277100 131.000000 0.017793 162.000000 -0.099011 181.000000 -0.137333 14.000000 -0.447559 71.000000 0.292460 73.000000 0.266676
173812.000000 0.844359 195.000000 203.000000 108.000000 -0.117754 135.000000 -0.026661 158.000000 -0.130298 188.000000 -0.131222 14.000000 -0.442239 69.000000 0.378421 109.000000 -0.103617
175675.000000 1.055344 187.000000 196.000000 70.000000 0.396079 131.000000 -0.040062 166.000000 -0.127334 181.000000 -0.171315 13.000000 -0.484844 70.000000 0.396079 129.000000 -0.079686
177960.000000 0.712118 201.000000 149.000000 100.000000 -0.063506 128.000000 0.145602 118.000000 -0.084178 125.000000 0.090806 14.000000 -0.612258 70.000000 0.346600 100.000000 -0.063506
179094.000000 0.831507 181.000000 183.000000 63.000000 0.367479 121.000000 0.037651 128.000000 -0.070452 165.000000 -0.145281 13.000000 -0.486550 65.000000 0.397417 127.000000 -0.075499
181038.000000 0.865409 183.000000 180.000000 58.000000 0.432838 119.000000 -0.013716 128.000000 -0.091867 164.000000 -0.098921 13.000000 -0.376190 58.000000 0.432838 115.000000 -0.103168
181218.000000 0.773727 180.000000 181.000000 58.000000 0.391738 116.000000 0.017821 117.000000 0.017523 166.000000 -0.113763 13.000000 -0.400803 59.000000 0.406551 101.000000 -0.074404
182362.000000 0.865517 202.000000 211.000000 108.000000 -0.075520 144.000000 -0.008951 145.000000 -0.013873 198.000000 -0.112243 13.000000 -0.494546 77.000000 0.372662 108.000000 -0.075520
183318.000000 0.881253 178.000000 185.000000 61.000000 0.378275 119.000000 0.021458 135.000000 -0.091158 168.000000 -0.091049 13.000000 -0.374060 64.000000 0.428604 120.000000 -0.023902
183882.000000 0.947866 186.000000 196.000000 104.000000 -0.099935 125.000000 -0.023164 128.000000 -0.158117 181.000000 -0.104871 16.000000 -0.285644 71.000000 0.404218 108.000000 -0.144009
186575.000000 1.005720 211.000000 212.000000 81.000000 0.384438 142.000000 0.012211 158.000000 -0.132085 190.000000 -0.158338 15.000000 -0.446162 82.000000 0.404955 143.000000 -0.008337
186787.000000 0.911003 212.000000 210.000000 107.000000 -0.064748 134.000000 0.035597 141.000000 -0.033087 196.000000 -0.162541 17.000000 -0.185846 69.000000 0.434954 71.000000 0.369970
191066.000000 0.965710 205.000000 203.000000 110.000000 -0.115974 132.000000 -0.031663 173.000000 -0.140767 189.000000 -0.166644 13.000000 -0.475609 72.000000 0.363039 116.000000 -0.119532
191475.000000 0.956569 206.000000 187.000000 88.000000 -0.045577 124.000000 -0.007850 146.000000 -0.154545 172.000000 -0.128982 14.000000 -0.425672 65.000000 0.385865 105.000000 -0.124636
194898.000000 0.982917 182.000000 188.000000 102.000000 -0.052677 123.000000 -0.021582 158.000000 -0.164093 172.000000 -0.178762 14.000000 -0.326879 55.000000 0.411132 66.000000 0.394109
195086.000000 0.954373 188.000000 203.000000 137.000000 -0.053213 166.000000 -0.001096 179.000000 -0.122067 189.000000 -0.135562 14.000000 -0.396019 71.000000 0.408212 118.000000 -0.086834
195501.000000 0.827981 212.000000 200.000000 109.000000 -0.120188 135.000000 0.057823 156.000000 -0.088351 182.000000 -0.188351 15.000000 -0.405454 71.000000 0.362870 109.000000 -0.120188
196069.000000 1.031992 175.000000 179.000000 62.000000 0.341208 115.000000 -0.023651 120.000000 -0.033619 164.000000 -0.108746 13.000000 -0.371034 63.000000 0.361193 102.000000 -0.029497
196423.000000 0.957881 175.000000 187.000000 63.000000 0.337679 125.000000 -0.000184 148.000000 -0.128804 171.000000 -0.120766 17.000000 -0.161713 67.000000 0.461112 123.000000 -0.054934
197795.000000 0.922241 203.000000 193.000000 62.000000 0.362617 129.000000 -0.000254 133.000000 -0.061069 176.000000 -0.131729 14.000000 -0.333230 63.000000 0.377460 133.000000 -0.061069
197988.000000 0.879149 193.000000 188.000000 106.000000 -0.124153 126.000000 -0.000062 146.000000 -0.116253 173.000000 -0.120344 9.000000 -0.787074 65.000000 0.448008 106.000000 -0.124153
199699.000000 0.922661 193.000000 194.000000 112.000000 -0.132635 173.000000 0.733307 171.000000 0.505956 178.000000 1.280141 14.000000 -0.402166 76.000000 0.301157 112.000000 -0.132635
201616.000000 0.927179 198.000000 216.000000 114.000000 -0.088430 146.000000 0.005050 183.000000 -0.126251 197.000000 -0.171220 17.000000 -0.259497 68.000000 0.366085 114.000000 -0.088430
203702.000000 0.936728 191.000000 195.000000 65.000000 0.357951 130.000000 -0.009184 160.000000 -0.124876 181.000000 -0.133026 13.000000 -0.483177 64.000000 0.378077 66.000000 0.362747
205997.000000 1.011644 205.000000 163.000000 64.000000 0.278559 138.000000 -0.016630 135.000000 -0.087602 142.000000 -0.022163 2.000000 0.869121 72.000000 0.342149 126.000000 -0.144686
207909.000000 1.009592 187.000000 195.000000 99.000000 -0.102633 128.000000 -0.031678 131.000000 -0.061928 182.000000 -0.093542 14.000000 -0.405957 67.000000 0.384294 90.000000 0.040721
208104.000000 1.039403 195.000000 203.000000 69.000000 0.379733 135.000000 -0.005815 167.000000 -0.162148 182.000000 -0.145485 14.000000 -0.458184 71.000000 0.404873 131.000000 -0.063856
208894.000000 1.101899 187.000000 188.000000 101.000000 -0.142523 122.000000 0.007698 124.000000 -0.011910 171.000000 -0.143667 16.000000 -0.257618 61.000000 0.380079 68.000000 0.348526
209444.000000 0.916645 181.000000 188.000000 100.000000 -0.105644 123.000000 0.028150 125.000000 0.017021 174.000000 -0.159953 17.000000 -0.244404 67.000000 0.421942 103.000000 -0.092556
210834.000000 0.854167 196.000000 193.000000 105.000000 -0.086206 124.000000 -0.024607 161.000000 -0.090187 176.000000 -0.090094 12.000000 -0.581774 64.000000 0.422899 106.000000 -0.092052
211750.000000 0.866101 187.000000 191.000000 59.000000 0.412446 125.000000 0.020190 158.000000 -0.111708 178.000000 -0.120643 14.000000 -0.268022 59.000000 0.412446 122.000000 0.005957
213838.000000 1.039719 174.000000 188.000000 68.000000 0.351112 125.000000 0.013443 152.000000 -0.154706 172.000000 -0.134218 15.000000 -0.260392 59.000000 0.412821 69.000000 0.350532
215009.000000 0.971894 206.000000 199.000000 72.000000 0.374812 135.000000 -0.011911 169.000000 -0.140549 181.000000 -0.182353 13.000000 -0.598044 70.000000 0.389984 72.000000 0.374812
216702.000000 1.053201 195.000000 195.000000 67.000000 0.313200 128.000000 0.008058 152.000000 -0.162898 179.000000 -0.133509 13.000000 -0.461878 61.000000 0.427731 71.000000 0.388639
216897.000000 1.045314 195.000000 196.000000 106.000000 0.023401 129.000000 0.049920 144.000000 -0.097602 174.000000 -0.136300 14.000000 -0.479513 70.000000 0.484373 97.000000 -0.003951
217297.000000 1.013698 204.000000 188.000000 66.000000 0.434970 116.000000 0.013216 118.000000 -0.002820 171.000000 -0.150690 14.000000 -0.370894 67.000000 0.464295 118.000000 -0.002820
218223.000000 0.902679 182.000000 189.000000 65.000000 0.387934 125.000000 -0.032349 139.000000 -0.039215 171.000000 -0.060031 13.000000 -0.385251 66.000000 0.392589 125.000000 -0.032349
218794.000000 0.968243 195.000000 183.000000 135.000000 0.086959 162.000000 0.578042 160.000000 0.371474 167.000000 1.237384 17.000000 -0.326774 73.000000 0.309448 137.000000 0.052429
219219.000000 0.917241 242.000000 198.000000 68.000000 0.331378 130.000000 0.004309 148.000000 -0.098887 183.000000 -0.093525 13.000000 -0.429357 70.000000 0.380908 130.000000 0.004309
219615.000000 1.072400 198.000000 183.000000 62.000000 0.367259 118.000000 -0.018229 123.000000 -0.033181 170.000000 -0.139325 12.000000 -0.454026 64.000000 0.396397 123.000000 -0.033181
220930.000000 0.994106 203.000000 208.000000 114.000000 -0.097161 136.000000 0.003529 138.000000 -0.037537 195.000000 -0.129716 14.000000 -0.465423 73.000000 0.381066 115.000000 -0.118572
221343.000000 0.912365 205.000000 205.000000 74.000000 0.331018 136.000000 -0.016192 139.000000 -0.042383 188.000000 -0.154483 14.000000 -0.489217 70.000000 0.397508 74.000000 0.331018
223675.000000 1.085551 207.000000 198.000000 65.000000 0.420487 130.000000 -0.037349 156.000000 -0.139449 183.000000 -0.179935 14.000000 -0.455750 65.000000 0.420487 130.000000 -0.037349
224979.000000 1.009593 192.000000 204.000000 67.000000 0.500471 135.000000 -0.012663 156.000000 -0.213604 187.000000 -0.148477 16.000000 -0.307555 68.000000 0.500487 133.000000 -0.027036
225183.000000 1.001742 204.000000 200.000000 65.000000 0.393011 131.000000 -0.006192 152.000000 -0.190673 183.000000 -0.079809 16.000000 -0.332005 63.000000 0.418340 65.000000 0.393011
227495.000000 1.032996 198.000000 201.000000 65.000000 0.315361 132.000000 -0.027258 170.000000 -0.097508 185.000000 -0.139200 15.000000 -0.249012 67.000000 0.379938 125.000000 -0.076411
227696.000000 0.922602 201.000000 208.000000 67.000000 0.396517 136.000000 0.017930 164.000000 -0.125516 192.000000 -0.126644 15.000000 -0.358182 68.000000 0.401690 137.000000 0.012209
228306.000000 1.071101 191.000000 190.000000 102.000000 -0.120533 125.000000 -0.001585 153.000000 -0.161758 169.000000 -0.193527 13.000000 -0.430371 66.000000 0.410597 94.000000 -0.063478
229051.000000 0.864561 189.000000 197.000000 68.000000 0.356414 131.000000 -0.012820 164.000000 -0.130485 183.000000 -0.128855 13.000000 -0.527741 65.000000 0.387104 68.000000 0.356414
229648.000000 1.022663 206.000000 213.000000 70.000000 0.362571 139.000000 -0.033681 178.000000 -0.208101 197.000000 -0.169840 17.000000 -0.215691 67.000000 0.399138 70.000000 0.362571
229861.000000 1.038012 213.000000 212.000000 74.000000 0.369732 143.000000 -0.014482 159.000000 -0.104559 193.000000 -0.166957 14.000000 -0.537836 76.000000 0.390029 143.000000 -0.014482
230281.000000 0.900331 208.000000 195.000000 69.000000 0.375060 130.000000 0.008277 132.000000 0.003168 178.000000 -0.112241 14.000000 -0.443277 70.000000 0.384840 132.000000 0.003168
231230.000000 0.988073 195.000000 198.000000 64.000000 0.397494 129.000000 -0.002914 141.000000 -0.109326 178.000000 -0.165250 14.000000 -0.414982 63.000000 0.412698 68.000000 0.376460
231428.000000 0.911976 198.000000 198.000000 66.000000 0.379309 135.000000 -0.002036 150.000000 -0.143244 181.000000 -0.155033 15.000000 -0.417290 63.000000 0.415030 68.000000 0.399058
232231.000000 1.007149 203.000000 193.000000 67.000000 0.370770 129.000000 -0.004403 152.000000 -0.160060 177.000000 -0.158368 14.000000 -0.394449 61.000000 0.405755 69.000000 0.375598
232424.000000 0.811914 193.000000 152.000000 104.000000 -0.075987 131.000000 0.170268 124.000000 -0.049011 131.000000 0.170268 15.000000 -0.443541 75.000000 0.368917 110.000000 -0.084640
232576.000000 2.536554 152.000000 234.000000 131.000000 -0.075281 170.000000 0.101490 186.000000 -0.015061 219.000000 -0.027224 17.000000 -0.627976 90.000000 -0.030328 107.000000 -0.160188
233726.000000 0.890236 196.000000 215.000000 72.000000 0.366997 142.000000 -0.001439 172.000000 -0.132807 202.000000 -0.131553 15.000000 -0.419324 71.000000 0.391668 72.000000 0.366997
234563.000000 1.090611 271.000000 193.000000 67.000000 0.262399 125.000000 0.008181 137.000000 -0.078574 180.000000 -0.120580 13.000000 -0.455109 71.000000 0.295550 123.000000 -0.046506
235691.000000 1.108106 234.000000 200.000000 72.000000 0.309059 132.000000 -0.024796 164.000000 -0.152804 183.000000 -0.139922 14.000000 -0.441881 66.000000 0.330328 74.000000 0.318385
235891.000000 0.919325 200.000000 199.000000 111.000000 -0.098688 129.000000 -0.030581 166.000000 -0.128433 181.000000 -0.152759 13.000000 -0.471647 62.000000 0.405482 65.000000 0.380591
236090.000000 0.962666 199.000000 204.000000 67.000000 0.344832 134.000000 0.003952 136.000000 -0.012114 190.000000 -0.153996 17.000000 -0.241863 74.000000 0.373106 135.000000 -0.006535
236446.000000 1.717017 152.000000 247.000000 143.000000 -0.104672 179.000000 0.050861 218.000000 -0.109547 233.000000 -0.085801 14.000000 0.018239 84.000000 0.037473 143.000000 -0.104672
238211.000000 1.047931 192.000000 208.000000 72.000000 0.398585 137.000000 -0.036020 158.000000 -0.164530 191.000000 -0.128025 14.000000 -0.469422 71.000000 0.398663 72.000000 0.398585
240574.000000 1.066270 199.000000 197.000000 69.000000 0.392165 125.000000 -0.045265 128.000000 -0.061583 183.000000 -0.194171 13.000000 -0.470643 71.000000 0.427180 128.000000 -0.061583
244473.000000 1.049327 193.000000 205.000000 71.000000 0.381854 134.000000 -0.014528 167.000000 -0.098102 189.000000 -0.163870 14.000000 -0.467585 72.000000 0.386837 133.000000 -0.019261
244880.000000 1.016255 202.000000 205.000000 148.000000 -0.098151 174.000000 0.014780 188.000000 -0.189765 192.000000 -0.184280 14.000000 -0.501411 73.000000 0.374861 116.000000 -0.072525
246772.000000 1.009109 195.000000 190.000000 71.000000 0.388352 129.000000 -0.024640 156.000000 -0.178056 175.000000 -0.185987 13.000000 -0.511896 70.000000 0.398730 71.000000 0.388352
247368.000000 0.939188 203.000000 207.000000 71.000000 0.364123 140.000000 -0.023621 143.000000 -0.084201 191.000000 -0.144623 14.000000 -0.420233 69.000000 0.388888 71.000000 0.364123
247575.000000 0.915078 207.000000 186.000000 66.000000 0.362086 124.000000 0.012681 136.000000 -0.069104 171.000000 -0.096691 14.000000 -0.438244 69.000000 0.375471 125.000000 0.012478
247761.000000 1.087636 186.000000 183.000000 59.000000 0.422353 119.000000 -0.037336 121.000000 -0.062806 167.000000 -0.160456 15.000000 -0.278524 59.000000 0.422353 121.000000 -0.062806
249093.000000 0.997102 207.000000 199.000000 71.000000 0.393293 132.000000 -0.025595 134.000000 -0.045955 182.000000 -0.144844 14.000000 -0.509513 71.000000 0.393293 134.000000 -0.045955
250640.000000 0.918860 189.000000 191.000000 64.000000 0.356368 125.000000 0.010847 139.000000 -0.112243 179.000000 -0.130315 12.000000 -0.522659 66.000000 0.370960 126.000000 0.005580
250831.000000 0.849104 191.000000 196.000000 63.000000 0.341064 132.000000 0.033854 160.000000 -0.136021 180.000000 -0.118074 12.000000 -0.536397 66.000000 0.360328 131.000000 0.029058
251423.000000 1.015784 201.000000 209.000000 68.000000 0.351408 134.000000 -0.003794 135.000000 -0.009750 194.000000 -0.116224 14.000000 -0.401034 69.000000 0.361629 135.000000 -0.009750
251632.000000 0.976017 209.000000 205.000000 71.000000 0.337867 140.000000 -0.017384 166.000000 -0.115033 188.000000 -0.127477 15.000000 -0.374939 69.000000 0.362772 71.000000 0.337867
255459.000000 1.033872 192.000000 202.000000 63.000000 0.403042 130.000000 -0.026457 132.000000 -0.042758 187.000000 -0.156912 15.000000 -0.298243 63.000000 0.403042 121.000000 -0.112523
255661.000000 1.011489 202.000000 197.000000 69.000000 0.367367 131.000000 -0.002288 159.000000 -0.157180 184.000000 -0.139374 14.000000 -0.470847 70.000000 0.392101 131.000000 -0.002288
255858.000000 0.931111 197.000000 208.000000 113.000000 -0.106302 138.000000 0.002542 143.000000 -0.073632 189.000000 -0.160483 14.000000 -0.415755 67.000000 0.398149 113.000000 -0.106302
256262.000000 0.871725 196.000000 191.000000 64.000000 0.414733 125.000000 -0.003274 126.000000 -0.018165 175.000000 -0.137691 13.000000 -0.443950 64.000000 0.414733 126.000000 -0.018165
256814.000000 1.009639 182.000000 181.000000 62.000000 0.395172 123.000000 -0.016348 137.000000 -0.118543 167.000000 -0.112195 16.000000 -0.169657 64.000000 0.419325 120.000000 -0.030956
257777.000000 1.050565 197.000000 208.000000 71.000000 0.381239 138.000000 -0.003102 167.000000 -0.150424 197.000000 -0.193371 13.000000 -0.534482 73.000000 0.406443 138.000000 -0.003102
258380.000000 0.825545 198.000000 187.000000 61.000000 0.341347 123.000000 0.008291 149.000000 -0.123747 170.000000 -0.120551 13.000000 -0.456131 63.000000 0.410547 123.000000 0.008291
259870.000000 1.107335 199.000000 190.000000 82.000000 0.089906 127.000000 -0.044905 161.000000 -0.178355 174.000000 -0.157557 13.000000 -0.398417 67.000000 0.390190 104.000000 -0.132617
260255.000000 1.063592 195.000000 192.000000 138.000000 -0.006631 171.000000 0.584858 168.000000 0.285046 175.000000 1.094012 14.000000 -0.454496 72.000000 0.320112 108.000000 -0.103856
262173.000000 0.921274 205.000000 212.000000 68.000000 0.377805 134.000000 -0.035786 138.000000 -0.050050 198.000000 -0.155110 13.000000 -0.514668 69.000000 0.388526 138.000000 -0.050050
262385.000000 1.079654 212.000000 203.000000 80.000000 0.284089 137.000000 -0.034939 167.000000 -0.142260 189.000000 -0.173873 14.000000 -0.480361 72.000000 0.409339 80.000000 0.284089
266039.000000 0.998261 183.000000 193.000000 67.000000 0.413039 125.000000 -0.000157 149.000000 -0.163699 178.000000 -0.137289 13.000000 -0.456567 66.000000 0.418086 68.000000 0.397976
266648.000000 0.866804 208.000000 204.000000 69.000000 0.387840 134.000000 -0.009842 148.000000 -0.102556 187.000000 -0.139640 14.000000 -0.466314 68.000000 0.387981 70.000000 0.372605
267725.000000 2.443701 139.000000 228.000000 124.000000 -0.085548 161.000000 0.081614 163.000000 0.071221 214.000000 -0.052134 20.000000 -0.733524 83.000000 -0.074324 110.000000 -0.105186
268744.000000 1.004766 205.000000 199.000000 67.000000 0.399343 132.000000 -0.020046 134.000000 -0.035766 182.000000 -0.152162 14.000000 -0.480139 66.000000 0.409624 68.000000 0.398966
269891.000000 1.010565 185.000000 186.000000 106.000000 -0.117286 125.000000 -0.000391 157.000000 -0.158370 172.000000 -0.124374 13.000000 -0.437021 64.000000 0.400550 106.000000 -0.117286
270077.000000 0.983322 186.000000 191.000000 63.000000 0.382600 124.000000 -0.006097 125.000000 -0.011222 174.000000 -0.122899 13.000000 -0.498481 65.000000 0.402287 125.000000 -0.011222
271669.000000 1.014905 185.000000 182.000000 62.000000 0.388182 121.000000 -0.005940 156.000000 -0.169139 167.000000 -0.142446 12.000000 -0.519327 62.000000 0.388182 121.000000 -0.005940
273036.000000 1.018371 199.000000 203.000000 110.000000 -0.112287 134.000000 -0.025486 164.000000 -0.158700 187.000000 -0.144280 15.000000 -0.248116 68.000000 0.391649 113.000000 -0.131566
273640.000000 0.878165 200.000000 190.000000 62.000000 0.349689 125.000000 0.002181 149.000000 -0.126834 174.000000 -0.117572 14.000000 -0.367837 59.000000 0.385300 80.000000 0.073389
273830.000000 0.952131 190.000000 186.000000 65.000000 0.375863 121.000000 -0.029090 123.000000 -0.039325 170.000000 -0.110909 13.000000 -0.417131 66.000000 0.390377 123.000000 -0.039325
274203.000000 1.041442 187.000000 192.000000 68.000000 0.367681 131.000000 0.006646 156.000000 -0.159060 179.000000 -0.134641 13.000000 -0.463274 65.000000 0.398543 105.000000 -0.133479
277162.000000 0.786300 213.000000 206.000000 68.000000 0.357591 136.000000 -0.012256 137.000000 -0.012757 188.000000 -0.165298 13.000000 -0.537304 65.000000 0.372795 68.000000 0.357591
278716.000000 1.020598 189.000000 183.000000 65.000000 0.378530 122.000000 -0.010894 135.000000 -0.089811 170.000000 -0.146379 14.000000 -0.369337 63.000000 0.399297 66.000000 0.383028
279908.000000 1.051130 241.000000 197.000000 105.000000 -0.135514 131.000000 0.006036 146.000000 -0.094122 182.000000 -0.144373 14.000000 -0.404341 71.000000 0.357995 110.000000 -0.161848
281198.000000 0.906115 197.000000 204.000000 72.000000 0.402574 136.000000 -0.018260 152.000000 -0.139045 188.000000 -0.136787 13.000000 -0.624888 72.000000 0.402574 136.000000 -0.018260
283321.000000 1.113212 190.000000 201.000000 70.000000 0.379856 135.000000 -0.048026 158.000000 -0.166223 186.000000 -0.118448 13.000000 -0.562888 72.000000 0.404621 135.000000 -0.048026
285679.000000 1.016377 204.000000 211.000000 69.000000 0.340655 138.000000 -0.003840 139.000000 -0.009953 194.000000 -0.154810 13.000000 -0.555395 66.000000 0.373132 69.000000 0.340655
285890.000000 0.920064 211.000000 214.000000 110.000000 -0.085693 148.000000 -0.003418 178.000000 -0.133997 201.000000 -0.158512 15.000000 -0.457161 77.000000 0.372143 107.000000 -0.047009
288042.000000 1.030675 197.000000 210.000000 113.000000 -0.106006 143.000000 -0.031240 170.000000 -0.154120 195.000000 -0.158259 16.000000 -0.360503 72.000000 0.405921 122.000000 -0.134689
288451.000000 0.842057 199.000000 206.000000 69.000000 0.340206 139.000000 -0.004484 140.000000 -0.004624 189.000000 -0.170266 13.000000 -0.582787 71.000000 0.375174 140.000000 -0.004624
289213.000000 1.077947 177.000000 183.000000 64.000000 0.398102 121.000000 -0.006330 147.000000 -0.170704 170.000000 -0.140752 13.000000 -0.418152 65.000000 0.407758 120.000000 -0.011142
290189.000000 0.999032 209.000000 201.000000 68.000000 0.391707 129.000000 -0.026412 163.000000 -0.160031 184.000000 -0.175376 14.000000 -0.469606 67.000000 0.411723 69.000000 0.376644
291702.000000 0.981976 182.000000 198.000000 68.000000 0.359408 131.000000 -0.004514 132.000000 -0.009702 182.000000 -0.162773 13.000000 -0.480687 65.000000 0.394785 68.000000 0.359408
292091.000000 0.950457 191.000000 200.000000 64.000000 0.367569 133.000000 -0.036035 164.000000 -0.149434 184.000000 -0.152929 13.000000 -0.521975 66.000000 0.392632 132.000000 -0.045925
292291.000000 1.039328 200.000000 191.000000 66.000000 0.390486 129.000000 -0.043072 157.000000 -0.182759 176.000000 -0.143559 14.000000 -0.367115 64.000000 0.400658 68.000000 0.380266
292482.000000 1.157446 191.000000 193.000000 65.000000 0.424673 125.000000 -0.016330 162.000000 -0.172649 179.000000 -0.148574 13.000000 -0.443008 65.000000 0.424673 125.000000 -0.016330
292675.000000 1.085690 193.000000 179.000000 130.000000 0.005107 158.000000 0.316392 156.000000 0.200278 163.000000 0.709291 13.000000 -0.570768 70.000000 0.358634 131.000000 -0.004721
292854.000000 2.053760 179.000000 226.000000 143.000000 -0.078338 160.000000 0.098104 164.000000 0.051741 211.000000 -0.053071 8.000000 0.222490 89.000000 -0.099386 101.000000 -0.106424
294386.000000 0.879234 198.000000 203.000000 68.000000 0.388264 134.000000 -0.040173 148.000000 -0.123199 189.000000 -0.154372 15.000000 -0.342349 68.000000 0.388264 132.000000 -0.064233
295565.000000 0.872334 183.000000 186.000000 63.000000 0.372506 125.000000 -0.014480 161.000000 -0.134277 173.000000 -0.117710 12.000000 -0.464736 65.000000 0.386785 124.000000 -0.019449
296335.000000 0.884591 201.000000 200.000000 72.000000 0.345876 136.000000 -0.012724 137.000000 -0.012976 185.000000 -0.161189 14.000000 -0.497086 69.000000 0.381613 72.000000 0.345876
296535.000000 0.865175 200.000000 204.000000 70.000000 0.350518 133.000000 0.019780 134.000000 0.014513 188.000000 -0.121867 14.000000 -0.384857 67.000000 0.395926 70.000000 0.350518
297514.000000 0.941034 190.000000 187.000000 62.000000 0.370095 125.000000 0.001914 148.000000 -0.152256 174.000000 -0.107571 13.000000 -0.407854 64.000000 0.384546 124.000000 -0.007929
298636.000000 0.994297 196.000000 210.000000 71.000000 0.395020 138.000000 -0.008887 139.000000 -0.009937 194.000000 -0.154061 13.000000 -0.505701 72.000000 0.400052 139.000000 -0.009937
299060.000000 0.798323 214.000000 205.000000 70.000000 0.357382 134.000000 0.002711 175.000000 -0.132227 189.000000 -0.147947 15.000000 -0.333464 67.000000 0.382867 70.000000 0.357382
300764.000000 0.948917 199.000000 163.000000 73.000000 0.349449 133.000000 0.056143 134.000000 0.051238 141.000000 -0.038685 15.000000 -0.520080 74.000000 0.350123 122.000000 -0.060128
300927.000000 2.197367 163.000000 236.000000 132.000000 -0.062427 168.000000 0.134986 194.000000 -0.065592 222.000000 -0.086565 16.000000 -0.410737 92.000000 -0.032022 133.000000 -0.068054
301163.000000 1.006616 236.000000 197.000000 72.000000 0.362103 130.000000 -0.025971 131.000000 -0.031301 181.000000 -0.143196 14.000000 -0.486784 70.000000 0.368199 72.000000 0.362103
302658.000000 1.092193 184.000000 185.000000 65.000000 0.398839 122.000000 -0.032755 147.000000 -0.166771 171.000000 -0.107288 12.000000 -0.498889 63.000000 0.419341 66.000000 0.388402
302843.000000 1.091676 185.000000 201.000000 68.000000 0.408539 136.000000 -0.013307 157.000000 -0.175001 186.000000 -0.156066 13.000000 -0.513559 69.000000 0.408665 132.000000 -0.032900
303444.000000 0.954860 206.000000 203.000000 70.000000 0.394613 135.000000 -0.027553 163.000000 -0.141612 189.000000 -0.143430 13.000000 -0.545781 69.000000 0.404769 71.000000 0.374456
303647.000000 0.969406 203.000000 203.000000 107.000000 -0.112175 137.000000 -0.041298 171.000000 -0.128385 188.000000 -0.129371 13.000000 -0.579856 76.000000 0.380049 108.000000 -0.133821
303850.000000 1.116554 203.000000 182.000000 64.000000 0.421571 120.000000 -0.030909 147.000000 -0.149060 169.000000 -0.129954 13.000000 -0.401595 65.000000 0.431100 119.000000 -0.030956
304032.000000 1.077348 182.000000 187.000000 65.000000 0.384762 123.000000 -0.008966 157.000000 -0.157130 169.000000 -0.112194 13.000000 -0.426243 63.000000 0.395123 65.000000 0.384762
304987.000000 1.102115 207.000000 201.000000 66.000000 0.363302 132.000000 -0.031177 147.000000 -0.144120 186.000000 -0.153965 9.000000 -0.812008 67.000000 0.378443 131.000000 -0.040612
305188.000000 1.045673 201.000000 213.000000 72.000000 0.359933 142.000000 -0.024561 165.000000 -0.163120 194.000000 -0.174639 15.000000 -0.437950 71.000000 0.369667 73.000000 0.350121
305597.000000 0.930093 196.000000 204.000000 71.000000 0.363306 141.000000 -0.000799 163.000000 -0.140126 190.000000 -0.135519 13.000000 -0.551225 70.000000 0.383493 111.000000 -0.090784
307141.000000 0.948339 200.000000 194.000000 67.000000 0.389327 127.000000 0.006116 128.000000 0.000818 182.000000 -0.145691 13.000000 -0.446410 66.000000 0.394656 106.000000 -0.116800
307744.000000 0.936629 209.000000 217.000000 77.000000 0.353620 148.000000 -0.002711 187.000000 -0.175643 201.000000 -0.142242 14.000000 -0.538200 76.000000 0.358432 78.000000 0.343777
309286.000000 0.851864 196.000000 205.000000 118.000000 -0.098856 136.000000 0.007397 169.000000 -0.167369 186.000000 -0.160911 13.000000 -0.522086 70.000000 0.387223 104.000000 -0.078717
310108.000000 1.062680 201.000000 194.000000 68.000000 0.393965 130.000000 -0.037242 154.000000 -0.150897 181.000000 -0.171507 13.000000 -0.488826 70.000000 0.413621 130.000000 -0.037242
312973.000000 0.909294 175.000000 177.000000 62.000000 0.338337 120.000000 -0.018574 133.000000 -0.105017 159.000000 -0.161332 9.000000 -0.793856 66.000000 0.391753 119.000000 -0.033590
313509.000000 1.104638 181.000000 197.000000 70.000000 0.413070 129.000000 -0.068058 144.000000 -0.179218 181.000000 -0.181175 14.000000 -0.450661 69.000000 0.423274 71.000000 0.407772
313706.000000 1.108842 197.000000 206.000000 73.000000 0.375925 137.000000 -0.021348 164.000000 -0.172616 189.000000 -0.155298 15.000000 -0.431818 77.000000 0.404843 137.000000 -0.021348
316224.000000 1.022646 195.000000 203.000000 68.000000 0.366536 132.000000 -0.029040 148.000000 -0.144243 185.000000 -0.142929 14.000000 -0.491961 66.000000 0.391489 69.000000 0.361567
316635.000000 0.929107 208.000000 206.000000 69.000000 0.363197 140.000000 -0.026989 165.000000 -0.146427 187.000000 -0.150109 13.000000 -0.515862 75.000000 0.372211 141.000000 -0.042131
317024.000000 1.067900 183.000000 184.000000 62.000000 0.389073 123.000000 -0.007728 161.000000 -0.154813 171.000000 -0.123152 13.000000 -0.422479 63.000000 0.403823 123.000000 -0.007728
318577.000000 1.064261 212.000000 200.000000 71.000000 0.374168 136.000000 -0.034277 163.000000 -0.164639 185.000000 -0.129952 15.000000 -0.438544 71.000000 0.374168 133.000000 -0.048697
319309.000000 2.270640 146.000000 228.000000 121.000000 -0.107855 165.000000 0.069389 178.000000 0.015924 213.000000 -0.057335 22.000000 -0.749172 87.000000 -0.049941 121.000000 -0.107855
319729.000000 0.986912 192.000000 191.000000 104.000000 -0.114907 124.000000 -0.033559 150.000000 -0.206224 176.000000 -0.144295 14.000000 -0.414014 64.000000 0.418368 104.000000 -0.114907
320933.000000 1.071599 194.000000 198.000000 69.000000 0.379500 131.000000 -0.031032 158.000000 -0.177603 180.000000 -0.138525 13.000000 -0.435079 71.000000 0.394360 130.000000 -0.035985
321510.000000 0.889373 191.000000 183.000000 65.000000 0.369341 119.000000 -0.008573 120.000000 -0.023761 168.000000 -0.137133 12.000000 -0.460111 64.000000 0.374968 65.000000 0.369341
322467.000000 1.030111 205.000000 225.000000 123.000000 -0.116046 151.000000 -0.013052 167.000000 -0.121046 208.000000 -0.160533 13.000000 -0.561112 73.000000 0.388561 124.000000 -0.122582
325019.000000 1.027117 198.000000 200.000000 68.000000 0.378326 131.000000 -0.016802 165.000000 -0.125251 186.000000 -0.156710 13.000000 -0.468509 69.000000 0.418264 131.000000 -0.016802
326349.000000 1.014078 190.000000 196.000000 62.000000 0.382433 127.000000 -0.013307 166.000000 -0.134389 181.000000 -0.126771 12.000000 -0.475153 60.000000 0.402370 63.000000 0.377495
327156.000000 1.064283 203.000000 216.000000 74.000000 0.401006 140.000000 -0.050361 159.000000 -0.119873 198.000000 -0.179246 16.000000 -0.282723 74.000000 0.401006 139.000000 -0.069592
327372.000000 1.033983 216.000000 200.000000 70.000000 0.373885 135.000000 -0.015377 163.000000 -0.151910 188.000000 -0.147052 15.000000 -0.303307 68.000000 0.394167 71.000000 0.363666
327572.000000 0.917116 200.000000 193.000000 65.000000 0.383995 131.000000 0.000660 163.000000 -0.117584 179.000000 -0.128351 12.000000 -0.508919 66.000000 0.388854 130.000000 -0.009308
327765.000000 0.869813 193.000000 185.000000 62.000000 0.349636 125.000000 0.014217 150.000000 -0.138259 172.000000 -0.119356 13.000000 -0.462523 60.000000 0.370216 62.000000 0.349636
328520.000000 0.929716 200.000000 157.000000 83.000000 0.134547 136.000000 0.179154 117.000000 -0.126065 124.000000 -0.060877 13.000000 -0.662776 66.000000 0.354014 70.000000 0.342667
328930.000000 0.927918 253.000000 201.000000 69.000000 0.325308 132.000000 0.011315 172.000000 -0.120706 186.000000 -0.162853 13.000000 -0.474419 71.000000 0.329870 120.000000 -0.098970
329534.000000 1.056851 200.000000 197.000000 70.000000 0.381211 137.000000 -0.047853 170.000000 -0.155972 182.000000 -0.149201 14.000000 -0.466705 66.000000 0.401916 70.000000 0.381211
330303.000000 0.825674 190.000000 186.000000 60.000000 0.367805 124.000000 -0.015579 159.000000 -0.127852 170.000000 -0.114029 13.000000 -0.435503 64.000000 0.380861 123.000000 -0.035406
331066.000000 0.867414 198.000000 210.000000 113.000000 -0.078699 137.000000 -0.015299 138.000000 -0.031537 196.000000 -0.139266 13.000000 -0.518573 68.000000 0.393355 113.000000 -0.078699
331276.000000 0.834088 210.000000 218.000000 74.000000 0.348515 146.000000 -0.025875 174.000000 -0.146348 203.000000 -0.148982 14.000000 -0.500958 76.000000 0.369221 144.000000 -0.044181
332079.000000 1.029294 182.000000 187.000000 64.000000 0.414799 124.000000 0.024221 156.000000 -0.175139 172.000000 -0.123386 13.000000 -0.458008 64.000000 0.414799 123.000000 -0.000560
333205.000000 0.976584 200.000000 198.000000 74.000000 0.368809 132.000000 -0.007521 146.000000 -0.150030 180.000000 -0.123308 14.000000 -0.480939 73.000000 0.389044 74.000000 0.368809
333603.000000 0.958215 200.000000 197.000000 69.000000 0.373683 128.000000 -0.035987 130.000000 -0.035987 181.000000 -0.155547 14.000000 -0.449450 70.000000 0.388588 130.000000 -0.035987
337434.000000 0.899158 210.000000 205.000000 66.000000 0.373292 132.000000 -0.009468 133.000000 -0.010455 189.000000 -0.146864 14.000000 -0.445858 66.000000 0.373292 133.000000 -0.010455
337639.000000 1.047995 205.000000 208.000000 69.000000 0.363307 138.000000 -0.029280 139.000000 -0.044499 193.000000 -0.150939 14.000000 -0.516613 71.000000 0.383432 139.000000 -0.044499
339199.000000 0.999575 194.000000 187.000000 64.000000 0.374437 124.000000 -0.000220 125.000000 -0.000409 174.000000 -0.152054 13.000000 -0.406112 65.000000 0.379045 125.000000 -0.000409
339386.000000 0.882303 187.000000 203.000000 66.000000 0.351161 135.000000 0.001847 137.000000 -0.003780 190.000000 -0.145003 12.000000 -0.587916 63.000000 0.375973 67.000000 0.356193
341716.000000 0.931976 194.000000 203.000000 107.000000 -0.088352 137.000000 -0.023731 161.000000 -0.158278 185.000000 -0.097744 14.000000 -0.436879 72.000000 0.387415 108.000000 -0.079637
342330.000000 0.884327 200.000000 198.000000 65.000000 0.372494 130.000000 -0.026848 132.000000 -0.032444 181.000000 -0.156832 13.000000 -0.489841 64.000000 0.387525 65.000000 0.372494
343264.000000 0.846427 186.000000 188.000000 64.000000 0.383774 126.000000 0.002131 156.000000 -0.123117 170.000000 -0.128964 12.000000 -0.567979 66.000000 0.397818 124.000000 -0.007289
344022.000000 0.985157 191.000000 196.000000 72.000000 0.382681 130.000000 0.009892 161.000000 -0.120862 181.000000 -0.165862 14.000000 -0.414389 70.000000 0.398605 72.000000 0.382681
344218.000000 0.924906 196.000000 204.000000 70.000000 0.371252 137.000000 0.003714 168.000000 -0.122840 188.000000 -0.153765 14.000000 -0.483073 72.000000 0.396096 136.000000 -0.006052
345178.000000 1.068666 185.000000 177.000000 95.000000 -0.138606 120.000000 -0.046411 147.000000 -0.111928 157.000000 -0.152085 14.000000 -0.347887 60.000000 0.400078 101.000000 -0.137038
346093.000000 1.095390 195.000000 214.000000 71.000000 0.330922 141.000000 -0.028059 143.000000 -0.074799 200.000000 -0.144281 13.000000 -0.450017 63.000000 0.360546 71.000000 0.330922
350628.000000 1.047775 190.000000 200.000000 74.000000 0.409815 126.000000 -0.006958 141.000000 -0.110579 186.000000 -0.159874 15.000000 -0.353228 75.000000 0.454689 137.000000 -0.025501
351036.000000 0.917382 208.000000 200.000000 70.000000 0.323714 135.000000 0.142600 152.000000 -0.125629 185.000000 -0.201285 15.000000 -0.389326 67.000000 0.379436 70.000000 0.323714
351419.000000 1.080862 183.000000 179.000000 63.000000 0.341553 117.000000 -0.033979 118.000000 -0.034041 166.000000 -0.071800 13.000000 -0.469500 64.000000 0.350832 118.000000 -0.034041
353316.000000 0.967148 199.000000 187.000000 66.000000 0.330705 122.000000 0.020077 124.000000 -0.080597 171.000000 -0.186347 13.000000 -0.417162 63.000000 0.412163 70.000000 0.348620
353503.000000 0.887681 187.000000 189.000000 100.000000 -0.242773 134.000000 -0.011802 155.000000 -0.174717 171.000000 -0.046035 13.000000 -0.401990 65.000000 0.438074 100.000000 -0.242773
353692.000000 0.890218 189.000000 182.000000 64.000000 0.315938 119.000000 -0.014139 122.000000 -0.105111 168.000000 -0.094859 13.000000 -0.440643 66.000000 0.364340 104.000000 -0.130080
354797.000000 0.957808 191.000000 199.000000 146.000000 -0.113949 178.000000 0.689750 178.000000 0.689750 185.000000 1.341286 16.000000 -0.333258 75.000000 0.261333 129.000000 0.049029
355624.000000 0.897933 201.000000 184.000000 101.000000 -0.092522 124.000000 0.066239 150.000000 -0.135800 170.000000 -0.150126 13.000000 -0.450578 61.000000 0.423026 64.000000 0.310378
356350.000000 0.752885 180.000000 189.000000 61.000000 0.287902 122.000000 0.017478 137.000000 -0.057632 177.000000 -0.060266 15.000000 -0.318541 58.000000 0.367353 64.000000 0.306821
356937.000000 0.887729 205.000000 207.000000 68.000000 0.443949 138.000000 -0.021663 147.000000 -0.068919 188.000000 -0.161334 15.000000 -0.430752 68.000000 0.443949 147.000000 -0.068919
357349.000000 0.873779 205.000000 199.000000 67.000000 0.368199 123.000000 0.058259 130.000000 -0.189202 181.000000 -0.196802 18.000000 -0.157991 68.000000 0.388278 109.000000 -0.046394
357877.000000 1.489782 137.000000 244.000000 146.000000 -0.044982 182.000000 0.125033 183.000000 0.072823 229.000000 -0.020437 15.000000 0.083341 74.000000 0.042086 86.000000 0.007243
358858.000000 0.965314 187.000000 193.000000 68.000000 0.361519 125.000000 0.005028 131.000000 -0.006396 175.000000 -0.119656 14.000000 -0.461818 60.000000 0.410453 70.000000 0.310751
359871.000000 0.818542 205.000000 192.000000 67.000000 0.348808 132.000000 -0.006944 143.000000 -0.107273 177.000000 -0.151909 13.000000 -0.461520 72.000000 0.381535 131.000000 -0.011944
360242.000000 0.998857 179.000000 179.000000 61.000000 0.394546 121.000000 0.058325 152.000000 -0.127346 165.000000 -0.113474 13.000000 -0.363149 66.000000 0.396709 120.000000 0.053232
361615.000000 1.039357 208.000000 201.000000 62.000000 0.425581 128.000000 -0.003950 129.000000 -0.029201 186.000000 -0.145675 15.000000 -0.287789 62.000000 0.425581 129.000000 -0.029201
365038.000000 1.989215 174.000000 194.000000 136.000000 -0.095267 166.000000 0.031302 169.000000 -0.114183 177.000000 0.052007 20.000000 -0.634720 84.000000 -0.025660 95.000000 -0.108199
365425.000000 1.038198 193.000000 198.000000 104.000000 -0.091519 123.000000 0.006803 129.000000 -0.082195 183.000000 -0.117883 16.000000 -0.288385 67.000000 0.463103 104.000000 -0.091519
365843.000000 0.829560 220.000000 206.000000 115.000000 -0.169545 134.000000 -0.022383 135.000000 -0.028072 191.000000 -0.138402 16.000000 -0.320141 71.000000 0.471236 117.000000 -0.157679
366622.000000 0.970155 184.000000 146.000000 103.000000 -0.121049 125.000000 0.106427 119.000000 -0.025423 126.000000 0.121772 13.000000 -0.443670 64.000000 0.382759 107.000000 -0.069231
369885.000000 0.996959 206.000000 202.000000 114.000000 -0.112540 131.000000 0.011583 135.000000 -0.076144 185.000000 -0.095737 15.000000 -0.449451 66.000000 0.405767 69.000000 0.355626
370497.000000 0.927336 199.000000 198.000000 71.000000 0.353967 130.000000 0.074310 148.000000 -0.113448 181.000000 -0.147571 14.000000 -0.373745 59.000000 0.401898 61.000000 0.351443
372216.000000 0.801848 196.000000 190.000000 109.000000 -0.086272 169.000000 0.503367 142.000000 -0.028043 149.000000 -0.071397 13.000000 -0.447242 68.000000 0.321488 71.000000 0.291629
372622.000000 0.813734 216.000000 150.000000 26.000000 -0.117504 90.000000 0.104440 124.000000 -0.074698 126.000000 -0.094949 14.000000 -0.447222 75.000000 0.366102 79.000000 0.295585
373741.000000 1.089094 176.000000 189.000000 66.000000 0.397259 128.000000 -0.005203 145.000000 -0.138447 176.000000 -0.146080 13.000000 -0.371878 66.000000 0.397259 128.000000 -0.005203
377438.000000 0.897666 190.000000 190.000000 107.000000 -0.095361 127.000000 -0.016770 143.000000 -0.075596 175.000000 -0.139608 13.000000 -0.378982 61.000000 0.453636 66.000000 0.357225
380527.000000 0.989766 203.000000 203.000000 69.000000 0.332210 134.000000 -0.023920 137.000000 -0.040081 187.000000 -0.131977 17.000000 -0.171442 72.000000 0.390893 135.000000 -0.024375
384450.000000 0.833496 185.000000 202.000000 66.000000 0.401664 134.000000 0.014420 142.000000 -0.022210 181.000000 -0.118200 14.000000 -0.374341 67.000000 0.447071 120.000000 -0.122100
384851.000000 0.842505 199.000000 214.000000 68.000000 0.452210 142.000000 0.020423 157.000000 -0.017305 194.000000 -0.085958 14.000000 -0.371962 68.000000 0.452210 140.000000 -0.038229
386825.000000 0.940173 189.000000 198.000000 61.000000 0.345362 130.000000 -0.003038 173.000000 -0.117444 185.000000 -0.144325 15.000000 -0.287131 65.000000 0.395753 130.000000 -0.003038
387375.000000 2.289839 154.000000 274.000000 142.000000 -0.065835 187.000000 0.091691 194.000000 0.034216 254.000000 -0.099558 11.000000 0.479447 161.000000 0.033695 194.000000 0.034216
390923.000000 0.801082 187.000000 196.000000 103.000000 -0.092448 130.000000 0.059260 146.000000 -0.018983 177.000000 -0.126161 15.000000 -0.332067 63.000000 0.388981 72.000000 0.354059
395259.000000 0.883370 187.000000 198.000000 99.000000 -0.079780 132.000000 -0.016989 144.000000 -0.052883 179.000000 -0.152554 16.000000 -0.245047 66.000000 0.395126 100.000000 -0.086019
396675.000000 0.973320 205.000000 189.000000 58.000000 0.386283 127.000000 -0.018118 162.000000 -0.158557 175.000000 -0.101566 14.000000 -0.490080 58.000000 0.386283 127.000000 -0.018118
397409.000000 0.848561 183.000000 195.000000 62.000000 0.412164 122.000000 -0.012586 136.000000 -0.044420 176.000000 -0.131317 12.000000 -0.412113 63.000000 0.432336 121.000000 -0.042116
398424.000000 0.937085 214.000000 202.000000 70.000000 0.420591 137.000000 0.016067 168.000000 -0.127867 189.000000 -0.113793 14.000000 -0.464971 70.000000 0.420591 136.000000 0.006349
399587.000000 0.938636 193.000000 171.000000 64.000000 0.386536 130.000000 -0.013039 144.000000 -0.103573 150.000000 -0.128807 13.000000 -0.451208 64.000000 0.386536 131.000000 -0.048038
399758.000000 1.247320 171.000000 228.000000 83.000000 0.147835 163.000000 0.045691 187.000000 -0.068603 210.000000 -0.103854 16.000000 -0.474123 85.000000 0.178243 164.000000 0.023732
400186.000000 0.756331 200.000000 208.000000 71.000000 0.383676 142.000000 -0.021411 173.000000 -0.138859 190.000000 -0.140317 13.000000 -0.473182 71.000000 0.383676 141.000000 -0.040894
400604.000000 0.953700 210.000000 200.000000 70.000000 0.342590 133.000000 -0.026237 158.000000 -0.173401 184.000000 -0.157588 14.000000 -0.399150 67.000000 0.373295 70.000000 0.342590
402789.000000 0.744844 216.000000 212.000000 73.000000 0.366502 144.000000 0.004641 145.000000 -0.000594 198.000000 -0.211975 14.000000 -0.473337 72.000000 0.371439 75.000000 0.336392
403377.000000 0.982213 376.000000 188.000000 66.000000 0.328734 125.000000 0.018229 156.000000 -0.092270 174.000000 -0.102867 15.000000 -0.224401 66.000000 0.328734 125.000000 0.018229
404742.000000 0.889764 209.000000 200.000000 69.000000 0.406930 134.000000 -0.037177 165.000000 -0.141753 180.000000 -0.153837 17.000000 -0.188368 69.000000 0.406930 132.000000 -0.056456
406463.000000 0.806788 197.000000 192.000000 67.000000 0.300880 129.000000 -0.042334 143.000000 -0.089326 178.000000 -0.132133 13.000000 -0.471222 64.000000 0.331131 68.000000 0.285738
406655.000000 0.916002 192.000000 209.000000 73.000000 0.348539 137.000000 -0.018497 153.000000 -0.106647 192.000000 -0.123041 14.000000 -0.438748 75.000000 0.362912 137.000000 -0.018497
410929.000000 1.269124 171.000000 239.000000 149.000000 -0.058071 166.000000 0.054564 194.000000 -0.126392 222.000000 -0.109966 18.000000 -0.505846 82.000000 0.193807 89.000000 0.170453
411587.000000 0.934920 203.000000 202.000000 106.000000 -0.067275 136.000000 -0.005172 167.000000 -0.114343 187.000000 -0.137385 14.000000 -0.520849 71.000000 0.383525 73.000000 0.358119
413118.000000 0.864686 207.000000 199.000000 66.000000 0.344233 133.000000 -0.022929 163.000000 -0.140926 178.000000 -0.109562 15.000000 -0.354969 69.000000 0.393355 131.000000 -0.062114
415829.000000 0.764922 206.000000 207.000000 73.000000 0.357285 137.000000 -0.056508 139.000000 -0.067166 191.000000 -0.141334 18.000000 -0.220974 70.000000 0.382818 74.000000 0.347066
416951.000000 0.884548 188.000000 202.000000 64.000000 0.428310 130.000000 -0.013072 132.000000 -0.013371 187.000000 -0.123057 14.000000 -0.377379 64.000000 0.428310 131.000000 -0.018214
417153.000000 0.898009 202.000000 199.000000 118.000000 -0.110391 138.000000 -0.008431 165.000000 -0.197381 179.000000 -0.136833 15.000000 -0.305580 71.000000 0.374342 118.000000 -0.110391
417557.000000 0.970059 205.000000 197.000000 73.000000 0.421474 130.000000 0.021174 133.000000 -0.104735 182.000000 -0.181663 15.000000 -0.429076 73.000000 0.421474 133.000000 -0.104735
417754.000000 0.953730 197.000000 203.000000 118.000000 -0.083885 137.000000 0.023480 138.000000 0.008166 187.000000 -0.175488 13.000000 -0.415924 59.000000 0.436759 62.000000 0.327229
419470.000000 0.899436 190.000000 192.000000 63.000000 0.396850 125.000000 -0.033276 129.000000 -0.084248 176.000000 -0.220767 14.000000 -0.407839 65.000000 0.416756 129.000000 -0.084248
420298.000000 0.813056 212.000000 196.000000 67.000000 0.357588 131.000000 -0.021051 147.000000 -0.108557 179.000000 -0.103480 13.000000 -0.450111 65.000000 0.368356 67.000000 0.357588
422970.000000 0.948843 183.000000 187.000000 104.000000 -0.069326 124.000000 0.015579 147.000000 -0.107053 169.000000 -0.135643 12.000000 -0.532190 66.000000 0.405332 106.000000 -0.085001
423340.000000 0.812978 183.000000 194.000000 65.000000 0.381256 131.000000 0.050456 164.000000 -0.177491 180.000000 -0.117116 12.000000 -0.439435 65.000000 0.381256 127.000000 -0.053054
423534.000000 0.789169 194.000000 188.000000 63.000000 0.348542 124.000000 0.029639 136.000000 -0.062022 166.000000 -0.087415 13.000000 -0.348557 69.000000 0.394999 122.000000 -0.065315
425852.000000 0.813307 198.000000 210.000000 69.000000 0.329561 138.000000 -0.011004 142.000000 -0.064390 194.000000 -0.096568 15.000000 -0.360564 67.000000 0.378887 110.000000 -0.047821
426694.000000 0.832193 205.000000 200.000000 62.000000 0.324843 131.000000 0.029971 161.000000 -0.103775 185.000000 -0.113901 13.000000 -0.418136 59.000000 0.384890 62.000000 0.324843
427828.000000 0.857116 193.000000 204.000000 70.000000 0.375875 136.000000 0.003430 137.000000 0.003117 190.000000 -0.135126 14.000000 -0.379702 71.000000 0.385750 137.000000 0.003117
428631.000000 0.939121 194.000000 205.000000 104.000000 -0.066124 138.000000 -0.006175 168.000000 -0.110112 190.000000 -0.228294 14.000000 -0.452021 72.000000 0.388345 107.000000 -0.074996
428984.000000 2.527118 148.000000 255.000000 165.000000 0.028885 193.000000 0.114637 231.000000 -0.054735 236.000000 -0.058215 15.000000 -0.663790 152.000000 -0.043197 167.000000 0.027333
430514.000000 1.995342 154.000000 252.000000 143.000000 -0.114938 181.000000 0.078590 208.000000 0.029924 236.000000 -0.067224 27.000000 -0.649861 146.000000 -0.042258 181.000000 0.078590
430967.000000 0.961238 201.000000 191.000000 67.000000 0.367629 125.000000 -0.018764 132.000000 -0.133951 172.000000 -0.139497 16.000000 -0.159045 65.000000 0.408084 68.000000 0.337394
432275.000000 1.052967 187.000000 202.000000 68.000000 0.377932 137.000000 0.020690 162.000000 -0.140578 187.000000 -0.128806 14.000000 -0.488039 66.000000 0.393260 68.000000 0.377932
433459.000000 0.975911 189.000000 190.000000 71.000000 0.346223 129.000000 -0.017225 131.000000 -0.027507 175.000000 -0.152508 17.000000 -0.121582 63.000000 0.379375 71.000000 0.346223
433649.000000 0.918668 190.000000 190.000000 65.000000 0.398104 125.000000 -0.011615 142.000000 -0.092948 178.000000 -0.110284 12.000000 -0.441959 65.000000 0.398104 125.000000 -0.011615
434394.000000 0.983056 185.000000 192.000000 64.000000 0.365287 128.000000 -0.018291 139.000000 -0.123525 177.000000 -0.148995 14.000000 -0.279560 70.000000 0.394080 125.000000 -0.037773
435005.000000 0.848151 215.000000 210.000000 77.000000 0.364532 138.000000 -0.042992 141.000000 -0.054591 194.000000 -0.187462 9.000000 -0.756786 71.000000 0.374705 77.000000 0.364532
437172.000000 0.867303 208.000000 209.000000 113.000000 -0.097888 142.000000 -0.008465 158.000000 -0.108056 193.000000 -0.158150 15.000000 -0.416991 70.000000 0.383023 72.000000 0.362803
437582.000000 0.786460 201.000000 200.000000 70.000000 0.343039 135.000000 -0.005124 163.000000 -0.131940 186.000000 -0.161108 13.000000 -0.457538 68.000000 0.358290 70.000000 0.343039
438936.000000 0.723495 200.000000 208.000000 124.000000 -0.107538 143.000000 0.004548 160.000000 -0.106629 192.000000 -0.161410 13.000000 -0.531676 70.000000 0.350457 73.000000 0.329768
439144.000000 0.806035 208.000000 151.000000 65.000000 0.309545 130.000000 0.127540 117.000000 -0.094247 124.000000 -0.038197 13.000000 -0.513260 67.000000 0.330689 148.000000 2.069392
439560.000000 0.985676 265.000000 213.000000 73.000000 0.279784 142.000000 0.008623 172.000000 -0.107835 197.000000 -0.116504 13.000000 -0.521078 71.000000 0.299862 73.000000 0.279784
440909.000000 0.928041 199.000000 201.000000 105.000000 -0.114717 132.000000 -0.000299 134.000000 -0.031693 186.000000 -0.116282 14.000000 -0.471176 65.000000 0.381787 66.000000 0.371709
441325.000000 0.829405 215.000000 212.000000 81.000000 0.390852 147.000000 -0.028622 166.000000 -0.116270 197.000000 -0.137775 17.000000 -0.523634 81.000000 0.390852 147.000000 -0.028622
442305.000000 0.942571 182.000000 188.000000 64.000000 0.384494 128.000000 -0.022509 130.000000 -0.042916 174.000000 -0.129935 13.000000 -0.379750 62.000000 0.395137 65.000000 0.374134
443896.000000 0.859698 222.000000 210.000000 74.000000 0.296722 143.000000 -0.025831 158.000000 -0.111190 190.000000 -0.152397 15.000000 -0.467763 79.000000 0.297851 142.000000 -0.045644
445656.000000 0.879138 213.000000 218.000000 125.000000 -0.105721 154.000000 -0.024968 167.000000 -0.069122 202.000000 -0.135267 15.000000 -0.487869 76.000000 0.372679 125.000000 -0.105721
446088.000000 0.905314 214.000000 201.000000 68.000000 0.334660 136.000000 -0.002693 152.000000 -0.121001 186.000000 -0.130139 13.000000 -0.481362 70.000000 0.364691 136.000000 -0.002693
448049.000000 0.816255 206.000000 209.000000 64.000000 0.341839 137.000000 0.012194 163.000000 -0.136677 195.000000 -0.153481 13.000000 -0.421863 67.000000 0.373265 137.000000 0.012194
449033.000000 0.805640 188.000000 185.000000 62.000000 0.336046 125.000000 0.004358 158.000000 -0.141877 170.000000 -0.128319 12.000000 -0.511023 65.000000 0.369416 125.000000 0.004358
449561.000000 2.156881 148.000000 267.000000 168.000000 0.013107 193.000000 0.067133 223.000000 -0.094199 252.000000 -0.053478 11.000000 0.159733 156.000000 -0.034715 172.000000 -0.002880
450252.000000 0.825078 218.000000 200.000000 68.000000 0.359172 136.000000 0.012510 170.000000 -0.178324 185.000000 -0.137993 14.000000 -0.501349 65.000000 0.374768 69.000000 0.373952
450452.000000 0.803040 200.000000 200.000000 71.000000 0.396254 135.000000 -0.003479 136.000000 -0.003667 185.000000 -0.132807 14.000000 -0.468073 69.000000 0.416864 71.000000 0.396254
451770.000000 0.910878 186.000000 196.000000 63.000000 0.378246 125.000000 -0.030500 129.000000 -0.035453 177.000000 -0.137115 14.000000 -0.402209 65.000000 0.388434 129.000000 -0.035453
452346.000000 0.894984 192.000000 136.000000 26.000000 -0.156097 82.000000 0.152870 99.000000 -0.116393 110.000000 -0.129574 14.000000 -0.498777 70.000000 0.353607 134.000000 1.735068
452482.000000 1.920021 136.000000 279.000000 170.000000 -0.017930 210.000000 0.025298 226.000000 -0.083669 264.000000 -0.050096 19.000000 -0.506248 73.000000 0.033486 82.000000 0.009084
454259.000000 1.065613 200.000000 207.000000 68.000000 0.368948 137.000000 -0.045720 164.000000 -0.160280 193.000000 -0.145765 14.000000 -0.386959 67.000000 0.378948 106.000000 -0.110582
454668.000000 1.023666 202.000000 204.000000 69.000000 0.362575 137.000000 -0.010673 155.000000 -0.148367 190.000000 -0.139260 13.000000 -0.491018 65.000000 0.387920 69.000000 0.362575
455251.000000 0.925220 186.000000 187.000000 63.000000 0.374371 124.000000 -0.013213 158.000000 -0.164137 173.000000 -0.121051 12.000000 -0.456678 64.000000 0.383979 123.000000 -0.028150
455815.000000 0.982317 188.000000 198.000000 104.000000 -0.133605 130.000000 -0.020783 170.000000 -0.153338 185.000000 -0.142068 13.000000 -0.462229 64.000000 0.390219 110.000000 -0.141707
456205.000000 0.853031 192.000000 204.000000 68.000000 0.347915 136.000000 -0.004265 163.000000 -0.137632 191.000000 -0.114795 13.000000 -0.411344 70.000000 0.367664 136.000000 -0.004265
456409.000000 0.843827 204.000000 203.000000 106.000000 -0.072722 131.000000 0.005738 148.000000 -0.069091 188.000000 -0.146268 12.000000 -0.506218 64.000000 0.366210 66.000000 0.336054
456612.000000 0.979297 203.000000 201.000000 70.000000 0.360612 137.000000 -0.035251 152.000000 -0.129498 186.000000 -0.105422 13.000000 -0.472413 71.000000 0.365628 139.000000 -0.055329
456813.000000 0.980362 201.000000 203.000000 65.000000 0.358821 133.000000 -0.014718 186.000000 -0.144043 187.000000 -0.148870 14.000000 -0.326818 68.000000 0.379056 132.000000 -0.029404
458571.000000 0.834685 215.000000 211.000000 116.000000 -0.093747 141.000000 -0.013525 156.000000 -0.096015 192.000000 -0.195812 14.000000 -0.428951 74.000000 0.364763 122.000000 -0.098495
461516.000000 0.890957 197.000000 184.000000 66.000000 0.364139 123.000000 -0.008180 148.000000 -0.159575 168.000000 -0.161613 13.000000 -0.458400 54.000000 0.401490 68.000000 0.372619
461879.000000 0.908146 179.000000 177.000000 63.000000 0.357411 120.000000 -0.000783 145.000000 -0.142475 165.000000 -0.132665 13.000000 -0.414284 60.000000 0.374480 63.000000 0.357411
462056.000000 0.890361 177.000000 181.000000 58.000000 0.388337 117.000000 -0.002023 118.000000 -0.022289 164.000000 -0.123197 12.000000 -0.383841 58.000000 0.388337 118.000000 -0.022289
463419.000000 0.903574 214.000000 194.000000 68.000000 0.391507 130.000000 -0.025265 140.000000 -0.120861 175.000000 -0.149340 16.000000 -0.186645 68.000000 0.391507 131.000000 -0.035421
464162.000000 1.064592 182.000000 189.000000 62.000000 0.375252 124.000000 -0.045202 127.000000 -0.055938 173.000000 -0.139905 14.000000 -0.355268 64.000000 0.405206 127.000000 -0.055938
464749.000000 0.870781 194.000000 212.000000 67.000000 0.339511 143.000000 -0.020643 159.000000 -0.115392 193.000000 -0.141255 13.000000 -0.510645 71.000000 0.380845 141.000000 -0.035346
465362.000000 1.009057 205.000000 206.000000 67.000000 0.366754 136.000000 -0.008857 164.000000 -0.154641 188.000000 -0.154015 13.000000 -0.448905 65.000000 0.391722 67.000000 0.366754
465568.000000 0.982991 206.000000 200.000000 71.000000 0.344423 139.000000 -0.042742 168.000000 -0.150488 186.000000 -0.163608 16.000000 -0.226270 74.000000 0.383890 137.000000 -0.062648
466726.000000 1.019076 193.000000 193.000000 105.000000 -0.103897 128.000000 -0.033586 153.000000 -0.175171 178.000000 -0.148684 13.000000 -0.435905 68.000000 0.376997 105.000000 -0.103897
467760.000000 0.850093 206.000000 204.000000 71.000000 0.358996 138.000000 -0.007006 163.000000 -0.102823 188.000000 -0.139765 13.000000 -0.479280 70.000000 0.364200 112.000000 -0.120156
468895.000000 0.756788 193.000000 197.000000 108.000000 -0.091302 131.000000 0.011709 132.000000 0.001428 181.000000 -0.138700 12.000000 -0.471176 60.000000 0.373557 65.000000 0.367836
470868.000000 0.986226 186.000000 183.000000 96.000000 -0.094918 121.000000 -0.003540 122.000000 -0.008744 166.000000 -0.130582 14.000000 -0.370607 67.000000 0.356527 96.000000 -0.094918
471633.000000 0.882386 202.000000 192.000000 62.000000 0.386897 124.000000 -0.022491 128.000000 -0.063103 174.000000 -0.141612 13.000000 -0.479918 63.000000 0.396834 128.000000 -0.063103
472581.000000 1.195579 173.000000 179.000000 63.000000 0.389024 119.000000 -0.050629 147.000000 -0.187634 167.000000 -0.144186 14.000000 -0.292321 62.000000 0.389322 64.000000 0.388632
472760.000000 1.206127 179.000000 175.000000 58.000000 0.395360 117.000000 -0.048524 151.000000 -0.163901 160.000000 -0.130735 12.000000 -0.413418 58.000000 0.395360 103.000000 -0.145453
474329.000000 1.018399 199.000000 195.000000 65.000000 0.365924 128.000000 -0.046094 158.000000 -0.134309 180.000000 -0.140405 13.000000 -0.421099 67.000000 0.405752 130.000000 -0.056533
474896.000000 0.966675 187.000000 184.000000 107.000000 -0.116253 123.000000 -0.030235 148.000000 -0.153450 170.000000 -0.140301 15.000000 -0.226396 64.000000 0.407586 107.000000 -0.116253
475858.000000 0.945344 195.000000 200.000000 67.000000 0.351801 133.000000 -0.012382 146.000000 -0.098824 184.000000 -0.129123 16.000000 -0.241803 68.000000 0.366739 132.000000 -0.022068
476266.000000 0.927760 208.000000 215.000000 76.000000 0.357307 145.000000 -0.029150 160.000000 -0.095655 198.000000 -0.171565 16.000000 -0.348086 75.000000 0.382214 76.000000 0.357307
478019.000000 0.791377 207.000000 221.000000 77.000000 0.313796 146.000000 0.010814 175.000000 -0.129516 207.000000 -0.145362 13.000000 -0.474671 73.000000 0.370536 113.000000 -0.091783
479215.000000 0.825987 190.000000 194.000000 67.000000 0.369864 131.000000 0.012995 162.000000 -0.105125 181.000000 -0.133981 13.000000 -0.423587 66.000000 0.400177 68.000000 0.374504
481351.000000 1.019814 175.000000 178.000000 64.000000 0.380033 113.000000 -0.030203 121.000000 -0.071332 164.000000 -0.165093 13.000000 -0.378445 59.000000 0.410566 65.000000 0.389562
482708.000000 1.035991 391.000000 216.000000 113.000000 -0.088388 141.000000 -0.036896 160.000000 -0.092163 200.000000 -0.148542 15.000000 -0.308822 78.000000 0.424153 116.000000 -0.072009
483482.000000 1.044999 181.000000 181.000000 64.000000 0.369636 120.000000 -0.023260 152.000000 -0.161458 168.000000 -0.138687 13.000000 -0.390348 64.000000 0.369636 117.000000 -0.068653
483844.000000 0.983917 181.000000 194.000000 67.000000 0.389355 134.000000 -0.039233 146.000000 -0.105721 179.000000 -0.161520 14.000000 -0.342916 66.000000 0.394591 68.000000 0.394089
484658.000000 0.985894 206.000000 207.000000 77.000000 0.355223 142.000000 -0.036492 165.000000 -0.139613 189.000000 -0.174581 14.000000 -0.421486 77.000000 0.355223 142.000000 -0.036492
485264.000000 0.950658 247.000000 195.000000 69.000000 0.280893 130.000000 0.017037 156.000000 -0.116317 178.000000 -0.103949 13.000000 -0.421207 71.000000 0.300000 130.000000 0.017037
486405.000000 0.843024 196.000000 207.000000 113.000000 -0.098154 136.000000 -0.025393 137.000000 -0.030768 192.000000 -0.136067 13.000000 -0.464078 70.000000 0.354213 74.000000 0.323634
486813.000000 0.914107 201.000000 213.000000 120.000000 -0.135859 143.000000 -0.028823 157.000000 -0.125627 198.000000 -0.151349 15.000000 -0.470077 76.000000 0.356039 120.000000 -0.135859
487239.000000 0.888744 213.000000 202.000000 73.000000 0.344170 140.000000 -0.009641 172.000000 -0.126114 186.000000 -0.154327 14.000000 -0.489296 75.000000 0.358872 140.000000 -0.009641
487812.000000 0.950093 182.000000 179.000000 61.000000 0.353326 118.000000 -0.010659 132.000000 -0.089687 168.000000 -0.112901 15.000000 -0.210782 60.000000 0.353405 61.000000 0.353326
487991.000000 0.921537 179.000000 190.000000 63.000000 0.341728 123.000000 -0.010001 149.000000 -0.151773 176.000000 -0.129296 9.000000 -0.786032 61.000000 0.356571 102.000000 -0.106410
488796.000000 0.789638 211.000000 203.000000 70.000000 0.331879 138.000000 -0.015676 167.000000 -0.132165 197.000000 0.144011 15.000000 -0.346758 73.000000 0.361753 145.000000 -0.061381
489204.000000 0.970754 205.000000 197.000000 66.000000 0.389771 128.000000 -0.041850 131.000000 -0.053308 182.000000 -0.133311 13.000000 -0.410968 66.000000 0.389771 130.000000 -0.047916
491740.000000 0.989219 195.000000 183.000000 65.000000 0.351913 123.000000 -0.013025 124.000000 -0.018182 168.000000 -0.155971 12.000000 -0.542756 62.000000 0.368716 65.000000 0.351913
493059.000000 0.873543 206.000000 209.000000 70.000000 0.388213 142.000000 -0.006442 178.000000 -0.132634 197.000000 -0.177979 14.000000 -0.449169 70.000000 0.388213 142.000000 -0.006442
495598.000000 0.764452 197.000000 210.000000 71.000000 0.339659 141.000000 -0.002509 161.000000 -0.139295 196.000000 -0.137743 13.000000 -0.490767 69.000000 0.349361 72.000000 0.314691
496010.000000 0.945690 202.000000 192.000000 68.000000 0.355051 130.000000 -0.017383 155.000000 -0.136318 179.000000 -0.085864 11.000000 -0.625627 65.000000 0.366399 68.000000 0.355051
497347.000000 0.948199 202.000000 209.000000 70.000000 0.371972 132.000000 -0.024889 136.000000 -0.029467 193.000000 -0.136236 13.000000 -0.455518 72.000000 0.392003 136.000000 -0.029467
498163.000000 0.914751 193.000000 191.000000 66.000000 0.376710 126.000000 -0.023434 128.000000 -0.033591 177.000000 -0.140708 13.000000 -0.440829 66.000000 0.376710 127.000000 -0.033529
499289.000000 0.943496 186.000000 195.000000 68.000000 0.395723 129.000000 -0.028163 133.000000 -0.068194 182.000000 -0.130956 13.000000 -0.454623 68.000000 0.395723 133.000000 -0.068194
499874.000000 0.874029 199.000000 210.000000 126.000000 -0.082776 143.000000 -0.023574 181.000000 -0.157351 195.000000 -0.173934 13.000000 -0.487744 65.000000 0.390640 70.000000 0.357538
500084.000000 0.832338 210.000000 210.000000 75.000000 0.368258 143.000000 -0.012070 161.000000 -0.136896 194.000000 -0.151770 14.000000 -0.481238 73.000000 0.388477 75.000000 0.368258
501208.000000 0.861867 190.000000 187.000000 65.000000 0.390693 124.000000 -0.019546 156.000000 -0.170078 170.000000 -0.133276 14.000000 -0.426643 63.000000 0.396868 66.000000 0.380034
501591.000000 1.055300 196.000000 200.000000 69.000000 0.384566 131.000000 -0.018603 163.000000 -0.157397 184.000000 -0.132069 13.000000 -0.523868 71.000000 0.394535 129.000000 -0.047381
502983.000000 1.031883 184.000000 190.000000 63.000000 0.393828 124.000000 -0.032679 149.000000 -0.197977 176.000000 -0.164340 8.000000 -0.754056 64.000000 0.408798 124.000000 -0.032679
503560.000000 0.884750 196.000000 193.000000 66.000000 0.370705 130.000000 0.011004 166.000000 -0.125282 176.000000 -0.141239 16.000000 -0.246709 64.000000 0.381285 99.000000 -0.087931
506097.000000 0.997228 215.000000 213.000000 75.000000 0.341364 143.000000 -0.004498 161.000000 -0.128054 196.000000 -0.151675 13.000000 -0.489058 77.000000 0.362007 143.000000 -0.004498
507855.000000 0.858683 194.000000 207.000000 59.000000 0.313165 138.000000 -0.004031 142.000000 -0.019469 192.000000 -0.118878 14.000000 -0.396740 71.000000 0.380236 142.000000 -0.019469
508862.000000 0.972727 199.000000 198.000000 72.000000 0.356663 132.000000 -0.026144 137.000000 -0.062726 184.000000 -0.156832 13.000000 -0.463135 66.000000 0.373714 102.000000 -0.082476
512146.000000 0.913057 194.000000 192.000000 65.000000 0.396188 125.000000 -0.022148 169.000000 -0.159668 179.000000 -0.131972 13.000000 -0.402760 64.000000 0.406236 97.000000 -0.086776
513118.000000 1.000314 189.000000 190.000000 67.000000 0.352037 129.000000 -0.020250 155.000000 -0.158839 176.000000 -0.159686 13.000000 -0.460062 70.000000 0.405344 128.000000 -0.035140
513489.000000 0.976755 181.000000 186.000000 65.000000 0.395752 125.000000 -0.010690 126.000000 -0.020863 172.000000 -0.143654 12.000000 -0.530454 66.000000 0.400313 126.000000 -0.020863
514228.000000 1.091111 185.000000 187.000000 66.000000 0.387756 124.000000 -0.038984 126.000000 -0.054110 175.000000 -0.145251 17.000000 -0.186084 64.000000 0.403477 66.000000 0.387756
514415.000000 1.065439 187.000000 190.000000 64.000000 0.407932 124.000000 -0.046911 153.000000 -0.175017 175.000000 -0.165441 13.000000 -0.454923 63.000000 0.412948 65.000000 0.387823
514605.000000 1.006267 190.000000 202.000000 68.000000 0.369354 133.000000 -0.034310 167.000000 -0.120486 186.000000 -0.129719 14.000000 -0.426272 67.000000 0.389448 68.000000 0.369354
516759.000000 0.943134 199.000000 161.000000 113.000000 -0.116505 140.000000 0.092589 131.000000 -0.068854 138.000000 0.057354 13.000000 -0.561536 72.000000 0.321957 113.000000 -0.116505
517173.000000 0.907524 253.000000 206.000000 67.000000 0.250107 138.000000 0.002979 139.000000 -0.007302 193.000000 -0.130375 13.000000 -0.436161 65.000000 0.275656 69.000000 0.249481
517952.000000 0.951631 189.000000 187.000000 67.000000 0.382113 126.000000 -0.018621 128.000000 -0.043982 175.000000 -0.087978 13.000000 -0.448434 66.000000 0.387724 68.000000 0.376439
518139.000000 0.786911 187.000000 186.000000 62.000000 0.376362 124.000000 -0.008512 155.000000 -0.160707 171.000000 -0.117821 13.000000 -0.369311 66.000000 0.411488 123.000000 -0.013480
518325.000000 0.774780 186.000000 195.000000 68.000000 0.354717 132.000000 -0.012584 134.000000 -0.037725 177.000000 -0.149908 13.000000 -0.459501 66.000000 0.370799 68.000000 0.354717
520804.000000 0.979690 198.000000 207.000000 71.000000 0.457396 136.000000 -0.034247 165.000000 -0.150580 196.000000 -0.165676 13.000000 -0.460922 70.000000 0.457788 72.000000 0.446957
521429.000000 0.988918 219.000000 204.000000 74.000000 0.365568 140.000000 -0.023041 153.000000 -0.108638 188.000000 -0.166364 15.000000 -0.477758 75.000000 0.385646 139.000000 -0.027837
522975.000000 0.696100 193.000000 155.000000 63.000000 0.274658 134.000000 0.236113 115.000000 -0.097445 122.000000 -0.057821 13.000000 -0.560374 65.000000 0.316319 153.000000 2.294623
523576.000000 0.899672 201.000000 214.000000 70.000000 0.364886 142.000000 -0.028748 168.000000 -0.153103 198.000000 -0.145393 13.000000 -0.483746 70.000000 0.364886 139.000000 -0.035974
525766.000000 0.803995 228.000000 211.000000 76.000000 0.354753 142.000000 -0.033636 172.000000 -0.130581 195.000000 -0.169688 13.000000 -0.539249 77.000000 0.364846 142.000000 -0.033636
527679.000000 0.941459 195.000000 196.000000 62.000000 0.337934 125.000000 0.013327 169.000000 -0.137895 181.000000 -0.123366 13.000000 -0.446737 66.000000 0.382965 125.000000 0.013327
528075.000000 0.903371 200.000000 193.000000 64.000000 0.366349 125.000000 -0.015253 150.000000 -0.152290 178.000000 -0.145502 14.000000 -0.426425 65.000000 0.396177 125.000000 -0.015253
531486.000000 1.026722 187.000000 199.000000 101.000000 -0.100408 134.000000 -0.079453 171.000000 -0.140847 184.000000 -0.179624 14.000000 -0.353968 69.000000 0.439215 103.000000 -0.102587
532672.000000 0.913072 202.000000 197.000000 72.000000 0.350314 130.000000 0.052728 144.000000 -0.148965 181.000000 -0.216003 14.000000 -0.430438 69.000000 0.406301 72.000000 0.350314
534363.000000 1.021771 198.000000 212.000000 107.000000 -0.056253 139.000000 0.021864 163.000000 -0.127163 197.000000 -0.142963 15.000000 -0.377492 72.000000 0.467054 113.000000 -0.103652
535701.000000 0.902790 191.000000 187.000000 68.000000 0.373435 120.000000 -0.014702 125.000000 -0.060831 170.000000 -0.135597 14.000000 -0.430955 60.000000 0.430942 69.000000 0.387949
537425.000000 1.073637 180.000000 180.000000 63.000000 0.399687 124.000000 -0.016220 141.000000 -0.106956 168.000000 -0.145891 14.000000 -0.382380 59.000000 0.400236 63.000000 0.399687
537605.000000 0.934187 180.000000 180.000000 60.000000 0.387399 117.000000 -0.008637 145.000000 -0.145156 162.000000 -0.205658 12.000000 -0.467239 61.000000 0.397572 118.000000 -0.018621
537785.000000 0.895093 180.000000 189.000000 68.000000 0.359840 126.000000 0.052286 144.000000 -0.137227 175.000000 -0.157697 13.000000 -0.488952 70.000000 0.418508 127.000000 0.042098
538356.000000 0.971867 196.000000 210.000000 70.000000 0.387932 136.000000 0.006990 162.000000 -0.107963 197.000000 -0.149387 14.000000 -0.328353 69.000000 0.397823 71.000000 0.357885
538566.000000 0.995032 210.000000 212.000000 78.000000 0.316332 141.000000 -0.041897 144.000000 -0.073182 194.000000 -0.119045 13.000000 -0.555643 75.000000 0.381505 79.000000 0.321207
538988.000000 0.857836 210.000000 198.000000 71.000000 0.331348 133.000000 0.012177 148.000000 -0.110395 182.000000 -0.155272 10.000000 -0.742259 77.000000 0.394280 134.000000 -0.008089
539518.000000 2.278985 146.000000 222.000000 132.000000 -0.085644 161.000000 0.094637 162.000000 0.076581 207.000000 -0.030879 16.000000 -0.689402 89.000000 -0.050345 107.000000 -0.090048
540303.000000 0.914643 194.000000 203.000000 109.000000 -0.119809 137.000000 -0.030156 163.000000 -0.161850 187.000000 -0.149971 14.000000 -0.484416 72.000000 0.368076 109.000000 -0.119809
542234.000000 0.829920 180.000000 189.000000 67.000000 0.361820 127.000000 -0.007745 148.000000 -0.164500 175.000000 -0.115768 13.000000 -0.432649 67.000000 0.361820 128.000000 -0.012886
543431.000000 0.918997 212.000000 192.000000 66.000000 0.366054 129.000000 -0.008855 130.000000 -0.014044 179.000000 -0.144014 14.000000 -0.438212 64.000000 0.381742 67.000000 0.365693
546471.000000 1.106239 181.000000 181.000000 63.000000 0.360614 116.000000 -0.025311 122.000000 -0.085532 166.000000 -0.159217 12.000000 -0.403243 66.000000 0.430488 122.000000 -0.085532
546652.000000 1.032444 181.000000 189.000000 68.000000 0.351051 125.000000 0.043795 141.000000 -0.074451 176.000000 -0.130847 14.000000 -0.363451 71.000000 0.465173 125.000000 0.043795
546841.000000 1.019357 189.000000 190.000000 64.000000 0.359044 126.000000 0.045439 158.000000 -0.145860 172.000000 -0.237492 13.000000 -0.442541 62.000000 0.394624 65.000000 0.353731
547031.000000 0.951536 190.000000 202.000000 62.000000 0.358763 123.000000 -0.050048 125.000000 -0.082806 185.000000 -0.199531 18.000000 -0.148338 64.000000 0.408434 125.000000 -0.082806
547379.000000 2.391367 146.000000 273.000000 173.000000 0.033702 196.000000 0.052431 200.000000 0.009735 253.000000 -0.091679 21.000000 -0.646531 160.000000 0.008639 174.000000 0.016116
549154.000000 0.879045 198.000000 214.000000 68.000000 0.330282 137.000000 -0.021991 139.000000 -0.029013 199.000000 -0.136817 13.000000 -0.508039 71.000000 0.382287 139.000000 -0.029013
549771.000000 0.993854 205.000000 197.000000 69.000000 0.362509 134.000000 -0.018636 168.000000 -0.122678 182.000000 -0.144591 13.000000 -0.500503 66.000000 0.392870 69.000000 0.362509
551505.000000 0.878639 199.000000 203.000000 67.000000 0.362741 138.000000 -0.004309 152.000000 -0.099967 189.000000 -0.141502 13.000000 -0.465077 73.000000 0.372413 138.000000 -0.004309
555945.000000 0.913321 192.000000 199.000000 66.000000 0.403258 132.000000 -0.009656 167.000000 -0.169014 182.000000 -0.183136 13.000000 -0.414861 67.000000 0.413226 129.000000 -0.073622
556347.000000 1.080703 203.000000 200.000000 74.000000 0.368400 138.000000 -0.035687 166.000000 -0.141990 184.000000 -0.155518 15.000000 -0.365489 72.000000 0.389371 114.000000 -0.140846
559822.000000 0.958042 203.000000 197.000000 71.000000 0.340395 134.000000 -0.017584 163.000000 -0.141584 183.000000 -0.176584 14.000000 -0.462897 60.000000 0.352826 63.000000 0.312778
560226.000000 0.835143 207.000000 208.000000 69.000000 0.391408 136.000000 0.003902 151.000000 -0.097587 193.000000 -0.148744 13.000000 -0.481472 69.000000 0.391408 136.000000 0.003902
562431.000000 0.943292 245.000000 227.000000 122.000000 -0.096954 156.000000 -0.017679 169.000000 -0.097054 211.000000 -0.155441 14.000000 -0.527743 78.000000 0.372106 123.000000 -0.107957
562658.000000 0.854011 227.000000 218.000000 76.000000 0.344938 151.000000 -0.026519 189.000000 -0.146144 204.000000 -0.150894 14.000000 -0.492697 79.000000 0.380361 151.000000 -0.026519
563437.000000 0.979563 184.000000 180.000000 64.000000 0.395799 122.000000 0.000941 147.000000 -0.161566 165.000000 -0.126300 15.000000 -0.262412 62.000000 0.402241 64.000000 0.395799
564005.000000 0.744276 197.000000 210.000000 118.000000 -0.041065 142.000000 0.014405 167.000000 -0.052822 194.000000 -0.164498 12.000000 -0.544360 76.000000 0.400361 120.000000 -0.038730
564215.000000 0.792743 210.000000 198.000000 67.000000 0.394011 130.000000 -0.016333 171.000000 -0.149452 184.000000 -0.158732 13.000000 -0.525832 65.000000 0.413996 69.000000 0.339184
565013.000000 0.892413 196.000000 199.000000 68.000000 0.388509 135.000000 -0.033289 147.000000 -0.114385 184.000000 -0.124745 12.000000 -0.520441 64.000000 0.399231 70.000000 0.393023
565577.000000 1.056270 175.000000 179.000000 62.000000 0.402228 118.000000 -0.023525 146.000000 -0.175910 163.000000 -0.128057 13.000000 -0.461098 63.000000 0.407213 119.000000 -0.048525
565935.000000 0.997834 179.000000 191.000000 65.000000 0.415221 128.000000 -0.016549 154.000000 -0.181095 172.000000 -0.168227 13.000000 -0.394422 66.000000 0.415237 128.000000 -0.016549
566712.000000 0.920266 193.000000 149.000000 74.000000 0.361521 128.000000 0.167303 120.000000 -0.123936 127.000000 0.107068 13.000000 -0.679326 75.000000 0.381881 117.000000 -0.099265
566861.000000 2.565107 149.000000 271.000000 169.000000 0.003231 202.000000 0.054889 228.000000 -0.107133 253.000000 -0.088465 17.000000 -0.575582 161.000000 -0.020121 169.000000 0.003231
567132.000000 0.978134 271.000000 200.000000 73.000000 0.299121 135.000000 0.003387 136.000000 -0.006942 185.000000 -0.142099 14.000000 -0.467353 69.000000 0.316520 73.000000 0.299121
568278.000000 0.945770 203.000000 200.000000 111.000000 -0.097365 135.000000 -0.015407 164.000000 -0.139701 183.000000 -0.120737 14.000000 -0.408228 69.000000 0.411206 111.000000 -0.097365
568690.000000 0.917476 212.000000 200.000000 70.000000 0.383369 135.000000 -0.043698 167.000000 -0.126081 185.000000 -0.130611 13.000000 -0.474154 71.000000 0.398307 135.000000 -0.043698
570642.000000 0.904294 194.000000 200.000000 59.000000 0.344326 131.000000 -0.023102 165.000000 -0.126097 183.000000 -0.147477 13.000000 -0.450942 64.000000 0.380251 131.000000 -0.023102
571483.000000 0.945863 205.000000 202.000000 70.000000 0.369987 136.000000 -0.034640 137.000000 -0.054703 188.000000 -0.147964 15.000000 -0.262161 67.000000 0.380097 70.000000 0.369987
572815.000000 0.851442 195.000000 158.000000 73.000000 0.317819 95.000000 -0.018967 114.000000 -0.149216 136.000000 -0.084890 13.000000 -0.609217 74.000000 0.337693 114.000000 -0.149216
575379.000000 0.935501 197.000000 209.000000 112.000000 -0.162314 139.000000 -0.022174 155.000000 -0.108602 192.000000 -0.156456 13.000000 -0.479702 61.000000 0.390254 71.000000 0.369377
577294.000000 1.036772 194.000000 208.000000 71.000000 0.406131 138.000000 -0.013509 156.000000 -0.143086 192.000000 -0.147585 14.000000 -0.501503 72.000000 0.406241 138.000000 -0.013509
579227.000000 0.817241 199.000000 155.000000 92.000000 -0.096770 134.000000 0.047227 115.000000 -0.117210 122.000000 -0.099074 14.000000 -0.465079 65.000000 0.355814 92.000000 -0.096770
579832.000000 1.116631 313.000000 221.000000 77.000000 0.291568 150.000000 -0.014214 163.000000 -0.056394 207.000000 -0.157710 14.000000 -0.462618 78.000000 0.292179 149.000000 -0.023775
581386.000000 0.905631 197.000000 205.000000 69.000000 0.355029 137.000000 -0.015049 166.000000 -0.149182 190.000000 -0.172254 13.000000 -0.518086 72.000000 0.384888 135.000000 -0.048637
581591.000000 0.795113 205.000000 221.000000 72.000000 0.356872 143.000000 0.005441 177.000000 -0.165064 206.000000 -0.171271 13.000000 -0.528397 71.000000 0.364708 73.000000 0.343815
581812.000000 0.853384 221.000000 215.000000 75.000000 0.359798 144.000000 -0.011691 187.000000 -0.137743 197.000000 -0.149201 14.000000 -0.504594 78.000000 0.390018 144.000000 -0.011691
582426.000000 0.948152 194.000000 189.000000 65.000000 0.395429 125.000000 0.003341 151.000000 -0.165235 175.000000 -0.158354 15.000000 -0.257959 64.000000 0.410758 105.000000 -0.114085
583985.000000 0.854655 205.000000 205.000000 71.000000 0.390347 139.000000 -0.033010 140.000000 -0.038197 192.000000 -0.137696 9.000000 -0.789483 71.000000 0.390347 140.000000 -0.038197
586505.000000 2.589094 140.000000 256.000000 167.000000 0.013356 190.000000 0.096410 213.000000 -0.102806 237.000000 -0.095000 18.000000 -0.679871 84.000000 -0.063867 129.000000 -0.109498
588015.000000 2.511244 139.000000 246.000000 136.000000 -0.135610 178.000000 0.087146 207.000000 -0.071535 230.000000 -0.067381 15.000000 -0.664948 85.000000 -0.080202 105.000000 -0.151363
588449.000000 0.969575 188.000000 197.000000 105.000000 -0.113622 131.000000 -0.017712 156.000000 -0.156038 186.000000 -0.160426 12.000000 -0.536618 66.000000 0.405563 67.000000 0.390579
588646.000000 0.962975 197.000000 205.000000 114.000000 -0.112383 137.000000 -0.039953 167.000000 -0.142384 190.000000 -0.152792 13.000000 -0.517167 66.000000 0.396376 69.000000 0.366393
590343.000000 1.115687 198.000000 201.000000 71.000000 0.392459 133.000000 -0.035723 134.000000 -0.041303 188.000000 -0.142368 14.000000 -0.391713 73.000000 0.412004 134.000000 -0.041303
590544.000000 1.089779 201.000000 213.000000 71.000000 0.416032 142.000000 -0.039970 188.000000 -0.175893 199.000000 -0.165456 14.000000 -0.513827 71.000000 0.416032 140.000000 -0.053638
590757.000000 1.079983 213.000000 203.000000 70.000000 0.394276 139.000000 -0.040690 164.000000 -0.144720 188.000000 -0.136725 14.000000 -0.459392 67.000000 0.409636 70.000000 0.394276
591529.000000 1.043540 183.000000 186.000000 59.000000 0.391098 122.000000 -0.017271 134.000000 -0.111190 172.000000 -0.139703 14.000000 -0.294438 62.000000 0.406176 122.000000 -0.017271
591913.000000 1.007588 198.000000 194.000000 68.000000 0.401147 129.000000 -0.018496 160.000000 -0.148889 180.000000 -0.160346 15.000000 -0.387693 69.000000 0.410897 129.000000 -0.018496
592511.000000 0.836225 197.000000 206.000000 67.000000 0.357066 138.000000 -0.027164 165.000000 -0.153822 193.000000 -0.152709 13.000000 -0.470360 65.000000 0.372144 68.000000 0.346878
592717.000000 1.008966 206.000000 199.000000 58.000000 0.350485 129.000000 -0.015125 142.000000 -0.127193 184.000000 -0.154374 13.000000 -0.446787 68.000000 0.390954 128.000000 -0.019732
594449.000000 0.787618 193.000000 208.000000 69.000000 0.371823 137.000000 -0.014233 140.000000 -0.026381 193.000000 -0.143057 13.000000 -0.529074 70.000000 0.381823 139.000000 -0.030738
596789.000000 0.872523 206.000000 201.000000 66.000000 0.405969 131.000000 -0.007965 162.000000 -0.124675 181.000000 -0.142886 13.000000 -0.460958 65.000000 0.411220 67.000000 0.395719
597383.000000 1.114434 187.000000 192.000000 67.000000 0.396518 126.000000 -0.056427 141.000000 -0.147871 176.000000 -0.159657 13.000000 -0.474831 65.000000 0.417192 67.000000 0.396518
598139.000000 0.909420 184.000000 191.000000 63.000000 0.376534 131.000000 -0.035783 155.000000 -0.141536 176.000000 -0.169248 8.000000 -0.799170 65.000000 0.410812 128.000000 -0.044844
598512.000000 1.107635 182.000000 191.000000 64.000000 0.425129 125.000000 -0.035783 151.000000 -0.199390 172.000000 -0.154939 13.000000 -0.439089 64.000000 0.425129 124.000000 -0.045893
598905.000000 1.050583 202.000000 200.000000 106.000000 -0.123155 134.000000 -0.037714 135.000000 -0.048090 186.000000 -0.158856 14.000000 -0.452570 73.000000 0.442003 97.000000 -0.030160
599105.000000 1.023136 200.000000 212.000000 69.000000 0.390327 137.000000 -0.035425 140.000000 -0.047635 198.000000 -0.139720 13.000000 -0.496881 71.000000 0.420828 140.000000 -0.047635
599524.000000 0.923186 207.000000 209.000000 72.000000 0.421299 143.000000 -0.042134 164.000000 -0.139751 194.000000 -0.156255 13.000000 -0.502097 72.000000 0.421299 143.000000 -0.042134
601516.000000 0.986158 202.000000 207.000000 73.000000 0.402555 142.000000 -0.033274 158.000000 -0.138118 192.000000 -0.126096 13.000000 -0.521068 72.000000 0.407555 73.000000 0.402555
601925.000000 0.820266 202.000000 186.000000 62.000000 0.353933 125.000000 -0.009875 148.000000 -0.135815 170.000000 -0.142273 14.000000 -0.327855 65.000000 0.392256 127.000000 -0.060220
602681.000000 0.900155 198.000000 193.000000 64.000000 0.368416 131.000000 -0.016834 144.000000 -0.095563 179.000000 -0.152007 13.000000 -0.483185 65.000000 0.398181 129.000000 -0.036113
604858.000000 0.978873 192.000000 188.000000 98.000000 -0.085847 125.000000 0.004248 138.000000 -0.078229 174.000000 -0.121881 15.000000 -0.339779 61.000000 0.428324 69.000000 0.389937
607363.000000 0.924842 187.000000 200.000000 68.000000 0.393150 135.000000 -0.022758 162.000000 -0.162226 184.000000 -0.151536 14.000000 -0.478622 70.000000 0.397744 135.000000 -0.022758
608364.000000 1.104656 197.000000 195.000000 68.000000 0.385002 130.000000 -0.021800 160.000000 -0.150281 180.000000 -0.167100 13.000000 -0.516393 64.000000 0.420942 68.000000 0.385002
609916.000000 0.915549 207.000000 215.000000 74.000000 0.345878 144.000000 -0.032100 160.000000 -0.123056 198.000000 -0.115405 13.000000 -0.511394 73.000000 0.370847 74.000000 0.345878
610523.000000 1.011868 198.000000 190.000000 64.000000 0.368117 125.000000 -0.010033 126.000000 -0.015079 177.000000 -0.150894 12.000000 -0.445437 59.000000 0.378698 64.000000 0.368117
611663.000000 1.002413 189.000000 204.000000 68.000000 0.342976 137.000000 -0.029328 167.000000 -0.130016 189.000000 -0.162571 14.000000 -0.414250 71.000000 0.382789 134.000000 -0.038388
612487.000000 0.790894 215.000000 210.000000 70.000000 0.356520 141.000000 -0.021723 144.000000 -0.047397 194.000000 -0.154809 13.000000 -0.507885 75.000000 0.366315 144.000000 -0.047397
613817.000000 0.803743 188.000000 207.000000 68.000000 0.344279 137.000000 -0.009938 166.000000 -0.123245 188.000000 -0.156742 12.000000 -0.533826 66.000000 0.369483 68.000000 0.344279
614223.000000 1.015706 199.000000 223.000000 76.000000 0.345946 145.000000 -0.027616 146.000000 -0.033681 206.000000 -0.141147 14.000000 -0.526785 74.000000 0.367294 76.000000 0.345946
615409.000000 0.960939 184.000000 160.000000 75.000000 0.224499 139.000000 0.004221 125.000000 -0.023178 132.000000 -0.056955 14.000000 -0.432353 63.000000 0.366551 75.000000 0.224499
618279.000000 0.928026 198.000000 229.000000 71.000000 0.388173 145.000000 -0.000875 181.000000 -0.153151 211.000000 -0.169594 13.000000 -0.492568 73.000000 0.407797 143.000000 -0.049730
618508.000000 0.954342 229.000000 244.000000 112.000000 0.323830 175.000000 -0.042821 176.000000 -0.064734 229.000000 -0.141819 17.000000 -0.493556 102.000000 0.369458 112.000000 0.323830
620440.000000 1.044407 193.000000 205.000000 72.000000 0.422980 134.000000 -0.042619 156.000000 -0.157886 191.000000 -0.148088 13.000000 -0.527584 72.000000 0.422980 124.000000 -0.128683
622363.000000 1.135283 221.000000 198.000000 71.000000 0.363651 130.000000 -0.036064 133.000000 -0.061566 185.000000 -0.163620 15.000000 -0.236300 75.000000 0.387005 133.000000 -0.061566
622561.000000 1.000128 198.000000 198.000000 63.000000 0.398920 129.000000 -0.041643 163.000000 -0.164528 184.000000 -0.148258 12.000000 -0.487504 63.000000 0.398920 128.000000 -0.045797
622971.000000 0.869796 212.000000 216.000000 72.000000 0.366389 145.000000 -0.004093 181.000000 -0.140829 201.000000 -0.131393 17.000000 -0.190425 73.000000 0.382094 134.000000 -0.074110
623187.000000 0.845973 216.000000 210.000000 75.000000 0.373118 145.000000 -0.006931 173.000000 -0.145643 192.000000 -0.150611 14.000000 -0.487113 73.000000 0.378463 76.000000 0.357962
623952.000000 1.045409 180.000000 185.000000 101.000000 -0.101739 124.000000 0.000878 149.000000 -0.140094 172.000000 -0.115313 14.000000 -0.295859 64.000000 0.403105 104.000000 -0.124623
624137.000000 0.884876 185.000000 204.000000 68.000000 0.361219 136.000000 -0.003010 162.000000 -0.136816 188.000000 -0.170559 13.000000 -0.473449 66.000000 0.386031 68.000000 0.361219
624754.000000 0.997699 210.000000 205.000000 72.000000 0.380280 138.000000 -0.029327 163.000000 -0.134594 190.000000 -0.166100 13.000000 -0.529904 72.000000 0.380280 137.000000 -0.049265
624959.000000 1.071832 205.000000 202.000000 66.000000 0.403917 131.000000 -0.023509 132.000000 -0.023948 187.000000 -0.156552 14.000000 -0.392996 65.000000 0.413729 103.000000 -0.101458
625161.000000 1.039152 202.000000 203.000000 71.000000 0.365296 134.000000 -0.019542 167.000000 -0.162320 187.000000 -0.125378 15.000000 -0.419234 69.000000 0.375469 71.000000 0.365296
626135.000000 1.075814 182.000000 186.000000 61.000000 0.410722 120.000000 -0.026677 123.000000 -0.056458 170.000000 -0.133481 15.000000 -0.266992 61.000000 0.410722 123.000000 -0.056458
628074.000000 0.843949 178.000000 180.000000 64.000000 0.368290 120.000000 -0.021457 132.000000 -0.138134 164.000000 -0.147005 13.000000 -0.398183 65.000000 0.372459 120.000000 -0.021457
629790.000000 1.140926 190.000000 189.000000 103.000000 -0.136302 125.000000 -0.041535 148.000000 -0.173448 172.000000 -0.116569 13.000000 -0.405281 65.000000 0.397663 69.000000 0.367177
630359.000000 0.950207 191.000000 184.000000 63.000000 0.389359 125.000000 -0.019329 144.000000 -0.129814 168.000000 -0.111004 14.000000 -0.343569 66.000000 0.392197 124.000000 -0.029140
631102.000000 1.119546 190.000000 194.000000 65.000000 0.398038 126.000000 -0.030785 152.000000 -0.201804 180.000000 -0.135656 13.000000 -0.481160 66.000000 0.407944 124.000000 -0.075190
632297.000000 1.053840 191.000000 186.000000 61.000000 0.380608 120.000000 -0.028418 143.000000 -0.153575 171.000000 -0.131961 13.000000 -0.393716 60.000000 0.380765 62.000000 0.375388
633881.000000 0.774389 211.000000 153.000000 110.000000 -0.096562 132.000000 0.142765 127.000000 -0.006922 134.000000 0.227639 12.000000 -0.651064 66.000000 0.347164 67.000000 0.327995
637691.000000 2.463637 147.000000 249.000000 119.000000 -0.123780 179.000000 0.081425 216.000000 -0.074172 231.000000 -0.068135 18.000000 -0.547223 89.000000 -0.089753 106.000000 -0.137087
638144.000000 0.975286 204.000000 199.000000 108.000000 -0.132346 134.000000 -0.044528 159.000000 -0.155955 182.000000 -0.138526 14.000000 -0.482394 68.000000 0.380789 72.000000 0.360099
638728.000000 0.922258 184.000000 183.000000 64.000000 0.356711 122.000000 -0.027459 144.000000 -0.145173 165.000000 -0.152210 13.000000 -0.402569 66.000000 0.396007 122.000000 -0.027459
639658.000000 1.066095 192.000000 194.000000 67.000000 0.413776 132.000000 -0.035768 145.000000 -0.133902 180.000000 -0.137288 14.000000 -0.401885 66.000000 0.424137 67.000000 0.413776
639852.000000 0.978136 194.000000 204.000000 68.000000 0.382647 131.000000 -0.018446 135.000000 -0.025327 188.000000 -0.162240 12.000000 -0.481804 70.000000 0.412568 135.000000 -0.025327
640056.000000 0.896191 204.000000 204.000000 68.000000 0.355985 131.000000 -0.035958 133.000000 -0.058230 190.000000 -0.138574 14.000000 -0.481176 70.000000 0.381157 133.000000 -0.058230
640260.000000 0.951081 204.000000 212.000000 73.000000 0.371895 142.000000 -0.046050 143.000000 -0.046160 197.000000 -0.191756 13.000000 -0.525613 71.000000 0.381865 74.000000 0.361974
640864.000000 1.142241 245.000000 186.000000 62.000000 0.317084 120.000000 0.000158 137.000000 -0.097650 172.000000 -0.127274 12.000000 -0.452821 66.000000 0.329906 121.000000 -0.000078
641994.000000 1.025895 199.000000 216.000000 72.000000 0.371509 136.000000 -0.025154 138.000000 -0.043007 200.000000 -0.187492 10.000000 -0.784951 70.000000 0.379424 75.000000 0.343169
642505.000000 0.935376 295.000000 219.000000 117.000000 -0.080684 143.000000 -0.014966 144.000000 -0.025986 203.000000 -0.151740 14.000000 -0.408996 75.000000 0.375506 117.000000 -0.080684
646279.000000 0.791650 196.000000 211.000000 72.000000 0.344339 142.000000 -0.012571 144.000000 -0.038057 195.000000 -0.127366 13.000000 -0.529590 69.000000 0.364356 72.000000 0.344339
647105.000000 0.877162 207.000000 151.000000 73.000000 0.336868 91.000000 0.069424 122.000000 -0.121706 133.000000 -0.031157 14.000000 -0.522524 71.000000 0.347417 75.000000 0.331429
648251.000000 1.022253 205.000000 208.000000 74.000000 0.378193 138.000000 -0.037196 139.000000 -0.037885 193.000000 -0.146662 14.000000 -0.477794 77.000000 0.393256 139.000000 -0.037885
648900.000000 0.824766 222.000000 209.000000 100.000000 -0.089746 137.000000 -0.018276 152.000000 -0.132259 193.000000 -0.158903 13.000000 -0.484936 64.000000 0.381712 69.000000 0.372119
