81.000000 0.941074 81.000000 280.000000 210.000000 0.009295 239.000000 0.299934 259.000000 -0.038153 269.000000 -0.003999 13.000000 -0.067725 73.000000 0.057492 102.000000 -0.035752
361.000000 0.919623 280.000000 285.000000 205.000000 -0.025064 243.000000 0.250302 260.000000 -0.040482 271.000000 -0.022521 10.000000 -0.017351 39.000000 0.068555 48.000000 0.025342
646.000000 0.848234 285.000000 246.000000 123.000000 -0.073540 209.000000 0.271616 225.000000 -0.082303 234.000000 -0.025893 12.000000 -0.006044 72.000000 0.043077 102.000000 -0.056955
892.000000 0.900660 246.000000 302.000000 214.000000 -0.002272 257.000000 0.265426 281.000000 -0.052691 290.000000 -0.032171 13.000000 -0.050264 82.000000 0.049686 107.000000 -0.057540
1482.000000 0.942082 288.000000 296.000000 214.000000 0.006851 248.000000 0.257680 271.000000 -0.054607 282.000000 -0.046707 11.000000 -0.050771 74.000000 0.074964 120.000000 -0.058435
1778.000000 0.836819 296.000000 294.000000 222.000000 -0.002006 248.000000 0.225441 268.000000 -0.078807 280.000000 -0.032208 10.000000 -0.051486 78.000000 0.037510 84.000000 0.026648
2072.000000 0.863305 294.000000 264.000000 185.000000 -0.026805 221.000000 0.283434 235.000000 -0.023822 249.000000 -0.036060 12.000000 -0.001647 78.000000 0.056536 185.000000 -0.026805
3191.000000 0.804237 251.000000 330.000000 241.000000 -0.020137 284.000000 0.127606 305.000000 -0.011704 317.000000 0.006368 13.000000 -0.013913 75.000000 0.081601 102.000000 -0.042871
4109.000000 0.777721 277.000000 296.000000 226.000000 -0.007103 251.000000 0.195330 272.000000 -0.032082 282.000000 -0.024869 12.000000 -0.038737 69.000000 0.057600 203.000000 -0.017872
4405.000000 0.708205 296.000000 285.000000 195.000000 -0.036812 241.000000 0.230317 264.000000 -0.016725 273.000000 -0.030832 12.000000 -0.043768 61.000000 0.053566 72.000000 0.040241
4690.000000 0.459059 285.000000 285.000000 199.000000 -0.026655 238.000000 0.246024 260.000000 -0.024073 271.000000 -0.005531 12.000000 -0.012006 52.000000 0.032695 64.000000 0.005421
4975.000000 0.756508 285.000000 260.000000 176.000000 -0.010344 217.000000 0.269748 233.000000 -0.030066 240.000000 -0.017496 13.000000 0.014095 61.000000 0.017730 120.000000 -0.081595
5235.000000 0.717097 260.000000 337.000000 251.000000 -0.004495 289.000000 0.094877 296.000000 0.011037 321.000000 -0.013036 15.000000 -0.001510 78.000000 0.054379 139.000000 -0.089929
5892.000000 0.627399 320.000000 302.000000 215.000000 -0.027468 259.000000 0.097831 274.000000 -0.036428 286.000000 -0.000535 9.000000 -0.019809 44.000000 0.071651 54.000000 0.043656
6483.000000 0.440897 289.000000 293.000000 218.000000 -0.036041 251.000000 0.160794 268.000000 0.012550 275.000000 0.018929 10.000000 0.003407 46.000000 0.042623 53.000000 0.027684
6776.000000 0.634386 293.000000 256.000000 171.000000 -0.042466 209.000000 0.205953 232.000000 -0.037978 243.000000 -0.015281 12.000000 0.042617 35.000000 0.035566 45.000000 0.018748
7894.000000 0.524593 284.000000 306.000000 187.000000 -0.040579 260.000000 0.190197 280.000000 -0.032621 292.000000 -0.021710 14.000000 -0.027225 88.000000 0.051692 105.000000 -0.024247
8200.000000 0.479295 306.000000 280.000000 208.000000 0.011871 238.000000 0.205925 253.000000 -0.031050 268.000000 0.009970 14.000000 -0.035248 63.000000 0.037220 79.000000 0.017813
9294.000000 0.578760 250.000000 311.000000 204.000000 -0.007288 266.000000 0.130189 292.000000 0.015410 300.000000 0.036462 9.000000 0.019169 74.000000 0.050591 112.000000 -0.065694
10196.000000 0.642352 279.000000 319.000000 231.000000 -0.023690 275.000000 0.109696 291.000000 -0.024867 306.000000 0.035651 14.000000 -0.025063 77.000000 0.051133 99.000000 -0.031028
10515.000000 0.591278 319.000000 267.000000 75.000000 0.029811 221.000000 0.206336 246.000000 -0.038527 255.000000 -0.011617 14.000000 0.006576 52.000000 0.052947 62.000000 0.019904
10782.000000 0.443837 267.000000 291.000000 217.000000 -0.003452 246.000000 0.214842 264.000000 -0.011507 278.000000 0.012190 9.000000 0.008100 61.000000 0.030879 65.000000 -0.004732
11641.000000 0.668181 284.000000 268.000000 185.000000 -0.023478 222.000000 0.235813 247.000000 -0.031288 256.000000 -0.017808 14.000000 -0.012836 48.000000 0.030411 58.000000 0.009220
12547.000000 0.632382 306.000000 273.000000 201.000000 -0.027882 228.000000 0.210705 251.000000 -0.021664 261.000000 -0.003843 14.000000 -0.015079 66.000000 0.025785 75.000000 -0.009888
12820.000000 0.503023 273.000000 305.000000 230.000000 0.006944 261.000000 0.204749 283.000000 -0.039856 293.000000 -0.028884 11.000000 0.003742 69.000000 0.077095 78.000000 0.038945
14252.000000 0.585092 290.000000 299.000000 204.000000 -0.012237 251.000000 0.209130 274.000000 -0.025931 286.000000 -0.011448 13.000000 -0.021725 77.000000 0.065585 85.000000 0.014190
14551.000000 0.568299 299.000000 316.000000 248.000000 -0.013430 275.000000 0.159625 291.000000 -0.049512 304.000000 -0.045233 11.000000 -0.003285 78.000000 0.056906 125.000000 -0.049115
15708.000000 0.554749 284.000000 254.000000 176.000000 -0.005285 212.000000 0.261565 231.000000 -0.036147 239.000000 -0.002871 9.000000 -0.049028 44.000000 0.020674 57.000000 -0.032443
17414.000000 0.886284 266.000000 307.000000 233.000000 0.011386 264.000000 0.251729 283.000000 -0.063910 295.000000 -0.038393 11.000000 -0.018137 59.000000 0.049570 102.000000 -0.062563
18574.000000 0.776267 318.000000 288.000000 191.000000 -0.069858 242.000000 0.231126 259.000000 -0.068686 272.000000 -0.036853 11.000000 -0.198529 80.000000 -0.041192 105.000000 -0.119560
19437.000000 0.799515 282.000000 276.000000 203.000000 0.007931 231.000000 0.288527 249.000000 -0.002085 263.000000 -0.009888 12.000000 -0.032633 74.000000 0.050799 113.000000 -0.071476
20001.000000 0.871219 288.000000 281.000000 221.000000 -0.075893 237.000000 0.185452 256.000000 -0.087151 271.000000 -0.064861 4.000000 0.034840 75.000000 0.045039 103.000000 -0.076246
20282.000000 0.736849 281.000000 262.000000 178.000000 0.016704 213.000000 0.287976 236.000000 -0.046618 247.000000 -0.014987 11.000000 -0.052508 52.000000 0.015846 58.000000 0.012101
20544.000000 0.994322 262.000000 335.000000 251.000000 0.018049 288.000000 0.302671 315.000000 -0.037019 323.000000 0.013577 14.000000 -0.055427 84.000000 0.039859 122.000000 -0.068131
21458.000000 0.989221 286.000000 278.000000 192.000000 -0.019580 233.000000 0.285309 253.000000 -0.053248 265.000000 -0.043672 12.000000 -0.015513 70.000000 0.038664 122.000000 -0.072919
21736.000000 0.830921 278.000000 308.000000 239.000000 -0.023088 264.000000 0.164202 282.000000 -0.027977 294.000000 0.005643 10.000000 -0.015709 68.000000 0.070357 93.000000 -0.038752
24921.000000 0.872396 287.000000 298.000000 221.000000 -0.017910 250.000000 0.250036 276.000000 -0.048458 284.000000 0.011024 12.000000 -0.033216 69.000000 0.039854 78.000000 0.003458
25536.000000 0.971192 317.000000 270.000000 185.000000 -0.010000 222.000000 0.289231 243.000000 -0.083952 256.000000 -0.033906 14.000000 -0.014545 59.000000 0.062510 72.000000 0.030769
26681.000000 0.890690 280.000000 306.000000 234.000000 -0.010595 259.000000 0.200363 279.000000 -0.090230 294.000000 -0.024085 10.000000 -0.036252 67.000000 0.023910 77.000000 -0.018787
27604.000000 0.826998 323.000000 291.000000 209.000000 -0.002149 253.000000 0.244987 267.000000 -0.022738 277.000000 -0.024289 10.000000 -0.028158 80.000000 0.048882 122.000000 -0.058223
28768.000000 0.668323 310.000000 280.000000 206.000000 -0.024388 235.000000 0.288134 257.000000 -0.031709 266.000000 0.004452 10.000000 -0.003338 50.000000 0.054342 70.000000 0.020094
29048.000000 0.922352 280.000000 296.000000 211.000000 -0.035390 249.000000 0.281019 271.000000 -0.077428 283.000000 -0.039340 12.000000 0.005676 58.000000 0.035521 72.000000 0.005207
29954.000000 0.863060 289.000000 276.000000 205.000000 -0.050737 231.000000 0.278808 254.000000 -0.053421 266.000000 -0.036197 11.000000 0.014675 69.000000 0.057571 89.000000 -0.043950
30230.000000 0.885073 276.000000 315.000000 223.000000 -0.014238 273.000000 0.172741 289.000000 -0.053354 300.000000 -0.055985 10.000000 -0.038844 82.000000 0.041572 130.000000 -0.046263
30825.000000 0.883291 280.000000 265.000000 189.000000 0.005327 224.000000 0.268103 244.000000 -0.054717 252.000000 -0.032851 12.000000 -0.014611 62.000000 0.052267 72.000000 0.015857
32568.000000 0.900222 292.000000 258.000000 184.000000 -0.017382 215.000000 0.294733 237.000000 -0.068950 247.000000 -0.013338 14.000000 -0.043117 53.000000 0.026885 66.000000 0.011446
32826.000000 0.835002 258.000000 302.000000 233.000000 0.007616 260.000000 0.138696 283.000000 -0.052538 291.000000 -0.028132 13.000000 -0.042708 77.000000 0.062900 127.000000 -0.070160
33699.000000 0.920689 308.000000 295.000000 229.000000 -0.036958 249.000000 0.230442 279.000000 -0.053711 281.000000 -0.049260 12.000000 -0.007195 62.000000 0.032330 78.000000 0.004760
33994.000000 0.696790 295.000000 298.000000 224.000000 -0.005143 253.000000 0.249812 275.000000 -0.051772 286.000000 -0.035205 6.000000 -0.155498 66.000000 0.053180 79.000000 0.048223
36743.000000 0.803804 308.000000 315.000000 236.000000 -0.072962 271.000000 0.073765 296.000000 -0.053240 304.000000 -0.041909 13.000000 0.005463 54.000000 0.062766 73.000000 0.033079
37058.000000 0.698026 315.000000 261.000000 190.000000 0.012635 218.000000 0.248434 240.000000 -0.077695 248.000000 -0.012271 10.000000 0.038134 49.000000 0.123275 140.000000 -0.021001
37319.000000 1.025645 261.000000 315.000000 243.000000 -0.013673 274.000000 0.126187 287.000000 -0.031194 303.000000 0.004121 13.000000 -0.066581 72.000000 0.064371 112.000000 -0.087544
37634.000000 0.988183 315.000000 326.000000 234.000000 -0.037741 278.000000 0.127494 293.000000 -0.023605 311.000000 -0.021693 10.000000 0.031711 68.000000 0.111836 75.000000 0.065174
38280.000000 0.990331 320.000000 323.000000 244.000000 0.026598 279.000000 0.130253 297.000000 -0.054855 308.000000 0.005694 13.000000 -0.027680 28.000000 0.004012 43.000000 -0.024469
38603.000000 0.950869 323.000000 312.000000 240.000000 0.006250 265.000000 0.101216 290.000000 -0.046512 300.000000 -0.009191 13.000000 -0.003018 70.000000 0.101363 97.000000 -0.047152
39221.000000 0.978779 306.000000 303.000000 186.000000 -0.003327 254.000000 0.157000 278.000000 -0.011620 291.000000 0.016594 10.000000 0.031066 77.000000 0.059057 107.000000 -0.047808
39524.000000 1.020733 303.000000 294.000000 201.000000 0.069688 249.000000 0.116206 268.000000 -0.069138 281.000000 0.009262 11.000000 -0.061366 163.000000 0.131381 183.000000 0.036710
39818.000000 0.607742 294.000000 321.000000 181.000000 0.011507 204.000000 0.243544 214.000000 -0.052506 304.000000 0.032071 10.000000 -0.067055 190.000000 0.180881 206.000000 0.087165
40139.000000 0.724720 321.000000 325.000000 251.000000 0.070470 281.000000 0.160740 297.000000 0.044034 309.000000 0.064612 11.000000 0.010190 60.000000 0.225488 79.000000 0.036273
40464.000000 0.884677 325.000000 309.000000 219.000000 -0.000444 266.000000 0.085607 283.000000 -0.052056 296.000000 -0.014751 12.000000 0.021588 28.000000 0.002638 46.000000 -0.018976
40773.000000 0.587976 309.000000 266.000000 176.000000 0.022691 218.000000 0.243599 243.000000 -0.006526 252.000000 0.016138 14.000000 -0.021366 145.000000 0.015359 180.000000 0.024336
41039.000000 0.894650 266.000000 323.000000 248.000000 0.021247 281.000000 0.088208 300.000000 -0.071038 312.000000 0.005815 14.000000 0.000811 185.000000 0.021230 202.000000 0.036747
41362.000000 0.786819 323.000000 304.000000 230.000000 -0.021376 263.000000 0.189656 281.000000 -0.081801 291.000000 -0.023808 13.000000 -0.047037 53.000000 0.036773 68.000000 -0.036190
42269.000000 0.678384 325.000000 306.000000 182.000000 -0.144982 263.000000 0.160987 279.000000 -0.004643 293.000000 0.014415 10.000000 0.064607 23.000000 0.098024 37.000000 0.061596
42575.000000 0.697487 306.000000 288.000000 204.000000 0.002606 240.000000 0.225693 260.000000 -0.023103 274.000000 0.025862 13.000000 -0.015724 58.000000 0.021015 75.000000 -0.014140
43468.000000 0.653713 605.000000 275.000000 129.000000 -0.082075 228.000000 0.219505 249.000000 -0.009320 265.000000 0.042119 19.000000 -0.018011 65.000000 0.033589 92.000000 -0.062127
43743.000000 0.600755 275.000000 303.000000 228.000000 -0.027626 265.000000 0.079668 278.000000 -0.012259 291.000000 -0.011005 9.000000 0.029093 78.000000 0.057309 137.000000 -0.065540
44339.000000 0.616460 293.000000 301.000000 220.000000 -0.003798 255.000000 0.210949 273.000000 -0.010587 290.000000 -0.003428 11.000000 0.038875 70.000000 0.027672 134.000000 -0.071579
44640.000000 0.566554 301.000000 320.000000 234.000000 -0.035909 273.000000 0.095048 294.000000 -0.042977 307.000000 -0.043104 13.000000 -0.007695 69.000000 0.061203 75.000000 0.054447
44960.000000 0.405674 320.000000 279.000000 186.000000 -0.017683 234.000000 0.228713 260.000000 -0.004561 269.000000 0.012947 11.000000 -0.016051 73.000000 0.034605 97.000000 -0.055346
45239.000000 0.664969 279.000000 291.000000 212.000000 -0.009552 250.000000 0.220057 267.000000 -0.012874 278.000000 0.005510 13.000000 -0.004089 76.000000 0.039511 121.000000 -0.088438
45830.000000 0.430659 300.000000 262.000000 182.000000 -0.016510 217.000000 0.227505 238.000000 -0.027273 250.000000 0.006333 11.000000 -0.036849 61.000000 0.042180 100.000000 -0.088714
46092.000000 0.647791 262.000000 284.000000 191.000000 -0.014004 237.000000 0.204929 259.000000 -0.041341 270.000000 0.009489 11.000000 -0.000499 75.000000 0.054893 119.000000 -0.073241
46978.000000 0.657224 296.000000 288.000000 198.000000 0.008633 245.000000 0.238588 262.000000 0.012551 273.000000 -0.028781 15.000000 -0.039063 59.000000 0.035668 73.000000 0.024778
48646.000000 0.597178 268.000000 319.000000 236.000000 -0.032718 275.000000 0.096626 297.000000 -0.013904 306.000000 0.033353 15.000000 -0.037808 83.000000 0.059227 143.000000 -0.039285
49524.000000 0.442504 286.000000 284.000000 198.000000 -0.023763 238.000000 0.192837 258.000000 -0.051833 269.000000 -0.013054 10.000000 -0.011475 68.000000 0.042162 74.000000 0.017853
49808.000000 0.630034 284.000000 279.000000 192.000000 -0.006862 236.000000 0.224420 256.000000 -0.015894 267.000000 0.000438 11.000000 0.003453 73.000000 0.060824 146.000000 -0.047882
50087.000000 0.536505 279.000000 302.000000 223.000000 -0.068919 262.000000 0.072198 277.000000 -0.062458 288.000000 -0.043931 12.000000 -0.007933 70.000000 0.059613 79.000000 0.025240
50656.000000 0.584376 267.000000 303.000000 189.000000 -0.038242 256.000000 0.187810 281.000000 -0.014309 293.000000 0.024232 13.000000 -0.018196 70.000000 0.050201 76.000000 0.039073
50959.000000 0.592976 303.000000 303.000000 203.000000 -0.030325 253.000000 0.196649 277.000000 -0.020408 288.000000 -0.030802 11.000000 -0.008718 79.000000 0.058179 142.000000 -0.077818
51262.000000 0.402630 303.000000 303.000000 131.000000 -0.085626 256.000000 0.226663 283.000000 -0.027269 291.000000 -0.012081 13.000000 -0.019783 70.000000 0.043179 77.000000 0.015514
51565.000000 0.625365 303.000000 276.000000 189.000000 -0.001602 230.000000 0.223555 252.000000 -0.051899 262.000000 -0.041334 11.000000 -0.001297 62.000000 0.036806 69.000000 0.005803
53037.000000 0.623075 330.000000 293.000000 214.000000 -0.017772 246.000000 0.222351 267.000000 -0.055065 279.000000 -0.044013 14.000000 -0.030951 53.000000 0.047439 60.000000 0.043803
53330.000000 0.424312 293.000000 307.000000 218.000000 0.006191 258.000000 0.207227 280.000000 -0.042773 292.000000 -0.009935 15.000000 -0.039232 67.000000 0.035294 71.000000 0.027989
53924.000000 0.658293 287.000000 312.000000 244.000000 -0.049056 270.000000 0.059971 287.000000 -0.082895 298.000000 -0.088459 11.000000 0.012369 72.000000 0.052921 79.000000 0.034645
54236.000000 0.460206 312.000000 262.000000 168.000000 0.001101 216.000000 0.210127 235.000000 -0.012635 250.000000 -0.000570 15.000000 -0.073182 66.000000 0.033730 78.000000 0.027756
54498.000000 0.774916 262.000000 315.000000 229.000000 0.014103 272.000000 0.170479 294.000000 0.016374 304.000000 0.061641 9.000000 0.016139 74.000000 0.057685 116.000000 -0.071447
54813.000000 0.777770 315.000000 296.000000 214.000000 -0.017334 251.000000 0.147192 268.000000 -0.040567 283.000000 -0.062152 12.000000 0.029668 65.000000 0.042696 129.000000 -0.088840
55723.000000 0.730220 323.000000 295.000000 212.000000 -0.010481 247.000000 0.227529 273.000000 -0.057456 282.000000 -0.038146 12.000000 0.040221 55.000000 0.048776 114.000000 -0.099860
56316.000000 0.744385 298.000000 288.000000 197.000000 -0.027223 247.000000 0.233781 264.000000 -0.010420 275.000000 0.017277 14.000000 -0.016978 73.000000 0.039901 135.000000 -0.063777
56903.000000 0.572789 299.000000 270.000000 192.000000 -0.018808 224.000000 0.263747 240.000000 -0.029873 255.000000 0.004188 11.000000 -0.034106 50.000000 0.002116 61.000000 -0.025094
57480.000000 0.899066 307.000000 311.000000 241.000000 -0.004603 266.000000 0.235833 286.000000 -0.072948 298.000000 -0.032509 11.000000 -0.043456 79.000000 0.087462 124.000000 -0.075005
57791.000000 0.711911 311.000000 303.000000 231.000000 0.016222 260.000000 0.296142 278.000000 -0.011351 288.000000 -0.028388 10.000000 -0.030706 32.000000 0.002035 45.000000 -0.017825
58094.000000 0.926064 303.000000 281.000000 190.000000 -0.009499 234.000000 0.281848 256.000000 -0.045396 266.000000 -0.032716 12.000000 -0.032117 71.000000 0.038363 123.000000 -0.075960
58375.000000 0.886029 281.000000 310.000000 232.000000 -0.034925 270.000000 0.093430 292.000000 -0.069016 298.000000 -0.033999 15.000000 -0.025052 66.000000 0.059488 72.000000 0.042357
58685.000000 0.670404 310.000000 267.000000 187.000000 0.000912 222.000000 0.276851 240.000000 -0.030781 251.000000 -0.029167 11.000000 -0.035785 57.000000 0.019125 103.000000 -0.083365
58952.000000 0.884017 267.000000 294.000000 195.000000 -0.030589 249.000000 0.242121 267.000000 -0.047002 279.000000 0.000724 14.000000 -0.032143 71.000000 0.053971 78.000000 0.047371
59246.000000 0.839706 294.000000 303.000000 223.000000 -0.005621 257.000000 0.244282 273.000000 -0.041939 289.000000 -0.045247 14.000000 -0.021862 77.000000 0.033338 130.000000 -0.074608
59854.000000 0.926643 305.000000 277.000000 192.000000 -0.058090 231.000000 0.290874 254.000000 -0.085647 264.000000 -0.039472 13.000000 -0.044990 69.000000 0.048706 102.000000 -0.063751
60717.000000 0.845003 268.000000 310.000000 239.000000 -0.034165 268.000000 0.264393 289.000000 -0.037945 296.000000 -0.000672 12.000000 -0.017565 81.000000 0.029722 115.000000 -0.089812
61027.000000 0.943388 310.000000 269.000000 199.000000 -0.011018 227.000000 0.296869 248.000000 -0.045182 256.000000 -0.020088 10.000000 0.029204 42.000000 0.039565 58.000000 0.000473
62482.000000 0.825268 289.000000 313.000000 221.000000 -0.028440 272.000000 0.191211 288.000000 -0.055283 300.000000 -0.049123 12.000000 -0.033179 75.000000 0.088859 118.000000 -0.072524
63077.000000 1.000126 282.000000 283.000000 213.000000 0.016887 241.000000 0.260536 257.000000 -0.077412 267.000000 -0.027475 11.000000 -0.032098 73.000000 0.016159 99.000000 -0.079893
63957.000000 0.928177 288.000000 333.000000 251.000000 -0.015456 285.000000 0.091112 306.000000 -0.070455 319.000000 -0.020769 12.000000 -0.020694 70.000000 0.060547 108.000000 -0.070869
64599.000000 0.726461 309.000000 309.000000 223.000000 -0.016188 264.000000 0.104974 283.000000 -0.031749 295.000000 -0.002548 11.000000 -0.015875 75.000000 0.065989 164.000000 -0.028478
66750.000000 0.747171 325.000000 308.000000 239.000000 -0.036862 263.000000 0.132573 279.000000 -0.031036 297.000000 -0.001726 13.000000 0.003427 71.000000 0.051978 145.000000 -0.088132
67058.000000 0.811630 308.000000 268.000000 183.000000 -0.038638 221.000000 0.236568 242.000000 -0.029919 253.000000 -0.030906 10.000000 0.045627 46.000000 0.076569 60.000000 0.035582
67326.000000 0.929816 268.000000 322.000000 186.000000 0.070937 280.000000 0.120655 298.000000 -0.069862 309.000000 -0.065534 13.000000 0.005694 180.000000 0.077034 186.000000 0.070937
67648.000000 0.719373 322.000000 267.000000 183.000000 0.020390 220.000000 0.303604 241.000000 -0.008212 251.000000 -0.014513 12.000000 -0.026019 140.000000 0.000432 183.000000 0.020390
68220.000000 0.937904 305.000000 323.000000 242.000000 0.026802 277.000000 0.254797 298.000000 -0.064185 310.000000 0.008198 11.000000 -0.021988 78.000000 0.036407 81.000000 -0.003514
68543.000000 0.830503 323.000000 300.000000 223.000000 0.021599 254.000000 0.249450 274.000000 -0.021022 286.000000 0.004353 10.000000 -0.016519 83.000000 0.014954 87.000000 -0.047554
68843.000000 0.835574 300.000000 296.000000 175.000000 0.059857 252.000000 0.185044 269.000000 -0.081381 282.000000 -0.029436 13.000000 -0.013847 174.000000 0.063838 193.000000 0.043713
69139.000000 0.601363 296.000000 296.000000 209.000000 0.022224 254.000000 0.247756 272.000000 -0.038810 283.000000 -0.012227 12.000000 -0.104876 173.000000 0.046944 187.000000 0.005768
69435.000000 0.919467 296.000000 258.000000 182.000000 -0.011727 212.000000 0.277992 235.000000 -0.025405 246.000000 -0.007677 10.000000 -0.005360 51.000000 0.032963 71.000000 -0.007086
69693.000000 0.868078 258.000000 312.000000 243.000000 0.019065 274.000000 0.113748 298.000000 -0.053261 304.000000 -0.065535 10.000000 -0.002108 68.000000 0.056340 96.000000 -0.076405
70918.000000 0.728087 326.000000 288.000000 184.000000 -0.034705 242.000000 0.274374 263.000000 -0.037869 273.000000 0.000016 10.000000 -0.017429 43.000000 0.007169 61.000000 0.006743
71206.000000 0.989936 288.000000 264.000000 168.000000 -0.009002 222.000000 0.287659 240.000000 -0.014989 250.000000 -0.019081 12.000000 0.002318 73.000000 0.017399 76.000000 -0.018369
71470.000000 0.897157 264.000000 311.000000 236.000000 -0.006011 266.000000 0.113240 287.000000 -0.050409 298.000000 -0.010439 13.000000 0.017205 25.000000 0.047159 27.000000 0.002990
72340.000000 0.781495 284.000000 600.000000 495.000000 -0.009783 558.000000 0.239121 579.000000 -0.014483 589.000000 0.033903 11.000000 0.031997 307.000000 0.446225 328.000000 -0.045784
72940.000000 0.587211 600.000000 290.000000 207.000000 0.020838 253.000000 0.231402 273.000000 -0.068770 280.000000 -0.036186 11.000000 -0.004200 79.000000 0.039070 188.000000 0.036636
73805.000000 0.638540 261.000000 309.000000 223.000000 0.006071 268.000000 0.169797 286.000000 -0.038074 296.000000 -0.031523 14.000000 -0.019142 71.000000 0.056605 106.000000 -0.085180
74662.000000 0.714940 268.000000 340.000000 266.000000 -0.009317 294.000000 0.121089 319.000000 -0.004551 332.000000 0.021500 16.000000 -0.056516 72.000000 0.028128 81.000000 0.005118
75333.000000 0.729529 331.000000 301.000000 226.000000 -0.011935 254.000000 0.096011 263.000000 0.019021 287.000000 -0.015788 10.000000 0.016753 68.000000 0.032702 110.000000 -0.062000
75919.000000 0.816865 285.000000 275.000000 189.000000 0.012430 231.000000 0.273873 249.000000 -0.012350 259.000000 -0.025376 12.000000 -0.031459 57.000000 0.008822 71.000000 -0.021931
76194.000000 0.854591 275.000000 287.000000 200.000000 -0.010437 249.000000 0.218638 267.000000 -0.045060 277.000000 -0.012880 12.000000 -0.024108 76.000000 0.035943 147.000000 -0.055434
76481.000000 0.814519 287.000000 296.000000 215.000000 0.016717 246.000000 0.251525 267.000000 -0.062035 282.000000 -0.022018 12.000000 -0.003788 59.000000 0.037043 72.000000 0.030052
76777.000000 0.807073 296.000000 306.000000 227.000000 -0.000275 261.000000 0.254870 276.000000 -0.060177 294.000000 -0.039360 13.000000 -0.053743 171.000000 0.046033 177.000000 0.021705
77083.000000 0.679718 306.000000 310.000000 225.000000 -0.004092 264.000000 0.235765 283.000000 -0.051821 298.000000 0.021300 14.000000 -0.050483 40.000000 0.008469 64.000000 -0.014387
77662.000000 0.759686 269.000000 324.000000 250.000000 0.061348 281.000000 0.248435 297.000000 -0.008492 308.000000 -0.006501 14.000000 -0.077743 192.000000 0.027884 216.000000 0.040723
78260.000000 0.756913 274.000000 298.000000 203.000000 -0.027301 255.000000 0.254313 275.000000 -0.028913 286.000000 0.032906 11.000000 -0.030564 75.000000 0.053632 83.000000 -0.006445
80666.000000 0.898915 275.000000 313.000000 246.000000 -0.014423 267.000000 0.116830 287.000000 -0.063892 299.000000 -0.021900 12.000000 0.006751 43.000000 0.064197 61.000000 0.063192
82462.000000 0.993624 260.000000 317.000000 240.000000 0.037576 275.000000 0.173878 295.000000 0.024160 305.000000 0.032796 15.000000 -0.040624 77.000000 0.061906 110.000000 -0.082751
82779.000000 0.887749 317.000000 297.000000 220.000000 -0.036332 252.000000 0.103858 278.000000 -0.057286 286.000000 -0.047758 12.000000 0.008094 66.000000 0.053814 78.000000 0.008251
83386.000000 1.098289 310.000000 309.000000 218.000000 0.031629 262.000000 0.263177 280.000000 -0.040681 295.000000 -0.028690 11.000000 0.007946 83.000000 0.037685 113.000000 -0.056843
83695.000000 0.828441 309.000000 311.000000 223.000000 -0.059251 266.000000 0.093649 287.000000 -0.047481 305.000000 -0.067368 15.000000 -0.084082 80.000000 0.020062 123.000000 -0.085701
84006.000000 0.772320 311.000000 261.000000 161.000000 -0.019289 219.000000 0.236476 239.000000 -0.025345 248.000000 0.009873 10.000000 0.043435 50.000000 0.070411 69.000000 0.057291
84267.000000 0.898208 261.000000 316.000000 230.000000 -0.025597 274.000000 0.143569 297.000000 -0.034958 304.000000 0.020121 14.000000 -0.053469 66.000000 0.045169 77.000000 0.030672
84583.000000 0.790231 316.000000 270.000000 181.000000 0.006519 224.000000 0.235770 245.000000 -0.055264 256.000000 -0.024480 12.000000 0.009886 55.000000 0.002431 79.000000 0.000894
84853.000000 0.754846 270.000000 300.000000 228.000000 0.035213 259.000000 0.189178 275.000000 -0.046340 286.000000 -0.014881 14.000000 -0.006847 74.000000 0.049509 129.000000 -0.051648
85453.000000 0.729002 300.000000 275.000000 194.000000 0.010972 229.000000 0.223572 251.000000 -0.057260 262.000000 -0.031243 12.000000 0.022544 43.000000 0.030159 51.000000 0.003841
86353.000000 0.659069 290.000000 277.000000 190.000000 -0.025738 235.000000 0.205311 252.000000 -0.006977 263.000000 0.014011 11.000000 -0.009661 73.000000 0.012730 81.000000 -0.020546
86630.000000 0.604136 277.000000 314.000000 226.000000 -0.044034 271.000000 0.119680 288.000000 -0.016557 304.000000 -0.020848 12.000000 0.034952 72.000000 0.090564 153.000000 -0.083921
86944.000000 0.435689 314.000000 269.000000 194.000000 0.010606 226.000000 0.260861 248.000000 -0.016972 255.000000 0.010725 11.000000 0.011490 53.000000 0.025829 59.000000 0.001331
87213.000000 0.655476 269.000000 287.000000 196.000000 -0.005793 241.000000 0.195256 268.000000 -0.028662 269.000000 -0.018317 14.000000 -0.009413 65.000000 0.049440 101.000000 -0.061898
87500.000000 0.557607 287.000000 326.000000 233.000000 -0.015199 282.000000 0.114113 303.000000 -0.049869 315.000000 0.000492 15.000000 -0.057080 84.000000 0.062865 129.000000 -0.063672
87826.000000 0.359565 326.000000 302.000000 181.000000 -0.075819 256.000000 0.250737 278.000000 -0.006160 289.000000 0.021333 10.000000 0.022887 59.000000 0.046553 66.000000 0.021037
88128.000000 0.637665 302.000000 267.000000 183.000000 -0.000742 218.000000 0.230734 240.000000 -0.022383 251.000000 -0.024215 12.000000 0.024828 56.000000 0.024044 59.000000 -0.008934
88395.000000 0.557419 267.000000 322.000000 260.000000 -0.024768 279.000000 0.074920 302.000000 -0.059403 311.000000 0.009235 16.000000 -0.026434 77.000000 0.059870 84.000000 0.042659
89283.000000 0.498336 265.000000 308.000000 218.000000 -0.030924 263.000000 0.081723 288.000000 -0.019061 296.000000 -0.012100 14.000000 -0.023218 65.000000 0.089283 69.000000 0.061055
90794.000000 0.470836 281.000000 268.000000 204.000000 0.024076 222.000000 0.217052 245.000000 -0.011712 254.000000 -0.020616 12.000000 0.040992 59.000000 0.052606 74.000000 0.014847
91062.000000 0.525574 268.000000 316.000000 192.000000 -0.010767 273.000000 0.107159 293.000000 -0.029897 305.000000 0.014977 11.000000 0.001168 80.000000 0.051810 123.000000 -0.055598
91946.000000 0.609392 295.000000 302.000000 138.000000 -0.060209 257.000000 0.193727 283.000000 -0.019628 292.000000 0.027315 11.000000 0.009032 83.000000 0.037397 138.000000 -0.060209
92248.000000 0.459368 302.000000 301.000000 207.000000 0.001913 255.000000 0.198167 281.000000 -0.043464 289.000000 -0.039264 12.000000 0.001922 81.000000 0.041178 130.000000 -0.058737
92834.000000 0.599153 285.000000 267.000000 184.000000 -0.022377 221.000000 0.216540 238.000000 -0.006407 254.000000 -0.019480 12.000000 0.012382 71.000000 0.035769 124.000000 -0.061656
93675.000000 0.564141 265.000000 286.000000 209.000000 0.008070 243.000000 0.195153 261.000000 0.016703 272.000000 0.012941 10.000000 0.044958 65.000000 0.059243 93.000000 -0.031310
93961.000000 0.540652 286.000000 300.000000 219.000000 -0.038322 256.000000 0.156994 275.000000 -0.058957 286.000000 -0.035852 12.000000 0.006874 72.000000 0.030222 99.000000 -0.056373
94261.000000 0.364945 300.000000 284.000000 184.000000 -0.042161 239.000000 0.210379 261.000000 -0.070986 272.000000 -0.002522 10.000000 -0.038677 66.000000 0.019470 78.000000 0.017649
94545.000000 0.585392 284.000000 311.000000 230.000000 -0.028062 272.000000 0.160593 288.000000 -0.049968 298.000000 -0.009528 13.000000 -0.026898 76.000000 0.093902 113.000000 -0.006927
94856.000000 0.472057 311.000000 289.000000 221.000000 0.015757 246.000000 0.199064 266.000000 -0.014559 277.000000 0.022070 14.000000 -0.051876 77.000000 0.010096 102.000000 -0.098857
95145.000000 0.562932 289.000000 276.000000 185.000000 -0.018705 232.000000 0.224961 250.000000 -0.005905 263.000000 0.000110 10.000000 0.064233 70.000000 0.032793 85.000000 -0.042614
95421.000000 0.514875 276.000000 281.000000 211.000000 -0.013220 239.000000 0.190229 265.000000 -0.021995 268.000000 0.022504 13.000000 -0.041347 75.000000 0.023215 193.000000 -0.018532
95702.000000 0.488978 281.000000 268.000000 117.000000 -0.071053 220.000000 0.232346 243.000000 -0.018124 253.000000 -0.004567 14.000000 -0.020002 71.000000 0.033446 117.000000 -0.071053
95970.000000 0.535212 268.000000 301.000000 213.000000 -0.024106 253.000000 0.186659 273.000000 -0.031099 286.000000 -0.002899 16.000000 -0.021372 73.000000 0.043069 133.000000 -0.067783
96271.000000 0.514657 301.000000 299.000000 222.000000 -0.021299 258.000000 0.181335 279.000000 -0.041785 288.000000 0.004218 13.000000 0.011006 60.000000 0.030361 78.000000 0.022207
96570.000000 0.518967 299.000000 274.000000 173.000000 -0.016005 223.000000 0.204624 246.000000 -0.007287 262.000000 -0.001595 11.000000 0.018230 66.000000 0.025985 75.000000 0.006816
97717.000000 0.565655 265.000000 312.000000 211.000000 -0.026272 270.000000 0.124384 291.000000 -0.008783 302.000000 0.049523 14.000000 -0.026243 72.000000 0.046072 76.000000 0.026197
98029.000000 0.547518 312.000000 272.000000 193.000000 -0.031284 227.000000 0.181218 248.000000 -0.055868 262.000000 -0.036117 9.000000 0.009651 59.000000 0.037460 65.000000 0.036441
98301.000000 0.328508 272.000000 304.000000 209.000000 -0.002918 261.000000 0.207084 277.000000 -0.026708 289.000000 -0.009213 11.000000 -0.018262 57.000000 0.036817 69.000000 0.023667
98605.000000 0.638876 304.000000 305.000000 217.000000 -0.024685 257.000000 0.214077 280.000000 -0.009511 291.000000 0.009816 11.000000 0.008015 72.000000 0.052290 80.000000 0.022133
98910.000000 0.634832 305.000000 299.000000 207.000000 -0.038510 252.000000 0.191505 272.000000 -0.042806 286.000000 -0.030738 12.000000 0.033875 72.000000 0.047011 78.000000 0.034424
99209.000000 0.465314 299.000000 278.000000 186.000000 -0.003466 229.000000 0.297413 251.000000 -0.014717 262.000000 -0.019684 11.000000 -0.049026 164.000000 0.013177 186.000000 -0.003466
99487.000000 0.773201 278.000000 293.000000 196.000000 -0.011488 252.000000 0.250033 268.000000 -0.011581 279.000000 0.013749 15.000000 -0.032883 77.000000 0.070279 124.000000 -0.065475
100069.000000 0.579810 289.000000 258.000000 186.000000 0.028026 210.000000 0.307259 236.000000 -0.057193 245.000000 0.002431 10.000000 -0.054907 59.000000 0.014184 63.000000 -0.024765
100327.000000 0.944751 258.000000 330.000000 234.000000 0.004200 282.000000 0.246516 308.000000 -0.036870 318.000000 0.023286 13.000000 -0.048618 78.000000 0.041545 121.000000 -0.083800
100657.000000 0.929899 330.000000 312.000000 231.000000 -0.039921 269.000000 0.219198 291.000000 -0.071242 301.000000 -0.052965 13.000000 -0.028848 78.000000 0.021882 83.000000 0.010111
101250.000000 1.003070 281.000000 293.000000 204.000000 -0.000243 247.000000 0.217326 269.000000 -0.040663 279.000000 -0.017669 13.000000 -0.013231 72.000000 0.040616 82.000000 -0.016044
101543.000000 0.866251 293.000000 284.000000 212.000000 -0.024696 241.000000 0.260302 263.000000 -0.028415 273.000000 0.002870 11.000000 -0.030925 84.000000 0.027041 121.000000 -0.064701
101827.000000 0.803044 284.000000 281.000000 185.000000 0.004457 238.000000 0.243669 253.000000 -0.042996 266.000000 -0.041996 12.000000 -0.002944 71.000000 0.016948 100.000000 -0.094964
102392.000000 0.632293 284.000000 297.000000 209.000000 0.023914 249.000000 0.273242 272.000000 -0.050802 282.000000 -0.021397 11.000000 -0.050354 172.000000 0.023569 182.000000 0.007282
102689.000000 0.906441 297.000000 300.000000 199.000000 -0.012926 253.000000 0.255147 275.000000 -0.022408 287.000000 0.003752 15.000000 -0.050112 79.000000 0.032370 114.000000 -0.065590
103584.000000 1.033920 265.000000 319.000000 246.000000 -0.002639 275.000000 0.272752 295.000000 -0.046730 306.000000 0.018586 14.000000 -0.037117 78.000000 0.039396 137.000000 -0.066416
103903.000000 0.958304 319.000000 288.000000 197.000000 -0.021348 244.000000 0.250094 261.000000 -0.078040 273.000000 -0.055296 12.000000 -0.041507 77.000000 0.015797 100.000000 -0.075818
104191.000000 0.718640 288.000000 286.000000 205.000000 -0.010248 240.000000 0.261272 260.000000 -0.063898 272.000000 -0.040872 13.000000 -0.056188 65.000000 0.065568 93.000000 -0.067379
104477.000000 0.892718 286.000000 317.000000 241.000000 0.004713 271.000000 0.171515 290.000000 -0.030667 304.000000 -0.029646 13.000000 -0.034068 80.000000 0.067793 122.000000 -0.075284
105712.000000 0.613915 323.000000 303.000000 193.000000 -0.032286 260.000000 0.240333 283.000000 -0.022787 288.000000 -0.009904 10.000000 -0.057401 57.000000 0.049534 70.000000 0.025117
106280.000000 0.833702 265.000000 315.000000 239.000000 0.005914 273.000000 0.129052 294.000000 -0.052908 303.000000 0.011665 11.000000 -0.028899 69.000000 0.068986 135.000000 0.004623
106891.000000 0.952164 296.000000 300.000000 216.000000 -0.010215 252.000000 0.266004 271.000000 -0.039937 288.000000 -0.005408 13.000000 -0.045390 71.000000 0.033342 80.000000 0.005599
107191.000000 0.828230 300.000000 333.000000 252.000000 -0.026257 287.000000 0.106346 308.000000 -0.080613 320.000000 -0.032870 11.000000 -0.017756 83.000000 0.085853 106.000000 -0.026032
108089.000000 0.956295 295.000000 311.000000 234.000000 0.000188 271.000000 0.159457 285.000000 -0.092015 298.000000 -0.069619 16.000000 -0.014190 42.000000 0.046232 62.000000 0.020715
108400.000000 0.561414 311.000000 266.000000 100.000000 -0.086434 222.000000 0.290141 240.000000 -0.018247 251.000000 -0.002260 10.000000 -0.046972 49.000000 0.011259 56.000000 -0.004226
108666.000000 0.881472 266.000000 306.000000 234.000000 0.020190 262.000000 0.228528 284.000000 -0.075470 295.000000 -0.022805 14.000000 -0.019264 72.000000 0.048470 78.000000 0.039020
108972.000000 0.734923 306.000000 302.000000 230.000000 -0.033938 257.000000 0.274008 280.000000 -0.034880 290.000000 -0.011888 12.000000 -0.032240 78.000000 0.012978 138.000000 -0.119562
109274.000000 0.824961 302.000000 277.000000 208.000000 0.005850 231.000000 0.300895 254.000000 -0.035356 265.000000 -0.020153 10.000000 0.013191 69.000000 0.022664 114.000000 -0.074792
109551.000000 0.825819 277.000000 324.000000 255.000000 -0.007665 284.000000 0.105910 297.000000 -0.035295 311.000000 -0.042583 10.000000 -0.028100 81.000000 0.076921 116.000000 -0.025600
110738.000000 0.733246 285.000000 254.000000 181.000000 0.007963 213.000000 0.311566 227.000000 -0.025505 241.000000 -0.022089 10.000000 -0.021692 57.000000 0.032632 69.000000 0.008653
110992.000000 0.908992 254.000000 315.000000 242.000000 -0.024685 271.000000 0.224517 298.000000 -0.061031 305.000000 -0.025671 8.000000 -0.040522 73.000000 0.090909 115.000000 -0.038292
111307.000000 0.684549 315.000000 298.000000 221.000000 -0.008683 254.000000 0.296036 276.000000 -0.030751 284.000000 0.014547 11.000000 -0.036000 76.000000 0.009045 115.000000 -0.106363
111899.000000 0.923784 294.000000 298.000000 225.000000 -0.031849 252.000000 0.233467 270.000000 -0.073398 284.000000 -0.045624 11.000000 -0.008474 79.000000 0.073907 113.000000 -0.054103
112763.000000 0.992258 278.000000 286.000000 217.000000 -0.022255 241.000000 0.216006 261.000000 -0.081142 273.000000 -0.035062 9.000000 -0.005488 67.000000 0.065726 122.000000 -0.063169
113336.000000 1.061505 287.000000 281.000000 199.000000 0.001954 236.000000 0.293242 252.000000 -0.024391 268.000000 -0.003780 10.000000 0.021144 74.000000 0.008687 104.000000 -0.085060
113617.000000 0.885295 281.000000 336.000000 257.000000 -0.006430 291.000000 0.135421 310.000000 -0.018762 324.000000 -0.006097 12.000000 -0.031351 81.000000 0.078328 114.000000 -0.057237
114820.000000 0.851789 288.000000 291.000000 203.000000 -0.070581 246.000000 0.248558 264.000000 -0.020659 275.000000 -0.000489 9.000000 -0.078228 80.000000 -0.019782 115.000000 -0.083465
115370.000000 0.959043 259.000000 342.000000 258.000000 0.047365 297.000000 0.264339 322.000000 0.048243 331.000000 0.041706 13.000000 -0.020831 74.000000 0.052513 110.000000 -0.084227
115712.000000 0.851254 342.000000 329.000000 244.000000 0.054561 279.000000 0.149530 288.000000 0.100800 317.000000 0.002294 11.000000 -0.070391 188.000000 0.073812 209.000000 0.039796
116041.000000 0.897231 329.000000 320.000000 220.000000 0.007329 274.000000 0.180230 296.000000 0.015420 306.000000 0.007929 12.000000 -0.036766 75.000000 0.040060 102.000000 -0.116574
116992.000000 1.027523 312.000000 300.000000 214.000000 0.008803 258.000000 0.150447 274.000000 -0.022548 286.000000 0.009177 8.000000 -0.050001 73.000000 0.044695 104.000000 -0.103878
118176.000000 0.946271 282.000000 345.000000 274.000000 0.031539 299.000000 0.139582 306.000000 0.044519 332.000000 -0.008067 13.000000 -0.029230 88.000000 0.078216 136.000000 -0.024392
119140.000000 0.962078 299.000000 293.000000 223.000000 0.072153 251.000000 0.158028 273.000000 -0.067085 281.000000 -0.010737 14.000000 -0.024899 66.000000 0.071133 105.000000 -0.133575
119433.000000 0.793259 293.000000 296.000000 192.000000 -0.063177 251.000000 0.110804 257.000000 0.022183 281.000000 0.003982 12.000000 -0.017337 31.000000 0.013197 51.000000 -0.005656
120375.000000 0.846502 316.000000 308.000000 216.000000 -0.085298 264.000000 0.104247 270.000000 0.043620 293.000000 -0.005158 12.000000 0.021345 48.000000 0.043808 71.000000 0.031993
121262.000000 0.829962 316.000000 308.000000 232.000000 -0.089401 265.000000 0.099280 286.000000 -0.069044 296.000000 -0.021692 10.000000 -0.017781 73.000000 0.039240 83.000000 -0.018331
122453.000000 0.849873 304.000000 296.000000 213.000000 0.009475 250.000000 0.256589 272.000000 -0.054321 283.000000 -0.022253 12.000000 -0.004563 76.000000 0.067622 104.000000 -0.065356
122749.000000 0.841101 296.000000 317.000000 251.000000 -0.019119 272.000000 0.119312 297.000000 -0.042649 307.000000 -0.032179 10.000000 0.003985 80.000000 0.080019 136.000000 -0.002383
123066.000000 0.711896 317.000000 297.000000 205.000000 0.005905 254.000000 0.264041 274.000000 0.003839 283.000000 0.016693 12.000000 -0.034624 177.000000 -0.004752 188.000000 -0.012510
123626.000000 0.892910 263.000000 310.000000 216.000000 -0.030781 268.000000 0.076928 275.000000 -0.009198 296.000000 -0.060545 12.000000 0.000953 73.000000 0.082977 108.000000 -0.069123
124204.000000 0.949720 268.000000 342.000000 255.000000 0.001880 297.000000 0.136098 312.000000 -0.007302 326.000000 0.005583 14.000000 -0.033885 82.000000 0.045666 135.000000 -0.064726
125156.000000 1.038812 323.000000 273.000000 176.000000 -0.031375 228.000000 0.263543 249.000000 -0.049750 261.000000 -0.024295 12.000000 -0.014008 72.000000 0.041636 94.000000 -0.059038
125429.000000 0.879954 273.000000 307.000000 224.000000 -0.030951 268.000000 0.216621 292.000000 -0.045781 293.000000 -0.036157 12.000000 -0.031675 69.000000 0.088599 72.000000 0.059790
125736.000000 0.758656 307.000000 270.000000 191.000000 0.012963 225.000000 0.296081 248.000000 -0.014369 259.000000 -0.018992 10.000000 -0.030779 160.000000 0.013733 167.000000 -0.001315
126006.000000 0.876165 270.000000 294.000000 221.000000 -0.032896 248.000000 0.251726 267.000000 -0.036644 283.000000 -0.011800 10.000000 -0.002863 69.000000 0.046841 97.000000 -0.064857
126300.000000 0.961350 294.000000 306.000000 215.000000 -0.050271 260.000000 0.264147 282.000000 -0.056089 294.000000 -0.058253 10.000000 0.009533 68.000000 0.038278 84.000000 0.017428
126606.000000 0.748975 306.000000 285.000000 206.000000 0.039958 237.000000 0.296587 259.000000 -0.037336 273.000000 -0.003420 10.000000 -0.028860 68.000000 0.014074 81.000000 -0.008229
127192.000000 0.807938 301.000000 285.000000 203.000000 -0.034075 239.000000 0.193668 258.000000 -0.096176 271.000000 -0.079203 13.000000 -0.046891 76.000000 0.043344 120.000000 -0.065364
127477.000000 0.670969 285.000000 266.000000 171.000000 -0.018603 223.000000 0.286523 240.000000 -0.016221 251.000000 -0.025202 12.000000 -0.048843 79.000000 0.036270 159.000000 -0.029231
127743.000000 0.894264 266.000000 310.000000 225.000000 -0.038024 269.000000 0.192777 285.000000 -0.030971 297.000000 0.013354 10.000000 -0.002227 78.000000 0.059022 128.000000 -0.082921
128053.000000 0.868009 310.000000 266.000000 201.000000 -0.043872 224.000000 0.220502 245.000000 -0.075660 254.000000 -0.047760 11.000000 -0.003325 55.000000 0.023760 69.000000 -0.010942
128319.000000 0.712051 266.000000 297.000000 208.000000 -0.008685 251.000000 0.246817 268.000000 -0.007852 283.000000 -0.027411 12.000000 -0.014062 77.000000 0.069391 117.000000 -0.055590
129492.000000 0.716256 289.000000 286.000000 205.000000 0.028641 241.000000 0.293794 260.000000 0.001204 270.000000 -0.009017 11.000000 -0.036347 164.000000 0.004880 186.000000 0.010554
130039.000000 0.878120 261.000000 311.000000 234.000000 -0.024375 268.000000 0.083726 287.000000 -0.066634 297.000000 -0.053452 15.000000 -0.035222 66.000000 0.094381 72.000000 0.092924
130608.000000 0.912997 258.000000 306.000000 224.000000 -0.012069 259.000000 0.221820 279.000000 -0.043194 292.000000 -0.032895 15.000000 -0.037236 79.000000 0.047832 136.000000 -0.085806
130914.000000 0.852688 306.000000 301.000000 208.000000 -0.027330 254.000000 0.258877 275.000000 -0.068338 287.000000 -0.041381 11.000000 -0.041231 80.000000 0.088724 85.000000 0.078707
131215.000000 0.753792 301.000000 298.000000 199.000000 0.021501 252.000000 0.307743 269.000000 0.020249 281.000000 0.004793 13.000000 -0.032838 73.000000 0.005520 128.000000 -0.108072
132369.000000 0.794597 276.000000 256.000000 181.000000 -0.017744 214.000000 0.246895 231.000000 -0.046489 243.000000 -0.030110 12.000000 -0.012315 64.000000 0.038873 104.000000 -0.086773
132625.000000 0.813872 256.000000 331.000000 255.000000 -0.015053 287.000000 0.084711 305.000000 -0.055761 317.000000 -0.017297 12.000000 -0.023761 84.000000 0.077784 131.000000 -0.052812
132956.000000 0.627310 331.000000 295.000000 203.000000 -0.047788 251.000000 0.240141 273.000000 -0.056600 283.000000 -0.000818 12.000000 0.016356 66.000000 0.061158 69.000000 0.021080
133251.000000 0.723240 295.000000 274.000000 193.000000 -0.020608 227.000000 0.220316 254.000000 -0.062661 263.000000 -0.018712 14.000000 -0.029078 76.000000 0.046368 133.000000 -0.075920
134119.000000 0.544613 276.000000 267.000000 186.000000 0.003698 222.000000 0.235799 242.000000 -0.041816 256.000000 -0.007473 8.000000 -0.040607 72.000000 0.071963 129.000000 -0.051833
134386.000000 0.650646 267.000000 313.000000 237.000000 0.025931 268.000000 0.111402 288.000000 0.001884 301.000000 0.029249 12.000000 -0.031579 75.000000 0.067415 96.000000 -0.037714
134974.000000 0.424943 275.000000 300.000000 227.000000 0.008918 254.000000 0.213323 273.000000 0.006412 287.000000 0.006616 12.000000 -0.085528 177.000000 0.034752 202.000000 0.021868
135274.000000 0.642793 300.000000 292.000000 202.000000 0.002166 249.000000 0.188385 267.000000 -0.020535 278.000000 -0.002525 13.000000 -0.030075 81.000000 0.049755 128.000000 -0.061833
135566.000000 0.511252 292.000000 293.000000 221.000000 -0.008918 252.000000 0.169568 278.000000 -0.073942 282.000000 -0.043927 10.000000 0.019073 83.000000 0.080080 146.000000 -0.089075
135859.000000 0.389834 293.000000 295.000000 205.000000 0.023540 251.000000 0.222540 273.000000 -0.023135 284.000000 0.017180 11.000000 -0.057816 162.000000 0.011989 180.000000 0.019103
136154.000000 0.607810 295.000000 287.000000 200.000000 -0.039991 244.000000 0.203299 262.000000 -0.006970 272.000000 -0.025185 11.000000 0.029221 77.000000 0.060772 126.000000 -0.052001
136441.000000 0.553967 287.000000 296.000000 219.000000 -0.047272 252.000000 0.099327 275.000000 -0.075078 284.000000 -0.073527 10.000000 0.014545 77.000000 0.054706 125.000000 -0.049348
136995.000000 0.579171 258.000000 304.000000 228.000000 -0.017218 262.000000 0.191152 277.000000 -0.012562 288.000000 -0.027987 7.000000 0.026836 75.000000 0.051385 116.000000 -0.075423
137299.000000 0.549032 304.000000 304.000000 217.000000 -0.038448 257.000000 0.164515 280.000000 -0.067883 291.000000 -0.069622 11.000000 0.029578 72.000000 0.066500 75.000000 0.043647
137887.000000 0.528386 284.000000 299.000000 221.000000 -0.015484 257.000000 0.159283 278.000000 -0.050606 288.000000 -0.002142 16.000000 -0.026800 71.000000 0.067340 77.000000 0.063420
138472.000000 0.568592 286.000000 260.000000 136.000000 -0.049813 218.000000 0.221779 236.000000 0.000040 246.000000 -0.012704 13.000000 0.022589 80.000000 0.024705 100.000000 -0.040093
138732.000000 0.415964 260.000000 315.000000 136.000000 -0.096722 270.000000 0.088545 292.000000 -0.015782 303.000000 0.009467 16.000000 -0.046431 72.000000 0.025330 136.000000 -0.096722
139047.000000 0.443952 315.000000 273.000000 174.000000 -0.038348 225.000000 0.205507 244.000000 -0.005700 260.000000 0.004911 10.000000 0.039611 63.000000 0.064707 101.000000 -0.042579
139320.000000 0.493422 273.000000 329.000000 241.000000 -0.023511 284.000000 0.156269 309.000000 -0.068387 318.000000 -0.000502 13.000000 0.015959 78.000000 0.057528 108.000000 -0.030184
139649.000000 0.431397 329.000000 278.000000 192.000000 -0.001424 235.000000 0.176836 256.000000 -0.027425 267.000000 0.001556 10.000000 -0.006832 60.000000 0.027791 68.000000 0.017526
139927.000000 0.445163 278.000000 294.000000 220.000000 0.006057 251.000000 0.192829 272.000000 -0.029242 282.000000 0.016227 13.000000 -0.006841 76.000000 0.038017 114.000000 -0.060467
140508.000000 0.449611 287.000000 283.000000 208.000000 -0.007412 240.000000 0.196034 262.000000 0.000111 272.000000 0.010675 10.000000 0.015314 71.000000 0.027348 94.000000 -0.074470
140791.000000 0.415424 283.000000 286.000000 209.000000 -0.017728 243.000000 0.171724 260.000000 -0.028574 275.000000 0.014608 15.000000 -0.020596 64.000000 0.027975 70.000000 0.022192
141077.000000 0.378556 286.000000 257.000000 176.000000 -0.004440 210.000000 0.212693 233.000000 -0.007635 243.000000 -0.010375 10.000000 -0.002150 72.000000 0.034322 99.000000 -0.080726
141667.000000 0.417267 333.000000 309.000000 234.000000 -0.023639 263.000000 0.152409 289.000000 -0.045868 299.000000 -0.004850 12.000000 -0.001369 77.000000 0.028980 127.000000 -0.090763
142257.000000 0.455410 281.000000 317.000000 186.000000 -0.022950 272.000000 0.121063 290.000000 0.004588 307.000000 0.029540 10.000000 0.012149 74.000000 0.057128 186.000000 -0.022950
142574.000000 0.442456 317.000000 294.000000 197.000000 -0.030941 250.000000 0.136667 275.000000 -0.046765 284.000000 -0.029651 11.000000 0.010983 51.000000 0.054472 66.000000 0.014299
143431.000000 0.498014 298.000000 299.000000 214.000000 -0.015259 255.000000 0.157566 277.000000 -0.034391 287.000000 0.009794 10.000000 0.060898 82.000000 0.087068 174.000000 -0.062543
144048.000000 0.491420 318.000000 281.000000 201.000000 -0.014076 233.000000 0.205470 253.000000 -0.031740 269.000000 0.003310 12.000000 0.013332 64.000000 0.038179 75.000000 0.031628
144933.000000 0.378522 286.000000 283.000000 210.000000 0.019991 242.000000 0.227388 258.000000 0.006163 265.000000 0.008294 10.000000 -0.036540 164.000000 0.022481 185.000000 -0.022627
145216.000000 0.585233 283.000000 275.000000 194.000000 -0.018451 230.000000 0.220015 248.000000 -0.013418 262.000000 -0.021601 12.000000 0.020935 79.000000 0.032362 120.000000 -0.066583
145491.000000 0.563493 275.000000 319.000000 236.000000 -0.003440 272.000000 0.094505 294.000000 -0.034682 305.000000 -0.030468 9.000000 0.006784 68.000000 0.094285 107.000000 -0.066213
145810.000000 0.388779 319.000000 293.000000 193.000000 -0.017621 246.000000 0.262501 265.000000 0.023912 280.000000 0.021703 9.000000 -0.029576 61.000000 0.005937 167.000000 -0.044530
146103.000000 0.646281 293.000000 299.000000 202.000000 -0.023722 253.000000 0.246562 276.000000 -0.013720 286.000000 -0.006461 10.000000 0.028758 79.000000 0.032866 133.000000 -0.037591
146402.000000 0.601707 299.000000 313.000000 248.000000 0.018416 271.000000 0.129250 293.000000 -0.046393 301.000000 -0.005939 12.000000 -0.025894 69.000000 0.040053 76.000000 0.027670
146715.000000 0.528638 313.000000 279.000000 195.000000 0.009221 235.000000 0.254032 257.000000 -0.019685 266.000000 0.029043 11.000000 -0.032380 163.000000 -0.018289 185.000000 -0.013335
146994.000000 0.610156 279.000000 293.000000 215.000000 0.001401 250.000000 0.217810 271.000000 -0.034570 281.000000 0.008658 9.000000 0.024169 77.000000 0.045477 109.000000 -0.068831
147287.000000 0.702670 293.000000 304.000000 232.000000 -0.005359 263.000000 0.128072 279.000000 -0.028402 291.000000 0.001081 13.000000 -0.027987 65.000000 0.079209 73.000000 0.048189
148160.000000 0.744094 298.000000 327.000000 244.000000 -0.025171 283.000000 0.119515 310.000000 -0.007540 316.000000 -0.006427 11.000000 -0.029763 86.000000 0.069466 144.000000 -0.060017
148787.000000 0.917493 300.000000 274.000000 207.000000 -0.021112 228.000000 0.252934 249.000000 -0.061502 259.000000 -0.037396 13.000000 -0.064404 59.000000 0.011256 72.000000 -0.001094
149371.000000 0.719371 310.000000 282.000000 206.000000 -0.018431 237.000000 0.275425 254.000000 -0.014998 268.000000 0.003218 12.000000 -0.028984 45.000000 0.013100 60.000000 -0.022022
149653.000000 0.986072 282.000000 260.000000 189.000000 0.003734 219.000000 0.270910 236.000000 -0.042023 246.000000 -0.028106 11.000000 -0.038974 56.000000 0.028188 65.000000 0.009725
150242.000000 0.810657 329.000000 284.000000 195.000000 -0.024608 235.000000 0.245970 257.000000 -0.051630 269.000000 -0.032568 10.000000 -0.025799 55.000000 0.049563 61.000000 0.047306
151425.000000 0.909285 292.000000 289.000000 207.000000 -0.060088 245.000000 0.211163 263.000000 -0.065953 274.000000 -0.044495 13.000000 -0.014914 78.000000 0.041498 162.000000 -0.028776
153251.000000 0.878675 303.000000 309.000000 225.000000 0.009731 262.000000 0.130075 281.000000 -0.045443 299.000000 0.006751 12.000000 -0.021827 76.000000 0.048435 179.000000 0.008556
153560.000000 0.747958 309.000000 306.000000 232.000000 0.016562 262.000000 0.151138 284.000000 -0.053499 293.000000 -0.057903 11.000000 0.004323 43.000000 0.055547 56.000000 0.023746
154174.000000 1.012838 308.000000 308.000000 242.000000 0.045354 263.000000 0.148675 279.000000 -0.023503 293.000000 0.015791 13.000000 -0.010342 41.000000 0.057904 64.000000 0.020412
154789.000000 0.676831 307.000000 320.000000 229.000000 0.032698 272.000000 0.283670 294.000000 -0.067003 305.000000 -0.056000 10.000000 -0.018592 46.000000 0.076519 68.000000 -0.020626
155109.000000 0.968203 320.000000 275.000000 199.000000 -0.016268 227.000000 0.276002 249.000000 -0.059782 260.000000 -0.059218 14.000000 -0.086154 77.000000 0.034408 138.000000 -0.023413
155718.000000 0.848370 334.000000 323.000000 241.000000 0.009006 278.000000 0.154334 289.000000 0.065416 312.000000 0.009160 9.000000 0.007727 81.000000 0.065459 207.000000 0.012433
156041.000000 0.622247 323.000000 299.000000 217.000000 0.015314 256.000000 0.168978 272.000000 -0.005977 287.000000 0.038916 10.000000 0.015254 34.000000 0.039167 41.000000 0.012036
156340.000000 1.017223 299.000000 319.000000 246.000000 -0.006645 274.000000 0.139029 297.000000 -0.020375 307.000000 0.007965 11.000000 0.032208 58.000000 0.038181 66.000000 0.001316
157606.000000 0.889559 302.000000 292.000000 209.000000 -0.018042 246.000000 0.241034 264.000000 -0.053699 278.000000 -0.043246 12.000000 -0.035162 70.000000 0.074658 91.000000 -0.038523
158457.000000 0.812678 264.000000 321.000000 241.000000 -0.031960 275.000000 0.110909 295.000000 -0.066191 308.000000 -0.044075 10.000000 -0.006038 70.000000 0.038129 96.000000 -0.057954
158778.000000 0.651159 321.000000 336.000000 251.000000 -0.024399 289.000000 0.096932 301.000000 0.045066 322.000000 -0.009669 11.000000 -0.043655 72.000000 0.042596 168.000000 0.027071
161179.000000 0.748134 287.000000 337.000000 263.000000 0.031989 293.000000 0.289230 316.000000 -0.040939 323.000000 -0.001785 14.000000 -0.037900 198.000000 0.007305 227.000000 0.002568
161516.000000 1.021680 337.000000 274.000000 201.000000 -0.028302 229.000000 0.299266 248.000000 -0.064829 262.000000 -0.018420 13.000000 -0.048870 84.000000 0.018554 134.000000 -0.081959
161790.000000 0.875622 274.000000 315.000000 237.000000 -0.010170 272.000000 0.259848 293.000000 -0.081798 304.000000 -0.046346 11.000000 -0.046338 73.000000 0.044461 129.000000 -0.083184
162105.000000 0.703699 315.000000 274.000000 189.000000 -0.016880 231.000000 0.272898 248.000000 -0.034422 260.000000 -0.016414 11.000000 -0.026616 75.000000 0.007226 106.000000 -0.045920
162379.000000 1.005559 274.000000 287.000000 211.000000 -0.016669 246.000000 0.288333 270.000000 -0.004420 274.000000 -0.028417 14.000000 -0.022934 72.000000 0.081554 118.000000 -0.064697
162666.000000 0.899344 287.000000 284.000000 206.000000 -0.002802 236.000000 0.243641 258.000000 -0.048989 270.000000 -0.019601 9.000000 0.020363 31.000000 0.000784 39.000000 -0.019060
162950.000000 1.038203 284.000000 281.000000 194.000000 -0.026301 233.000000 0.277522 256.000000 -0.029512 269.000000 -0.024229 12.000000 -0.032815 71.000000 0.017542 107.000000 -0.059704
163231.000000 0.925240 281.000000 335.000000 260.000000 0.018577 289.000000 0.145675 315.000000 -0.014105 322.000000 0.003873 12.000000 -0.015731 72.000000 0.079145 81.000000 0.064662
163848.000000 0.887915 282.000000 279.000000 176.000000 0.052757 234.000000 0.253226 254.000000 -0.054405 263.000000 -0.045063 9.000000 -0.019451 73.000000 0.036095 102.000000 -0.051505
165029.000000 0.725679 298.000000 280.000000 207.000000 0.007995 236.000000 0.259124 259.000000 -0.008569 269.000000 -0.033036 13.000000 -0.000608 51.000000 0.063259 59.000000 0.023525
165309.000000 0.625961 280.000000 308.000000 230.000000 0.004953 262.000000 0.263639 285.000000 -0.050450 296.000000 -0.021782 12.000000 -0.026030 79.000000 0.015435 196.000000 -0.006085
165617.000000 0.942104 308.000000 289.000000 117.000000 -0.067855 241.000000 0.271583 261.000000 -0.037573 277.000000 -0.032466 11.000000 -0.023383 68.000000 0.024652 82.000000 0.013163
167086.000000 0.982787 259.000000 322.000000 252.000000 -0.031994 276.000000 0.179513 300.000000 -0.103652 310.000000 -0.051159 12.000000 -0.038765 74.000000 0.098512 113.000000 -0.085778
168052.000000 0.934162 358.000000 318.000000 206.000000 -0.008588 272.000000 0.104455 294.000000 -0.081578 306.000000 -0.022924 11.000000 -0.028206 74.000000 0.060415 180.000000 -0.036939
168370.000000 0.766026 318.000000 281.000000 205.000000 0.008609 236.000000 0.268966 253.000000 -0.017855 267.000000 -0.014925 11.000000 -0.025104 68.000000 0.078983 105.000000 -0.040079
168651.000000 0.775751 281.000000 296.000000 223.000000 -0.022151 251.000000 0.237599 280.000000 -0.009751 283.000000 -0.020880 11.000000 -0.024027 69.000000 0.029756 96.000000 -0.102390
168947.000000 0.929826 296.000000 263.000000 177.000000 -0.013063 218.000000 0.287989 240.000000 -0.059438 250.000000 -0.022131 13.000000 -0.008731 73.000000 0.027927 177.000000 -0.013063
169538.000000 0.638073 328.000000 287.000000 191.000000 0.027513 240.000000 0.262716 258.000000 -0.040059 272.000000 -0.040972 11.000000 0.007994 166.000000 0.025034 179.000000 0.013671
169825.000000 1.031846 287.000000 335.000000 250.000000 0.004670 287.000000 0.251189 309.000000 -0.038532 321.000000 0.001719 14.000000 -0.065020 77.000000 0.013733 128.000000 -0.097690
170453.000000 0.669375 293.000000 293.000000 213.000000 0.007648 247.000000 0.282619 270.000000 -0.023180 280.000000 -0.015611 11.000000 -0.021658 163.000000 0.005511 183.000000 -0.015019
170746.000000 0.961127 293.000000 290.000000 224.000000 0.026791 243.000000 0.297793 268.000000 -0.056438 278.000000 0.009454 14.000000 -0.036239 80.000000 0.041083 121.000000 -0.080592
171036.000000 0.915582 290.000000 309.000000 239.000000 0.029346 265.000000 0.139608 288.000000 -0.027524 297.000000 -0.022649 12.000000 -0.032742 72.000000 0.057603 94.000000 -0.045470
171610.000000 0.948586 265.000000 310.000000 227.000000 -0.029348 265.000000 0.269056 288.000000 -0.035191 299.000000 -0.040895 11.000000 -0.029800 74.000000 0.075470 81.000000 0.071474
171920.000000 0.732617 310.000000 313.000000 232.000000 0.078649 267.000000 0.282068 294.000000 -0.034295 301.000000 -0.016724 11.000000 -0.035563 184.000000 0.025626 208.000000 0.060623
172830.000000 0.635832 324.000000 270.000000 196.000000 -0.001076 227.000000 0.254987 244.000000 -0.044544 257.000000 -0.021833 10.000000 -0.022460 77.000000 0.052197 117.000000 -0.073884
173100.000000 0.888320 270.000000 307.000000 225.000000 -0.028459 264.000000 0.261572 284.000000 -0.037658 296.000000 -0.001702 13.000000 -0.056808 71.000000 0.050382 79.000000 0.032763
173683.000000 0.818229 276.000000 274.000000 196.000000 0.022223 226.000000 0.287397 249.000000 -0.040985 260.000000 -0.014854 12.000000 0.004579 46.000000 0.036022 59.000000 0.031398
174294.000000 0.736921 337.000000 294.000000 182.000000 -0.106051 245.000000 0.304811 268.000000 -0.034326 282.000000 0.001772 12.000000 0.029130 53.000000 0.052239 78.000000 0.037428
174858.000000 0.951845 270.000000 298.000000 223.000000 -0.004129 253.000000 0.228204 271.000000 -0.050577 284.000000 -0.045578 13.000000 -0.036462 77.000000 0.081886 118.000000 -0.077654
175438.000000 0.921355 282.000000 255.000000 188.000000 -0.004043 211.000000 0.276728 233.000000 -0.063615 243.000000 -0.021593 9.000000 -0.009695 67.000000 0.016947 75.000000 0.005050
175693.000000 0.903926 255.000000 315.000000 232.000000 -0.018370 268.000000 0.114296 291.000000 -0.035280 306.000000 -0.038291 13.000000 -0.051417 71.000000 0.079422 78.000000 0.056177
176008.000000 0.722587 315.000000 288.000000 195.000000 -0.025550 242.000000 0.298542 263.000000 -0.052368 275.000000 -0.022367 10.000000 -0.037336 37.000000 0.040845 45.000000 0.004547
176880.000000 0.657116 287.000000 272.000000 191.000000 0.013043 226.000000 0.299015 244.000000 -0.011286 257.000000 -0.001756 13.000000 -0.086915 77.000000 -0.002100 105.000000 -0.088747
177444.000000 0.844885 292.000000 260.000000 185.000000 -0.040202 216.000000 0.240363 236.000000 -0.061129 248.000000 -0.020772 13.000000 -0.049645 77.000000 0.073994 110.000000 -0.099892
177985.000000 0.737051 281.000000 286.000000 205.000000 -0.052994 238.000000 0.254529 259.000000 -0.064641 273.000000 -0.021427 15.000000 -0.020454 70.000000 0.047872 109.000000 -0.089352
179161.000000 0.590162 290.000000 273.000000 187.000000 0.010661 225.000000 0.293671 248.000000 -0.030343 259.000000 -0.026032 11.000000 -0.065875 64.000000 0.006176 67.000000 -0.033432
179434.000000 0.850881 273.000000 310.000000 230.000000 -0.001912 269.000000 0.192603 287.000000 -0.055046 298.000000 -0.023633 11.000000 -0.020985 79.000000 0.068001 146.000000 -0.027152
179744.000000 0.693501 310.000000 269.000000 187.000000 -0.045067 224.000000 0.202038 242.000000 -0.068935 256.000000 -0.084046 9.000000 -0.004868 69.000000 0.078111 81.000000 0.063361
180277.000000 0.757502 264.000000 341.000000 228.000000 -0.041535 293.000000 0.170404 315.000000 -0.031068 326.000000 0.011317 13.000000 -0.034741 77.000000 0.061320 85.000000 0.037465
180904.000000 0.591990 286.000000 301.000000 218.000000 0.047456 259.000000 0.284857 279.000000 -0.024610 286.000000 -0.016520 9.000000 -0.058667 175.000000 0.017050 195.000000 -0.001997
181205.000000 0.810505 301.000000 266.000000 194.000000 -0.037096 222.000000 0.236681 243.000000 -0.054120 254.000000 -0.023586 10.000000 -0.025857 66.000000 0.053768 121.000000 -0.103618
181790.000000 0.473979 319.000000 263.000000 194.000000 0.033478 220.000000 0.247822 249.000000 0.018875 252.000000 0.007135 10.000000 -0.042997 63.000000 0.020395 70.000000 -0.005780
182053.000000 0.705804 263.000000 282.000000 193.000000 -0.022945 239.000000 0.220219 260.000000 -0.033890 270.000000 -0.012371 11.000000 -0.001077 69.000000 0.054548 100.000000 -0.059279
182644.000000 0.489186 309.000000 299.000000 215.000000 0.003674 253.000000 0.258312 276.000000 0.002022 287.000000 0.020753 10.000000 -0.059074 73.000000 -0.006115 116.000000 -0.121302
182943.000000 0.679076 299.000000 272.000000 199.000000 -0.022756 224.000000 0.220942 250.000000 -0.051320 259.000000 0.000465 10.000000 0.004250 49.000000 0.026399 56.000000 0.019237
184095.000000 0.629312 282.000000 283.000000 211.000000 -0.012696 242.000000 0.159940 259.000000 -0.048303 272.000000 -0.032221 13.000000 0.001224 74.000000 0.080602 124.000000 -0.032658
184378.000000 0.400786 283.000000 282.000000 211.000000 0.002679 240.000000 0.201612 258.000000 0.001047 267.000000 -0.007275 11.000000 -0.042160 54.000000 -0.009059 60.000000 -0.015424
184660.000000 0.629324 282.000000 276.000000 193.000000 -0.006275 228.000000 0.212080 249.000000 -0.041898 265.000000 0.006269 15.000000 -0.008466 60.000000 0.044358 61.000000 0.038527
184936.000000 0.508228 276.000000 330.000000 240.000000 0.004257 283.000000 0.070229 305.000000 -0.047563 318.000000 -0.012141 10.000000 -0.000672 79.000000 0.072323 87.000000 0.029329
185541.000000 0.547789 275.000000 300.000000 213.000000 -0.016995 254.000000 0.185276 276.000000 -0.053518 287.000000 -0.018628 12.000000 -0.002229 73.000000 0.056432 81.000000 0.044898
185841.000000 0.526481 300.000000 285.000000 211.000000 -0.000413 241.000000 0.187641 263.000000 -0.048347 274.000000 -0.034662 9.000000 0.015117 61.000000 0.057607 108.000000 -0.068440
186386.000000 0.589135 260.000000 288.000000 206.000000 -0.015771 243.000000 0.177227 265.000000 -0.033214 275.000000 -0.029077 12.000000 -0.005785 68.000000 0.037423 111.000000 -0.059600
187283.000000 0.475989 307.000000 276.000000 194.000000 -0.039181 233.000000 0.208010 261.000000 -0.013857 263.000000 0.001159 12.000000 0.020000 47.000000 0.027787 65.000000 0.019748
187559.000000 0.545137 276.000000 315.000000 242.000000 0.008430 275.000000 0.181929 293.000000 -0.025672 302.000000 -0.029810 14.000000 -0.032248 71.000000 0.064288 98.000000 -0.053596
187874.000000 0.396146 315.000000 275.000000 193.000000 -0.004313 230.000000 0.212837 250.000000 -0.031239 262.000000 0.002852 11.000000 -0.038103 74.000000 -0.001758 96.000000 -0.084722
188149.000000 0.531349 275.000000 281.000000 199.000000 -0.005871 237.000000 0.206923 259.000000 -0.042448 270.000000 -0.005690 11.000000 -0.000078 75.000000 0.038632 93.000000 -0.043091
188430.000000 0.474971 281.000000 294.000000 180.000000 -0.049988 250.000000 0.194950 272.000000 -0.021022 282.000000 0.002474 9.000000 -0.004103 70.000000 0.030946 129.000000 -0.049249
189323.000000 0.484060 326.000000 283.000000 203.000000 0.008027 240.000000 0.179780 264.000000 -0.012053 273.000000 -0.023870 10.000000 -0.015157 76.000000 0.038276 103.000000 -0.043041
189606.000000 0.402854 283.000000 286.000000 176.000000 -0.038171 243.000000 0.202802 258.000000 -0.007745 272.000000 0.025202 12.000000 -0.036706 76.000000 0.069990 159.000000 -0.027009
190188.000000 0.438596 296.000000 293.000000 197.000000 -0.011436 249.000000 0.216450 268.000000 -0.006042 281.000000 0.023644 14.000000 -0.063865 76.000000 0.016914 110.000000 -0.092635
190481.000000 0.598159 293.000000 258.000000 174.000000 -0.023335 215.000000 0.221052 232.000000 -0.039580 243.000000 -0.036368 14.000000 -0.023486 77.000000 0.015365 127.000000 -0.055843
190739.000000 0.546594 258.000000 315.000000 244.000000 -0.033063 270.000000 0.084085 291.000000 -0.054831 301.000000 -0.030442 14.000000 -0.056431 71.000000 0.116235 100.000000 0.001711
191381.000000 0.609075 327.000000 314.000000 218.000000 -0.005847 263.000000 0.136111 289.000000 -0.039402 300.000000 0.012072 13.000000 -0.004910 76.000000 0.061410 86.000000 0.018056
192000.000000 0.551628 305.000000 163.000000 37.000000 0.030954 99.000000 0.059247 128.000000 -0.097226 145.000000 -0.082242 3.000000 0.357615 94.000000 0.120408 128.000000 -0.097226
192163.000000 0.877491 163.000000 382.000000 317.000000 -0.020394 340.000000 0.074245 366.000000 0.008354 369.000000 0.034607 19.000000 -0.021993 183.000000 0.053940 190.000000 0.010663
192545.000000 0.694655 382.000000 242.000000 144.000000 -0.081041 197.000000 0.071201 214.000000 -0.051461 230.000000 -0.026695 10.000000 0.028824 71.000000 0.131665 75.000000 0.104314
193204.000000 0.645334 417.000000 360.000000 270.000000 0.021740 317.000000 0.149484 333.000000 -0.062618 349.000000 -0.016365 15.000000 -0.021499 77.000000 0.084154 84.000000 0.063980
193564.000000 0.415610 360.000000 173.000000 96.000000 0.055268 150.000000 -0.009765 160.000000 0.003917 161.000000 0.019262 10.000000 -0.060125 96.000000 0.055268 145.000000 -0.050187
193737.000000 0.982631 173.000000 398.000000 311.000000 -0.044231 355.000000 0.103779 370.000000 -0.050797 382.000000 -0.002457 13.000000 0.065092 24.000000 0.055405 27.000000 0.042725
194304.000000 0.500552 169.000000 349.000000 262.000000 -0.047554 303.000000 0.104027 321.000000 -0.014937 338.000000 0.029935 11.000000 0.052575 57.000000 0.059157 68.000000 0.039176
195713.000000 0.797102 358.000000 169.000000 62.000000 -0.027285 102.000000 -0.004576 133.000000 -0.176161 154.000000 -0.038230 13.000000 -0.028869 89.000000 0.073982 133.000000 -0.176161
196084.000000 0.719024 202.000000 172.000000 128.000000 -0.090228 150.000000 -0.031011 153.000000 -0.047281 160.000000 -0.051106 10.000000 0.059322 65.000000 0.136881 84.000000 0.030426
196256.000000 0.561871 172.000000 187.000000 138.000000 -0.133636 163.000000 -0.074108 175.000000 -0.001067 176.000000 -0.005126 9.000000 0.090992 67.000000 0.089671 95.000000 -0.033494
196443.000000 0.567978 187.000000 186.000000 118.000000 -0.219971 163.000000 -0.005986 171.000000 -0.011942 172.000000 -0.002569 12.000000 0.072052 73.000000 0.100373 113.000000 -0.205975
196629.000000 0.616618 186.000000 193.000000 121.000000 -0.191599 162.000000 0.063558 166.000000 0.026519 177.000000 0.012036 12.000000 0.016195 60.000000 0.204722 121.000000 -0.191599
197353.000000 0.744388 380.000000 397.000000 351.000000 -0.013855 374.000000 0.117275 376.000000 0.105128 383.000000 0.097966 12.000000 -0.011271 80.000000 0.189350 130.000000 -0.100382
197750.000000 0.878343 397.000000 405.000000 256.000000 -0.023237 289.000000 0.019661 324.000000 -0.004042 391.000000 0.026880 11.000000 0.025492 49.000000 0.117352 57.000000 0.073277
198914.000000 1.102587 375.000000 372.000000 313.000000 -0.009847 341.000000 0.021688 347.000000 -0.007182 358.000000 0.042961 14.000000 -0.081394 200.000000 0.059197 264.000000 0.000139
199286.000000 1.099044 372.000000 351.000000 249.000000 0.025530 307.000000 0.178246 330.000000 -0.065060 338.000000 -0.056330 11.000000 0.051332 49.000000 0.019371 109.000000 -0.191460
199946.000000 0.971942 309.000000 298.000000 231.000000 -0.005768 252.000000 0.271392 281.000000 -0.044831 286.000000 -0.009689 12.000000 -0.041161 78.000000 0.094173 108.000000 -0.000105
200244.000000 0.666581 298.000000 311.000000 223.000000 -0.022903 267.000000 0.238147 285.000000 -0.024312 299.000000 -0.011785 10.000000 0.000109 32.000000 -0.009642 51.000000 -0.038311
201386.000000 0.643193 265.000000 166.000000 49.000000 0.068085 102.000000 0.089859 129.000000 -0.110705 150.000000 -0.037429 10.000000 0.042740 60.000000 0.077773 88.000000 -0.006145
201552.000000 0.775830 166.000000 429.000000 344.000000 -0.014378 382.000000 0.174685 402.000000 -0.066379 415.000000 -0.007477 11.000000 -0.031099 68.000000 0.082237 105.000000 -0.023939
201981.000000 0.996220 429.000000 368.000000 283.000000 -0.024842 323.000000 0.061238 343.000000 -0.174483 357.000000 -0.146426 13.000000 -0.015410 95.000000 0.100215 151.000000 -0.015139
203016.000000 0.812851 316.000000 314.000000 224.000000 0.004815 272.000000 0.183296 289.000000 -0.054151 301.000000 -0.014684 10.000000 -0.022948 74.000000 0.032887 83.000000 -0.002301
203871.000000 0.718154 282.000000 262.000000 188.000000 0.007701 215.000000 0.299064 237.000000 -0.078603 247.000000 -0.065439 13.000000 0.038637 41.000000 0.069497 47.000000 0.061848
204133.000000 0.947646 262.000000 494.000000 415.000000 -0.030730 445.000000 0.183672 465.000000 -0.062768 482.000000 -0.000841 12.000000 -0.035570 254.000000 0.074441 288.000000 0.016073
204820.000000 0.554801 193.000000 382.000000 296.000000 -0.009260 339.000000 0.082449 352.000000 -0.029418 369.000000 -0.011628 12.000000 0.028452 59.000000 0.110193 105.000000 -0.064775
205202.000000 0.679470 382.000000 163.000000 46.000000 0.028655 98.000000 -0.030072 137.000000 -0.120183 148.000000 -0.104040 10.000000 -0.024011 84.000000 0.131042 108.000000 -0.143457
205866.000000 0.974871 166.000000 193.000000 133.000000 -0.069655 172.000000 0.069717 174.000000 0.065392 181.000000 0.078306 14.000000 0.091015 21.000000 0.087755 49.000000 -0.059110
206059.000000 0.969480 193.000000 165.000000 114.000000 -0.088339 140.000000 -0.052397 144.000000 -0.079951 151.000000 -0.050735 11.000000 0.000217 61.000000 0.162145 114.000000 -0.088339
206697.000000 1.025315 170.000000 295.000000 173.000000 0.021008 251.000000 0.068167 271.000000 0.038763 283.000000 0.032792 10.000000 0.096210 122.000000 1.005161 156.000000 0.010177
207793.000000 0.848915 175.000000 181.000000 132.000000 -0.016065 150.000000 0.025345 159.000000 -0.001944 168.000000 0.015189 14.000000 -0.201651 60.000000 0.162707 65.000000 0.124792
207974.000000 0.859985 181.000000 184.000000 127.000000 -0.024576 150.000000 0.016457 157.000000 -0.022979 171.000000 -0.048559 14.000000 -0.234310 61.000000 0.192459 118.000000 0.000047
208511.000000 0.629888 165.000000 200.000000 103.000000 -0.303652 145.000000 0.028480 150.000000 -0.020673 187.000000 -0.213963 13.000000 -0.195502 62.000000 0.143918 127.000000 -0.007666
208905.000000 1.018566 194.000000 184.000000 101.000000 -0.000592 136.000000 -0.027822 154.000000 -0.080362 166.000000 -0.064017 13.000000 0.068707 59.000000 0.118424 101.000000 -0.000592
209614.000000 0.724810 194.000000 159.000000 61.000000 0.170094 136.000000 0.017319 139.000000 0.007115 146.000000 0.036769 19.000000 -0.175300 64.000000 0.189373 124.000000 0.005203
209773.000000 0.825531 159.000000 165.000000 65.000000 0.162678 144.000000 0.067147 143.000000 0.051755 150.000000 0.043713 10.000000 -0.022760 67.000000 0.172788 139.000000 0.045345
209938.000000 0.777773 165.000000 177.000000 62.000000 0.204026 147.000000 0.040438 153.000000 0.013635 164.000000 0.023713 12.000000 0.036926 63.000000 0.229810 151.000000 -0.016913
210115.000000 0.709230 177.000000 341.000000 262.000000 -0.053869 294.000000 0.074106 316.000000 -0.066473 329.000000 -0.032760 10.000000 -0.009389 66.000000 0.120799 115.000000 -0.047320
210456.000000 0.770389 341.000000 397.000000 326.000000 -0.031441 367.000000 0.025281 376.000000 0.009151 383.000000 0.032708 10.000000 0.008711 73.000000 0.167452 76.000000 0.131981
212164.000000 0.980675 452.000000 363.000000 275.000000 -0.050168 321.000000 0.174892 343.000000 -0.056268 351.000000 -0.018383 11.000000 -0.067931 184.000000 0.045249 198.000000 0.019657
212851.000000 0.913885 324.000000 373.000000 279.000000 -0.008573 326.000000 0.107775 352.000000 -0.041800 360.000000 0.040362 13.000000 -0.027652 66.000000 0.058763 71.000000 0.036741
213224.000000 0.908639 373.000000 305.000000 214.000000 -0.025062 258.000000 0.113841 277.000000 -0.076944 292.000000 -0.009235 12.000000 -0.028477 83.000000 0.040997 120.000000 -0.028188
213824.000000 0.672540 295.000000 299.000000 209.000000 0.002663 257.000000 0.173241 274.000000 -0.022478 285.000000 0.003245 12.000000 0.028559 59.000000 0.073950 131.000000 -0.100954
214123.000000 0.888011 299.000000 299.000000 193.000000 -0.010172 254.000000 0.122253 272.000000 -0.061883 288.000000 0.013572 12.000000 0.023467 60.000000 0.073844 75.000000 0.020473
215292.000000 0.797387 283.000000 327.000000 248.000000 0.007961 282.000000 0.148588 306.000000 -0.034046 315.000000 -0.042806 11.000000 -0.065640 85.000000 0.051192 131.000000 -0.040471
216212.000000 0.852980 312.000000 274.000000 195.000000 -0.020962 228.000000 0.272842 249.000000 -0.108195 260.000000 -0.113258 10.000000 0.034859 23.000000 0.060783 27.000000 0.014544
217692.000000 0.951634 311.000000 280.000000 210.000000 0.024914 235.000000 0.311229 253.000000 -0.018739 267.000000 -0.017076 12.000000 -0.007567 31.000000 0.024642 38.000000 0.000113
217972.000000 0.820242 280.000000 312.000000 223.000000 -0.000681 269.000000 0.120490 289.000000 -0.040595 300.000000 -0.025971 10.000000 -0.037392 75.000000 0.058047 107.000000 -0.061893
218284.000000 0.608950 312.000000 296.000000 223.000000 -0.043058 254.000000 0.189577 275.000000 -0.049577 284.000000 0.004090 11.000000 -0.002179 26.000000 0.038967 37.000000 0.015911
218580.000000 0.795625 296.000000 265.000000 187.000000 0.024733 222.000000 0.234058 239.000000 -0.054970 250.000000 -0.035893 13.000000 0.011847 48.000000 0.042709 75.000000 -0.004723
220227.000000 1.088370 157.000000 388.000000 291.000000 -0.028855 340.000000 0.125580 358.000000 -0.019547 375.000000 0.063383 11.000000 0.028260 27.000000 0.016142 35.000000 -0.012086
221836.000000 0.869926 341.000000 172.000000 73.000000 0.015845 104.000000 0.076221 140.000000 -0.050519 164.000000 -0.029831 13.000000 -0.002426 92.000000 0.170360 140.000000 -0.050519
222008.000000 1.025843 172.000000 386.000000 274.000000 -0.094993 340.000000 0.137094 354.000000 0.004460 371.000000 0.085824 11.000000 0.079902 28.000000 0.019823 41.000000 -0.002105
222793.000000 0.967237 399.000000 164.000000 48.000000 -0.004151 101.000000 -0.014290 132.000000 -0.099557 152.000000 -0.065172 13.000000 -0.042118 89.000000 0.120239 117.000000 -0.163036
223335.000000 1.113100 378.000000 179.000000 68.000000 0.029996 108.000000 0.005829 148.000000 -0.068670 168.000000 -0.036347 12.000000 0.021314 105.000000 0.076002 148.000000 -0.068670
223514.000000 0.805631 179.000000 412.000000 339.000000 0.010138 365.000000 0.105668 391.000000 -0.041370 400.000000 -0.005616 13.000000 0.008251 69.000000 0.096640 123.000000 -0.044474
223926.000000 0.792254 412.000000 189.000000 93.000000 0.081615 167.000000 -0.084497 165.000000 -0.118276 172.000000 -0.091441 13.000000 -0.015725 94.000000 0.081850 162.000000 -0.113824
224115.000000 0.692788 189.000000 346.000000 271.000000 -0.010405 302.000000 0.075660 319.000000 -0.056785 330.000000 -0.035861 11.000000 0.033319 68.000000 0.072084 144.000000 -0.000209
224627.000000 0.844094 166.000000 378.000000 314.000000 -0.059622 336.000000 0.044531 362.000000 -0.082759 370.000000 -0.085454 10.000000 0.075864 36.000000 0.063715 51.000000 0.015471
225363.000000 0.848688 186.000000 214.000000 129.000000 -0.031095 165.000000 0.055800 180.000000 -0.034513 198.000000 -0.026913 11.000000 0.008622 56.000000 0.116367 102.000000 -0.108903
225738.000000 0.680974 161.000000 168.000000 115.000000 -0.089874 143.000000 -0.039875 146.000000 -0.066396 155.000000 -0.036725 16.000000 -0.026314 35.000000 0.050818 48.000000 0.030081
225906.000000 0.683934 168.000000 157.000000 103.000000 -0.153760 131.000000 0.031100 135.000000 -0.017898 146.000000 -0.063588 12.000000 -0.034061 59.000000 0.084031 94.000000 -0.153430
226063.000000 0.814405 157.000000 139.000000 63.000000 0.110577 118.000000 -0.011570 120.000000 -0.012762 127.000000 -0.040504 12.000000 0.022445 64.000000 0.115624 115.000000 -0.079721
226202.000000 0.850499 139.000000 214.000000 55.000000 0.129040 141.000000 -0.007935 166.000000 -0.065551 200.000000 -0.001898 9.000000 0.096377 56.000000 0.132034 139.000000 -0.023248
226416.000000 0.749779 214.000000 200.000000 137.000000 0.003810 161.000000 0.025739 170.000000 -0.012616 185.000000 -0.100419 11.000000 0.141737 71.000000 0.111501 137.000000 0.003810
226616.000000 0.434077 200.000000 147.000000 57.000000 0.110864 95.000000 0.068181 121.000000 -0.047632 133.000000 -0.052883 9.000000 0.078513 51.000000 0.137681 58.000000 0.106225
226931.000000 0.798060 168.000000 172.000000 71.000000 0.133075 150.000000 0.054169 152.000000 0.032899 159.000000 0.054436 10.000000 0.013577 49.000000 0.175708 66.000000 0.165082
227103.000000 0.787838 172.000000 201.000000 130.000000 -0.299973 164.000000 0.090828 173.000000 0.050311 191.000000 0.041125 12.000000 0.021677 62.000000 0.201990 130.000000 -0.299973
227304.000000 0.627113 201.000000 183.000000 120.000000 -0.042441 137.000000 0.000739 152.000000 -0.061078 170.000000 -0.183664 14.000000 -0.152729 47.000000 0.176598 95.000000 -0.242114
227487.000000 0.505771 183.000000 158.000000 103.000000 -0.103291 134.000000 -0.034496 138.000000 -0.076455 145.000000 -0.055719 16.000000 0.028905 43.000000 0.105205 105.000000 -0.103306
228036.000000 0.799734 187.000000 253.000000 82.000000 0.141314 185.000000 0.056786 196.000000 0.044951 237.000000 -0.138041 12.000000 0.105299 78.000000 0.157269 123.000000 -0.114030
228523.000000 0.613512 234.000000 210.000000 149.000000 -0.017591 172.000000 0.039148 185.000000 0.003191 199.000000 -0.026935 13.000000 0.039659 63.000000 0.180508 66.000000 0.132875
229035.000000 0.613481 302.000000 179.000000 66.000000 0.142960 147.000000 -0.021407 164.000000 -0.043618 167.000000 -0.064981 10.000000 0.051473 67.000000 0.173117 150.000000 -0.035906
229600.000000 0.415643 193.000000 286.000000 213.000000 -0.007495 265.000000 0.055637 272.000000 0.056155 273.000000 0.046845 10.000000 0.073246 55.000000 0.152497 81.000000 -0.117612
230293.000000 0.549237 407.000000 391.000000 309.000000 -0.001446 369.000000 0.053168 372.000000 0.044563 381.000000 0.083920 15.000000 0.009048 81.000000 0.062694 125.000000 -0.042278
230684.000000 0.528371 391.000000 415.000000 348.000000 -0.049797 391.000000 0.063316 392.000000 0.062783 399.000000 0.063800 12.000000 0.028559 50.000000 0.059608 79.000000 0.046034
231099.000000 0.504617 415.000000 415.000000 358.000000 -0.021733 379.000000 0.021604 392.000000 0.009533 403.000000 -0.049026 12.000000 0.092017 49.000000 0.113165 68.000000 0.066710
231514.000000 0.637461 415.000000 383.000000 205.000000 -0.013565 246.000000 -0.005980 261.000000 -0.038537 370.000000 -0.032931 11.000000 0.103556 66.000000 0.086842 106.000000 -0.089441
231897.000000 0.456156 383.000000 389.000000 213.000000 0.036404 253.000000 0.042562 276.000000 0.018844 375.000000 0.049174 9.000000 0.026049 199.000000 0.078896 213.000000 0.036404
232286.000000 0.653595 389.000000 390.000000 333.000000 -0.008681 368.000000 0.067023 380.000000 0.129718 380.000000 0.129718 15.000000 -0.021688 62.000000 0.035411 73.000000 0.015240
232676.000000 0.495158 390.000000 367.000000 319.000000 0.031866 344.000000 0.100097 352.000000 0.215518 354.000000 0.265565 11.000000 -0.000703 200.000000 0.062243 216.000000 0.029641
233043.000000 0.760766 367.000000 313.000000 222.000000 0.064187 269.000000 0.233076 289.000000 -0.010951 301.000000 0.014456 18.000000 0.015797 186.000000 0.035380 195.000000 -0.016643
233356.000000 0.476086 313.000000 288.000000 217.000000 -0.033994 245.000000 0.157697 267.000000 -0.090769 277.000000 -0.057713 11.000000 0.022606 41.000000 0.012437 117.000000 -0.085214
234185.000000 0.523420 268.000000 298.000000 218.000000 -0.012618 251.000000 0.170203 274.000000 -0.054782 287.000000 -0.049640 12.000000 0.004926 172.000000 0.013999 185.000000 0.008058
234782.000000 0.539154 299.000000 286.000000 218.000000 0.023281 241.000000 0.232168 261.000000 -0.030824 273.000000 -0.009867 13.000000 0.047256 67.000000 0.028238 73.000000 0.016641
235352.000000 0.394565 284.000000 278.000000 205.000000 0.054657 236.000000 0.271193 257.000000 0.021068 266.000000 0.054532 10.000000 -0.036548 163.000000 -0.006112 205.000000 0.054657
235630.000000 0.566492 278.000000 256.000000 135.000000 -0.056925 209.000000 0.228105 230.000000 -0.023131 243.000000 -0.002754 15.000000 0.012825 24.000000 0.023186 51.000000 -0.007112
237622.000000 0.544853 287.000000 294.000000 201.000000 -0.023008 250.000000 0.220599 273.000000 -0.052741 283.000000 -0.057364 13.000000 -0.051965 76.000000 0.059619 132.000000 -0.068411
237916.000000 0.361931 294.000000 275.000000 152.000000 -0.024267 232.000000 0.277302 252.000000 -0.022337 263.000000 0.036565 12.000000 -0.049590 154.000000 0.004400 232.000000 0.277302
238191.000000 0.614716 275.000000 271.000000 197.000000 0.020809 229.000000 0.239056 250.000000 -0.023557 259.000000 -0.001799 13.000000 -0.001805 66.000000 0.020450 77.000000 0.002111
238760.000000 0.415407 298.000000 301.000000 220.000000 0.034398 253.000000 0.249522 277.000000 0.000991 288.000000 0.030597 10.000000 -0.045737 173.000000 0.028281 180.000000 0.024269
239061.000000 0.569561 301.000000 289.000000 199.000000 -0.014411 244.000000 0.243946 263.000000 0.002172 277.000000 0.001204 13.000000 0.014920 47.000000 0.017681 54.000000 0.011913
239350.000000 0.529278 289.000000 311.000000 229.000000 0.002660 268.000000 0.162828 288.000000 -0.028142 299.000000 -0.014381 15.000000 -0.001879 70.000000 0.042937 81.000000 0.026323
239661.000000 0.423344 311.000000 287.000000 205.000000 -0.004821 239.000000 0.246026 259.000000 -0.009275 273.000000 -0.019058 12.000000 -0.033962 29.000000 0.002649 40.000000 -0.020019
240224.000000 0.668847 276.000000 280.000000 196.000000 -0.004633 239.000000 0.219644 256.000000 -0.056502 267.000000 -0.076988 14.000000 -0.002218 48.000000 0.039522 56.000000 0.002624
240504.000000 0.415442 280.000000 265.000000 176.000000 0.020628 217.000000 0.280598 238.000000 -0.014043 253.000000 0.038010 11.000000 -0.077771 158.000000 0.004262 176.000000 0.020628
241382.000000 0.497367 302.000000 269.000000 195.000000 0.017198 227.000000 0.279314 245.000000 -0.024495 255.000000 -0.017425 13.000000 -0.062930 41.000000 0.004203 54.000000 -0.002663
241651.000000 0.752671 269.000000 311.000000 232.000000 -0.030379 265.000000 0.192536 285.000000 -0.042420 299.000000 0.004100 10.000000 -0.025587 66.000000 0.045023 100.000000 -0.065751
242240.000000 0.776296 278.000000 254.000000 169.000000 -0.023282 209.000000 0.270730 232.000000 -0.027071 242.000000 -0.012602 14.000000 0.004261 47.000000 0.046708 55.000000 0.018292
242494.000000 0.700927 254.000000 303.000000 234.000000 -0.045114 262.000000 0.083038 283.000000 -0.063858 290.000000 -0.030253 12.000000 -0.026421 75.000000 0.041201 138.000000 -0.051183
242961.000000 1.202775 164.000000 391.000000 322.000000 -0.003626 346.000000 0.092002 362.000000 -0.042106 375.000000 0.003114 14.000000 0.005205 173.000000 0.054753 184.000000 0.049707
243527.000000 0.733323 175.000000 328.000000 248.000000 -0.003915 285.000000 0.114202 302.000000 -0.016078 316.000000 0.034016 10.000000 0.077349 32.000000 0.040009 50.000000 0.020558
244022.000000 0.905846 167.000000 366.000000 300.000000 -0.018978 323.000000 0.114394 345.000000 -0.024899 355.000000 0.041276 10.000000 0.050612 173.000000 0.048630 199.000000 0.032125
245127.000000 0.819377 166.000000 360.000000 290.000000 -0.041287 316.000000 0.105767 339.000000 -0.054688 349.000000 -0.025643 13.000000 0.031507 46.000000 0.029464 50.000000 -0.019236
247338.000000 0.780154 175.000000 391.000000 295.000000 -0.015575 344.000000 0.084961 354.000000 0.027406 375.000000 0.009897 15.000000 0.052175 25.000000 0.050169 28.000000 0.024495
248174.000000 0.981694 152.000000 393.000000 322.000000 -0.011571 347.000000 0.094212 368.000000 -0.069626 379.000000 -0.016960 10.000000 0.076897 184.000000 0.049002 201.000000 0.018644
248872.000000 0.777174 305.000000 163.000000 58.000000 -0.020848 100.000000 0.014421 128.000000 -0.102961 150.000000 -0.061378 12.000000 -0.050849 87.000000 0.121566 128.000000 -0.102961
249035.000000 0.894783 163.000000 369.000000 284.000000 -0.027944 325.000000 0.093671 346.000000 -0.053431 359.000000 -0.016487 15.000000 -0.012410 133.000000 0.044782 164.000000 0.014061
249404.000000 0.555753 369.000000 252.000000 168.000000 -0.006188 202.000000 0.113955 222.000000 -0.039680 241.000000 0.011729 11.000000 -0.022759 83.000000 0.019950 120.000000 -0.080425
249656.000000 0.633029 252.000000 165.000000 42.000000 0.010688 100.000000 0.072682 141.000000 -0.086952 152.000000 -0.084334 11.000000 -0.016801 89.000000 0.154767 141.000000 -0.086952
249821.000000 0.515384 165.000000 412.000000 345.000000 -0.021112 366.000000 0.072102 389.000000 -0.050671 399.000000 0.011478 11.000000 0.000884 67.000000 0.075903 101.000000 -0.091954
250407.000000 0.892534 174.000000 195.000000 137.000000 -0.052712 171.000000 0.107051 179.000000 0.078102 180.000000 0.078133 18.000000 -0.039677 21.000000 -0.010758 41.000000 -0.083813
251015.000000 0.652149 173.000000 184.000000 114.000000 -0.144547 151.000000 0.089875 163.000000 0.070862 173.000000 0.053070 12.000000 -0.031348 49.000000 0.197147 114.000000 -0.144547
251199.000000 0.748727 184.000000 170.000000 113.000000 -0.092746 135.000000 0.011579 151.000000 -0.142513 158.000000 -0.138531 11.000000 0.012207 46.000000 0.161629 91.000000 -0.270474
251369.000000 0.787739 170.000000 162.000000 121.000000 -0.080752 140.000000 -0.015157 147.000000 0.097162 148.000000 0.106065 10.000000 0.105076 73.000000 0.208371 121.000000 -0.080752
252012.000000 1.233696 164.000000 203.000000 128.000000 -0.120358 162.000000 0.078904 165.000000 0.029484 189.000000 0.074187 9.000000 0.088146 66.000000 0.049276 114.000000 -0.114952
252215.000000 0.813685 203.000000 177.000000 69.000000 0.133574 145.000000 0.096674 156.000000 0.085062 163.000000 0.108370 14.000000 0.020644 55.000000 0.193355 69.000000 0.133574
252392.000000 0.900344 177.000000 186.000000 142.000000 -0.049031 165.000000 0.011330 167.000000 0.011346 174.000000 -0.003511 10.000000 0.068040 58.000000 0.153889 63.000000 0.134280
252578.000000 0.762730 186.000000 181.000000 59.000000 0.162653 130.000000 0.036517 144.000000 -0.004989 169.000000 0.039213 11.000000 -0.070121 59.000000 0.162653 129.000000 0.031422
252759.000000 0.897599 181.000000 171.000000 61.000000 0.107819 123.000000 0.006157 145.000000 -0.019424 158.000000 -0.022182 11.000000 -0.146444 57.000000 0.133477 99.000000 -0.258687
253418.000000 0.638460 176.000000 185.000000 99.000000 -0.073166 117.000000 0.168511 147.000000 -0.089360 171.000000 -0.031899 11.000000 -0.036757 58.000000 0.142900 100.000000 -0.059875
254375.000000 0.786159 383.000000 453.000000 257.000000 0.041735 283.000000 0.049337 300.000000 0.004179 440.000000 0.041130 12.000000 0.024530 265.000000 0.063350 282.000000 0.044917
254828.000000 0.902228 453.000000 461.000000 391.000000 0.003137 423.000000 0.192056 438.000000 -0.004121 449.000000 0.030676 12.000000 -0.013196 237.000000 0.039446 284.000000 -0.000730
255289.000000 0.824092 461.000000 435.000000 238.000000 0.050655 262.000000 0.048825 282.000000 0.000189 421.000000 0.026780 12.000000 -0.023213 238.000000 0.050655 262.000000 0.048825
255724.000000 1.336546 435.000000 419.000000 326.000000 0.007369 374.000000 0.202653 395.000000 -0.042408 405.000000 -0.011500 15.000000 -0.034472 236.000000 0.056338 246.000000 0.041385
256481.000000 0.620939 338.000000 170.000000 119.000000 -0.100594 149.000000 0.004939 150.000000 0.019468 157.000000 0.009969 14.000000 -0.055095 91.000000 0.042964 119.000000 -0.100594
256651.000000 1.263933 170.000000 409.000000 353.000000 -0.008608 376.000000 0.103257 383.000000 0.047865 395.000000 0.000485 15.000000 0.036251 196.000000 0.052199 205.000000 0.006352
257793.000000 1.088093 167.000000 175.000000 110.000000 -0.071752 152.000000 -0.035517 155.000000 -0.048762 163.000000 0.060062 9.000000 0.126352 80.000000 0.013342 110.000000 -0.071752
257968.000000 1.195268 175.000000 192.000000 153.000000 -0.151359 170.000000 -0.063851 170.000000 -0.063851 177.000000 -0.040105 10.000000 0.089265 91.000000 0.225006 138.000000 -0.157580
258160.000000 0.791651 192.000000 407.000000 320.000000 -0.012508 354.000000 0.197005 374.000000 -0.048748 396.000000 0.005544 11.000000 0.027577 72.000000 0.135513 162.000000 -0.037693
258740.000000 1.265148 173.000000 437.000000 373.000000 -0.039597 393.000000 0.190576 415.000000 -0.066400 425.000000 -0.024627 11.000000 0.044190 231.000000 0.053366 251.000000 0.015139
259348.000000 0.916838 171.000000 248.000000 188.000000 0.004859 223.000000 0.078232 227.000000 0.042135 237.000000 0.024125 13.000000 0.037010 30.000000 0.012590 56.000000 -0.036536
259596.000000 1.039610 248.000000 151.000000 66.000000 -0.041286 96.000000 -0.047010 106.000000 -0.111023 138.000000 -0.065628 13.000000 -0.089293 35.000000 0.089109 48.000000 0.045206
259747.000000 1.262508 151.000000 193.000000 144.000000 -0.027491 171.000000 0.053621 173.000000 0.049326 180.000000 0.031458 17.000000 0.044640 22.000000 0.049624 30.000000 -0.014575
259940.000000 0.795314 193.000000 217.000000 72.000000 0.138823 145.000000 0.007181 150.000000 -0.023102 203.000000 -0.092664 11.000000 0.071991 74.000000 0.164293 148.000000 -0.003007
261489.000000 0.893138 212.000000 231.000000 163.000000 -0.063589 200.000000 0.096992 212.000000 0.072416 219.000000 0.097102 9.000000 -0.025576 37.000000 0.167529 46.000000 0.121682
262078.000000 1.031849 197.000000 164.000000 50.000000 0.128384 139.000000 0.036146 143.000000 0.031616 150.000000 0.037275 13.000000 -0.180189 36.000000 0.161817 50.000000 0.128384
262242.000000 0.954484 164.000000 166.000000 61.000000 0.112933 130.000000 0.031289 142.000000 0.022385 153.000000 -0.004637 12.000000 -0.230296 52.000000 0.143324 61.000000 0.112933
262603.000000 0.813521 195.000000 186.000000 130.000000 -0.023373 159.000000 0.025327 162.000000 -0.012666 175.000000 -0.039482 16.000000 -0.237232 63.000000 0.147973 130.000000 -0.023373
262966.000000 0.888772 177.000000 195.000000 143.000000 -0.006645 168.000000 0.035264 173.000000 0.012332 183.000000 -0.073013 13.000000 -0.165491 66.000000 0.173476 125.000000 0.001568
263681.000000 0.606132 179.000000 154.000000 56.000000 0.111241 107.000000 -0.012853 121.000000 -0.055533 139.000000 -0.024312 11.000000 -0.059088 59.000000 0.150064 93.000000 -0.320753
263835.000000 0.873916 154.000000 181.000000 60.000000 0.147398 128.000000 0.072947 147.000000 0.054875 164.000000 0.058009 11.000000 -0.091976 60.000000 0.147398 128.000000 0.072947
264200.000000 0.821050 184.000000 179.000000 52.000000 0.115123 116.000000 -0.055109 131.000000 -0.084355 165.000000 -0.185796 11.000000 0.071707 56.000000 0.130657 111.000000 -0.071238
265946.000000 1.034172 380.000000 407.000000 336.000000 0.011853 373.000000 0.111286 384.000000 -0.021459 394.000000 -0.015738 12.000000 -0.048320 224.000000 0.040885 241.000000 0.022121
266353.000000 0.895941 407.000000 453.000000 401.000000 -0.022213 422.000000 0.025373 426.000000 -0.015003 440.000000 0.048131 11.000000 -0.028839 237.000000 0.022746 245.000000 -0.025623
266806.000000 1.070107 453.000000 447.000000 243.000000 0.019734 275.000000 0.051745 279.000000 0.011024 435.000000 0.018886 14.000000 0.026864 83.000000 0.067460 177.000000 -0.018171
267253.000000 1.071411 447.000000 177.000000 129.000000 -0.121295 153.000000 -0.041531 162.000000 -0.035858 163.000000 -0.008867 12.000000 0.029329 78.000000 0.179677 104.000000 -0.215229
268244.000000 1.189673 413.000000 386.000000 333.000000 0.022870 361.000000 0.070174 365.000000 0.032714 373.000000 0.082997 12.000000 0.019484 67.000000 0.017115 176.000000 -0.006461
269014.000000 1.040957 384.000000 173.000000 91.000000 -0.063323 144.000000 -0.027759 149.000000 -0.028653 162.000000 0.028555 15.000000 -0.008840 64.000000 -0.005830 73.000000 -0.034358
269187.000000 1.080859 173.000000 378.000000 315.000000 -0.009663 348.000000 0.034915 353.000000 0.025024 363.000000 0.044914 12.000000 0.105751 24.000000 0.054984 27.000000 -0.014341
269565.000000 1.269032 378.000000 365.000000 321.000000 -0.002637 342.000000 0.048836 345.000000 0.040403 353.000000 0.109057 17.000000 -0.018053 179.000000 0.069728 224.000000 0.002694
269930.000000 1.092490 365.000000 352.000000 276.000000 0.044706 313.000000 0.189127 330.000000 -0.022111 341.000000 0.012012 11.000000 -0.001788 187.000000 0.076656 198.000000 0.029055
270282.000000 0.958265 352.000000 158.000000 69.000000 -0.062368 95.000000 -0.013824 119.000000 -0.123590 146.000000 -0.005784 10.000000 -0.012582 93.000000 0.020454 119.000000 -0.123590
270440.000000 1.032902 158.000000 317.000000 267.000000 -0.018543 295.000000 0.032144 298.000000 0.011923 306.000000 0.062409 10.000000 0.033453 132.000000 0.032339 162.000000 -0.017681
270757.000000 0.978585 317.000000 199.000000 68.000000 0.073480 142.000000 0.081961 179.000000 -0.026426 187.000000 -0.014561 11.000000 0.072207 20.000000 0.135108 27.000000 0.052098
270956.000000 0.668167 199.000000 148.000000 98.000000 -0.188994 127.000000 -0.082190 127.000000 -0.082190 134.000000 -0.064808 13.000000 -0.042321 43.000000 0.064687 104.000000 -0.186564
271630.000000 0.797631 170.000000 143.000000 64.000000 -0.037512 106.000000 -0.029420 117.000000 -0.078793 129.000000 -0.042570 14.000000 0.063115 28.000000 0.085857 35.000000 0.017017
271773.000000 0.736866 143.000000 267.000000 126.000000 -0.203682 161.000000 0.091491 173.000000 0.068513 254.000000 0.025723 9.000000 -0.025202 135.000000 0.478120 146.000000 0.031523
272040.000000 0.781398 267.000000 181.000000 135.000000 0.054056 159.000000 0.069966 162.000000 0.035312 170.000000 0.084968 10.000000 0.033687 56.000000 0.122245 135.000000 0.054056
272221.000000 0.783777 181.000000 183.000000 61.000000 0.089183 121.000000 -0.001934 140.000000 -0.026008 172.000000 -0.187871 12.000000 -0.066332 36.000000 0.124076 46.000000 0.076552
272404.000000 0.579325 183.000000 135.000000 52.000000 0.109643 88.000000 0.077666 103.000000 -0.034984 122.000000 -0.034656 12.000000 0.065205 53.000000 0.115396 79.000000 0.060003
272539.000000 0.920154 135.000000 147.000000 56.000000 -0.007932 110.000000 0.012116 116.000000 0.005064 135.000000 0.004344 16.000000 -0.148844 26.000000 0.017928 35.000000 -0.015663
272845.000000 0.457022 159.000000 160.000000 51.000000 0.098840 139.000000 -0.002050 153.000000 -0.125938 153.000000 -0.125938 11.000000 0.012916 50.000000 0.114217 66.000000 0.042665
273005.000000 0.525503 160.000000 177.000000 60.000000 0.143482 147.000000 0.051692 156.000000 0.009921 166.000000 0.029497 9.000000 0.048717 57.000000 0.168592 82.000000 0.040862
273182.000000 0.666548 177.000000 195.000000 147.000000 -0.017583 174.000000 0.026713 175.000000 0.037120 182.000000 0.029628 10.000000 0.062315 61.000000 0.176280 147.000000 -0.017583
275149.000000 0.625220 1604.000000 438.000000 236.000000 0.030447 265.000000 0.031102 311.000000 -0.009911 422.000000 0.021102 11.000000 -0.005531 211.000000 0.050638 243.000000 0.031763
275587.000000 0.663780 438.000000 912.000000 599.000000 -0.027585 620.000000 0.487947 631.000000 0.075988 899.000000 0.035393 13.000000 0.139921 431.000000 0.603904 445.000000 0.059830
277993.000000 0.638429 587.000000 470.000000 286.000000 -0.094940 322.000000 0.335938 341.000000 0.079275 455.000000 -0.021976 7.000000 0.170609 178.000000 0.546459 200.000000 0.049623
278463.000000 0.503366 470.000000 130.000000 39.000000 -0.039752 82.000000 -0.026804 94.000000 -0.094720 117.000000 -0.064578 12.000000 0.033978 58.000000 0.026583 94.000000 -0.094720
278593.000000 0.661926 130.000000 267.000000 139.000000 0.397088 175.000000 0.200504 202.000000 -0.025969 254.000000 0.111397 11.000000 0.056504 138.000000 0.432652 152.000000 0.014956
278860.000000 0.600550 267.000000 141.000000 90.000000 -0.154074 118.000000 -0.045594 132.000000 -0.021361 134.000000 0.006555 14.000000 -0.031913 51.000000 0.093809 56.000000 0.072461
279001.000000 0.512385 141.000000 146.000000 65.000000 0.124447 115.000000 -0.049861 118.000000 -0.100723 132.000000 -0.023888 4.000000 0.122228 67.000000 0.144949 104.000000 -0.086162
279516.000000 0.599265 369.000000 393.000000 305.000000 -0.011726 349.000000 0.024814 363.000000 -0.001094 380.000000 0.056491 17.000000 -0.001016 37.000000 0.128422 52.000000 -0.027878
279909.000000 0.689014 393.000000 382.000000 257.000000 -0.004203 299.000000 0.017588 325.000000 -0.006502 371.000000 0.023828 14.000000 0.006508 76.000000 0.064930 134.000000 -0.031686
280291.000000 0.641508 382.000000 366.000000 316.000000 -0.003891 342.000000 0.066767 351.000000 0.085716 353.000000 0.110512 10.000000 -0.011863 174.000000 0.030370 190.000000 0.000512
281553.000000 0.712178 276.000000 282.000000 197.000000 0.012396 238.000000 0.234137 260.000000 -0.015254 270.000000 0.012347 12.000000 -0.015224 46.000000 0.031528 99.000000 -0.080791
281835.000000 0.620043 282.000000 300.000000 215.000000 0.000525 256.000000 0.212672 273.000000 -0.042955 287.000000 -0.044817 14.000000 -0.016554 178.000000 0.010188 185.000000 -0.017965
282433.000000 0.716716 298.000000 292.000000 203.000000 0.030991 252.000000 0.261034 272.000000 -0.029469 279.000000 -0.046413 13.000000 -0.018894 161.000000 0.009703 165.000000 -0.009230
283021.000000 0.616411 296.000000 274.000000 204.000000 0.041041 228.000000 0.274066 253.000000 -0.042030 262.000000 -0.026639 13.000000 -0.053887 161.000000 0.011760 170.000000 -0.002141
283295.000000 0.823643 274.000000 281.000000 193.000000 0.028714 236.000000 0.273273 253.000000 0.013414 266.000000 0.020232 13.000000 -0.025432 163.000000 0.005860 180.000000 -0.004782
283576.000000 0.732895 281.000000 285.000000 217.000000 0.014707 242.000000 0.225616 260.000000 -0.044683 271.000000 -0.057190 12.000000 -0.030210 170.000000 0.011712 182.000000 -0.012581
283861.000000 0.573390 285.000000 293.000000 209.000000 0.009690 245.000000 0.281711 266.000000 -0.033273 281.000000 0.022213 10.000000 -0.070074 173.000000 0.035801 185.000000 0.046523
284154.000000 0.885348 293.000000 312.000000 231.000000 0.019599 265.000000 0.285414 286.000000 -0.060276 298.000000 -0.012188 11.000000 -0.030216 79.000000 0.008198 105.000000 -0.100847
284466.000000 0.786808 312.000000 308.000000 217.000000 -0.012382 264.000000 0.222571 286.000000 -0.104610 297.000000 -0.091850 14.000000 -0.043616 54.000000 0.027227 63.000000 -0.014028
284774.000000 0.660519 308.000000 268.000000 189.000000 0.032158 221.000000 0.340718 224.000000 0.289198 254.000000 -0.002979 12.000000 -0.088102 154.000000 0.044920 173.000000 0.035922
285042.000000 0.966737 268.000000 318.000000 240.000000 0.030427 274.000000 0.277573 292.000000 -0.052930 304.000000 -0.000892 10.000000 -0.039407 42.000000 0.028181 54.000000 -0.000485
285360.000000 0.960845 318.000000 157.000000 57.000000 -0.001712 96.000000 0.008575 116.000000 -0.124451 144.000000 -0.012115 12.000000 -0.012242 83.000000 0.123384 116.000000 -0.124451
287032.000000 0.967914 190.000000 484.000000 288.000000 0.006546 308.000000 0.054930 349.000000 -0.035823 470.000000 0.024417 11.000000 -0.000485 22.000000 0.151444 31.000000 0.087761
287516.000000 1.160939 484.000000 246.000000 71.000000 0.116957 194.000000 0.182100 219.000000 0.017666 232.000000 0.058420 12.000000 -0.004734 70.000000 0.121941 85.000000 -0.059532
287762.000000 0.894124 246.000000 297.000000 199.000000 -0.004452 220.000000 0.042898 237.000000 0.039717 283.000000 0.014026 11.000000 0.056004 32.000000 0.168685 131.000000 0.034660
288698.000000 0.934048 183.000000 251.000000 155.000000 0.011098 196.000000 0.064955 222.000000 -0.077787 237.000000 -0.121016 11.000000 0.102216 75.000000 0.140112 98.000000 -0.120625
288949.000000 0.815314 251.000000 158.000000 109.000000 0.009498 137.000000 0.031145 135.000000 -0.009059 142.000000 -0.003463 13.000000 0.011205 28.000000 0.134371 40.000000 0.084670
289107.000000 1.235250 158.000000 208.000000 141.000000 -0.009999 187.000000 0.059373 192.000000 0.105470 193.000000 0.110705 18.000000 -0.111536 33.000000 0.103402 88.000000 -0.355235
289315.000000 0.807192 208.000000 232.000000 63.000000 0.099275 161.000000 0.079828 169.000000 0.039422 214.000000 0.086335 12.000000 0.056643 60.000000 0.125231 99.000000 -0.179549
289939.000000 0.702172 174.000000 173.000000 98.000000 -0.027585 148.000000 0.011761 152.000000 -0.082816 159.000000 -0.135746 12.000000 0.162111 65.000000 0.116817 98.000000 -0.027585
291083.000000 0.917868 387.000000 373.000000 298.000000 -0.037504 349.000000 0.054955 350.000000 0.040111 357.000000 0.036177 15.000000 -0.176333 79.000000 0.089589 88.000000 0.070842
292162.000000 1.078060 348.000000 334.000000 171.000000 -0.005572 205.000000 0.023335 241.000000 0.003325 321.000000 0.029585 11.000000 0.080612 61.000000 0.081531 74.000000 0.056232
292496.000000 1.021199 334.000000 350.000000 235.000000 -0.032073 261.000000 0.032630 273.000000 0.024636 337.000000 0.004305 12.000000 -0.112391 57.000000 0.070893 67.000000 0.016204
292846.000000 1.047472 350.000000 353.000000 270.000000 -0.034199 314.000000 0.299346 331.000000 -0.001972 340.000000 -0.010767 11.000000 0.109918 79.000000 0.043939 138.000000 -0.069929
293493.000000 0.829090 294.000000 290.000000 207.000000 0.005535 244.000000 0.281019 265.000000 -0.046709 276.000000 -0.037774 11.000000 -0.051614 45.000000 0.008247 59.000000 -0.037474
294066.000000 0.923128 283.000000 295.000000 210.000000 -0.016130 252.000000 0.254308 269.000000 -0.060521 280.000000 -0.032557 16.000000 -0.035901 70.000000 0.085886 104.000000 -0.085948
294628.000000 0.996821 267.000000 298.000000 208.000000 -0.034374 249.000000 0.244216 269.000000 -0.084748 283.000000 -0.030312 14.000000 -0.042959 79.000000 0.065639 115.000000 -0.064880
295253.000000 0.723526 327.000000 291.000000 218.000000 0.006381 243.000000 0.315881 266.000000 -0.070136 279.000000 -0.033317 12.000000 -0.000031 169.000000 0.002694 201.000000 -0.000908
295544.000000 0.929145 291.000000 295.000000 220.000000 -0.005959 250.000000 0.258271 270.000000 -0.069537 282.000000 -0.028738 11.000000 -0.036888 74.000000 0.073582 127.000000 -0.066279
297346.000000 0.745583 316.000000 291.000000 211.000000 0.015269 240.000000 0.310235 264.000000 -0.036211 277.000000 -0.028437 12.000000 -0.008257 72.000000 0.054107 121.000000 -0.054169
298129.000000 1.161656 163.000000 245.000000 161.000000 -0.023888 184.000000 0.017226 201.000000 -0.029860 231.000000 -0.087540 12.000000 0.009746 27.000000 -0.009846 35.000000 -0.057323
298374.000000 0.841506 245.000000 151.000000 52.000000 0.097336 94.000000 0.109092 107.000000 -0.008416 135.000000 0.002557 11.000000 0.137745 58.000000 0.139264 95.000000 0.098481
298525.000000 1.461209 151.000000 167.000000 26.000000 -0.006736 124.000000 0.011567 134.000000 -0.003152 154.000000 -0.097714 15.000000 -0.014024 27.000000 0.023154 118.000000 -0.008464
298692.000000 1.136692 167.000000 180.000000 120.000000 -0.088685 159.000000 0.024936 159.000000 0.024936 166.000000 0.073181 12.000000 0.088980 76.000000 0.153179 120.000000 -0.088685
298872.000000 0.877318 180.000000 162.000000 62.000000 0.189229 124.000000 0.036691 133.000000 -0.007839 147.000000 0.027584 10.000000 0.073400 47.000000 0.210389 62.000000 0.189229
299034.000000 0.766313 162.000000 167.000000 63.000000 0.065670 141.000000 0.028965 146.000000 -0.006537 153.000000 -0.014782 12.000000 -0.068294 53.000000 0.107675 111.000000 -0.277226
299201.000000 0.701895 167.000000 162.000000 53.000000 0.061661 137.000000 0.092634 141.000000 0.054482 148.000000 0.064185 13.000000 -0.052587 48.000000 0.069339 54.000000 0.046127
299363.000000 0.955674 162.000000 199.000000 122.000000 -0.295159 162.000000 0.041973 172.000000 0.029902 184.000000 0.038819 13.000000 0.039606 53.000000 0.160169 122.000000 -0.295159
300002.000000 0.983041 440.000000 365.000000 304.000000 -0.072507 339.000000 0.022773 344.000000 0.010296 354.000000 0.024371 8.000000 -0.012681 80.000000 0.130258 91.000000 0.092092
300367.000000 0.822286 365.000000 387.000000 254.000000 0.008093 279.000000 0.030065 310.000000 -0.008029 371.000000 -0.005052 11.000000 0.054637 57.000000 0.101124 70.000000 0.084792
300754.000000 1.162533 387.000000 369.000000 216.000000 -0.005375 241.000000 0.028651 246.000000 -0.005831 356.000000 -0.017648 12.000000 0.013239 66.000000 0.147437 114.000000 -0.070113
301514.000000 1.244203 391.000000 387.000000 302.000000 0.022195 347.000000 0.192711 355.000000 0.090892 376.000000 0.023057 15.000000 0.084721 57.000000 0.058906 61.000000 0.039392
302067.000000 1.160060 166.000000 344.000000 170.000000 0.055710 211.000000 0.010370 253.000000 -0.015704 331.000000 0.016933 14.000000 -0.011098 181.000000 0.057765 204.000000 0.011827
302411.000000 1.287120 344.000000 190.000000 70.000000 0.068886 132.000000 0.015201 138.000000 -0.045771 176.000000 -0.041739 19.000000 -0.065298 71.000000 0.084184 133.000000 -0.009157
303549.000000 0.869199 353.000000 355.000000 300.000000 -0.003698 332.000000 0.044826 334.000000 0.010281 341.000000 0.062491 12.000000 -0.113182 79.000000 0.098782 131.000000 -0.077763
303904.000000 1.097867 355.000000 199.000000 95.000000 -0.093765 138.000000 0.046441 147.000000 -0.042493 186.000000 -0.050658 10.000000 0.088322 60.000000 0.018334 72.000000 0.014073
304610.000000 0.792132 166.000000 174.000000 59.000000 0.189793 116.000000 0.156835 137.000000 -0.202254 162.000000 -0.155448 16.000000 -0.067133 62.000000 0.211486 119.000000 0.128480
304784.000000 0.612608 174.000000 358.000000 291.000000 -0.035281 331.000000 0.051461 335.000000 0.005255 342.000000 0.022840 11.000000 -0.078928 67.000000 0.103689 110.000000 -0.026847
306452.000000 0.612995 305.000000 274.000000 192.000000 -0.015611 229.000000 0.270736 247.000000 -0.047103 261.000000 -0.018875 10.000000 -0.002820 163.000000 0.025927 170.000000 0.012745
307283.000000 0.666692 275.000000 266.000000 182.000000 0.030785 225.000000 0.316208 243.000000 -0.019812 254.000000 -0.005283 10.000000 -0.022398 157.000000 -0.020124 163.000000 -0.039168
307549.000000 0.877347 266.000000 279.000000 190.000000 -0.044769 231.000000 0.231549 251.000000 -0.081195 268.000000 -0.038592 10.000000 -0.013640 81.000000 0.070745 104.000000 -0.056983
309010.000000 0.707289 312.000000 277.000000 170.000000 -0.131395 233.000000 0.250971 250.000000 -0.030143 265.000000 0.010719 12.000000 -0.027678 36.000000 0.014891 42.000000 -0.014026
309287.000000 0.869401 277.000000 260.000000 169.000000 -0.022760 215.000000 0.268951 236.000000 -0.056596 247.000000 -0.030545 13.000000 -0.008530 40.000000 0.084763 65.000000 0.067600
309870.000000 0.693336 323.000000 168.000000 50.000000 -0.024972 101.000000 -0.036114 127.000000 -0.117650 155.000000 -0.062039 13.000000 -0.076082 87.000000 0.103745 127.000000 -0.117650
310038.000000 0.999310 168.000000 417.000000 366.000000 -0.038648 387.000000 0.164784 391.000000 0.128922 398.000000 0.082528 13.000000 -0.057774 219.000000 0.093482 229.000000 0.057762
311493.000000 0.857818 220.000000 206.000000 125.000000 -0.104739 162.000000 -0.032633 172.000000 -0.073324 191.000000 -0.050831 10.000000 0.038789 37.000000 0.225135 125.000000 -0.104739
311699.000000 0.602271 206.000000 313.000000 228.000000 0.020534 262.000000 0.165970 280.000000 0.022476 301.000000 0.034185 13.000000 -0.062620 173.000000 0.028578 207.000000 0.021819
312591.000000 0.653181 180.000000 161.000000 63.000000 0.048713 121.000000 0.055375 130.000000 0.016896 149.000000 0.032334 10.000000 0.034858 37.000000 0.112820 63.000000 0.048713
312752.000000 0.680874 161.000000 173.000000 52.000000 0.096910 121.000000 0.016769 136.000000 -0.041504 161.000000 -0.053948 12.000000 0.011768 37.000000 0.152975 48.000000 0.113336
312925.000000 0.373265 173.000000 159.000000 111.000000 -0.088337 134.000000 -0.037598 138.000000 -0.060168 148.000000 -0.042002 13.000000 -0.125278 26.000000 0.058608 39.000000 0.048499
313084.000000 0.574643 159.000000 169.000000 108.000000 -0.219025 143.000000 0.031851 146.000000 0.010111 157.000000 0.050003 10.000000 -0.087284 47.000000 0.133747 125.000000 0.027965
313253.000000 0.757668 169.000000 380.000000 287.000000 0.000182 353.000000 0.015759 358.000000 0.013156 365.000000 0.026320 10.000000 0.119675 59.000000 0.147139 98.000000 -0.068532
315011.000000 0.743214 171.000000 456.000000 393.000000 -0.105453 435.000000 -0.012384 439.000000 -0.014469 445.000000 0.016471 12.000000 0.093949 166.000000 0.108824 176.000000 0.091019
315467.000000 0.638979 456.000000 207.000000 77.000000 0.016455 147.000000 0.037571 157.000000 -0.008903 194.000000 0.017382 12.000000 0.041580 22.000000 0.064792 26.000000 0.026907
315870.000000 0.486098 196.000000 598.000000 396.000000 0.030406 417.000000 0.440250 453.000000 -0.028089 584.000000 -0.009469 10.000000 0.063667 63.000000 0.100036 122.000000 -0.053391
316720.000000 0.627010 252.000000 162.000000 49.000000 0.158936 127.000000 0.049297 139.000000 -0.039998 150.000000 -0.042035 10.000000 0.046696 48.000000 0.174657 96.000000 -0.135736
316882.000000 0.762103 162.000000 548.000000 351.000000 -0.012725 382.000000 0.366177 406.000000 0.117132 538.000000 -0.033071 15.000000 -0.031237 224.000000 0.481814 245.000000 0.094982
317430.000000 0.509734 548.000000 146.000000 53.000000 -0.092727 88.000000 -0.055455 114.000000 -0.133259 131.000000 -0.153524 8.000000 0.119781 27.000000 0.089891 53.000000 -0.092727
317576.000000 0.575129 146.000000 142.000000 48.000000 -0.125607 103.000000 -0.154217 116.000000 -0.188730 129.000000 -0.252430 12.000000 0.035396 20.000000 -0.010515 27.000000 -0.048774
317718.000000 0.459293 142.000000 145.000000 45.000000 0.092275 87.000000 -0.014685 104.000000 -0.049638 134.000000 -0.080670 11.000000 0.027473 44.000000 0.093655 68.000000 -0.044858
317863.000000 0.516304 145.000000 265.000000 131.000000 0.020185 176.000000 0.070655 231.000000 -0.252446 256.000000 -0.031568 11.000000 0.142478 44.000000 0.179970 55.000000 0.148247
318271.000000 0.955828 143.000000 220.000000 135.000000 -0.035000 188.000000 0.110862 194.000000 0.106145 201.000000 0.085972 13.000000 0.098478 20.000000 0.059670 24.000000 0.018494
318491.000000 0.618227 220.000000 213.000000 48.000000 0.081033 154.000000 0.081929 165.000000 0.060817 198.000000 -0.131297 14.000000 -0.025018 64.000000 0.127366 143.000000 0.050550
318948.000000 0.480198 244.000000 446.000000 243.000000 0.020830 279.000000 0.024276 320.000000 -0.012323 428.000000 0.019001 10.000000 0.123881 75.000000 0.152641 125.000000 -0.021481
319802.000000 0.357900 408.000000 371.000000 313.000000 0.041127 350.000000 0.063011 349.000000 0.062588 356.000000 0.070802 9.000000 -0.040752 181.000000 0.064413 189.000000 0.035041
320173.000000 0.708735 371.000000 353.000000 188.000000 0.030587 218.000000 0.043049 268.000000 -0.035968 342.000000 -0.032209 17.000000 0.103627 20.000000 0.120570 44.000000 0.016482
320526.000000 0.454420 353.000000 171.000000 72.000000 -0.051261 146.000000 -0.001533 150.000000 -0.026911 160.000000 0.066457 12.000000 -0.068965 75.000000 -0.024162 150.000000 -0.026911
320697.000000 0.661455 171.000000 372.000000 315.000000 -0.008478 341.000000 0.140563 347.000000 0.136456 354.000000 0.108149 8.000000 0.199885 23.000000 0.121828 31.000000 0.094446
321429.000000 0.508491 360.000000 329.000000 244.000000 0.037133 294.000000 0.175659 314.000000 0.033952 315.000000 0.039720 11.000000 -0.044439 162.000000 0.083285 170.000000 0.050087
321758.000000 0.630880 329.000000 336.000000 242.000000 -0.075709 312.000000 0.011497 315.000000 0.000776 322.000000 -0.011511 13.000000 0.087276 48.000000 0.075724 61.000000 0.057401
322094.000000 0.502567 336.000000 321.000000 257.000000 0.040501 283.000000 0.151988 299.000000 0.038603 309.000000 0.054968 14.000000 -0.051413 180.000000 0.052445 217.000000 0.043885
322688.000000 0.479858 273.000000 309.000000 240.000000 -0.011362 264.000000 0.135769 285.000000 -0.100872 295.000000 -0.083145 14.000000 0.002163 72.000000 0.050583 81.000000 0.022492
323570.000000 0.496974 290.000000 287.000000 212.000000 0.054593 240.000000 0.226552 263.000000 0.014245 272.000000 -0.004582 10.000000 0.014700 24.000000 0.031907 40.000000 0.008786
324412.000000 0.553278 267.000000 276.000000 190.000000 0.018214 232.000000 0.242072 255.000000 0.028030 264.000000 0.017858 13.000000 0.000249 39.000000 0.053738 43.000000 0.022406
324688.000000 0.483721 276.000000 275.000000 186.000000 -0.043334 231.000000 0.204991 249.000000 -0.039180 259.000000 -0.042112 12.000000 0.034898 22.000000 0.060510 25.000000 0.032124
324963.000000 0.381118 275.000000 276.000000 198.000000 0.000373 232.000000 0.243256 259.000000 -0.019158 267.000000 0.010387 13.000000 -0.055701 161.000000 -0.006113 173.000000 0.008165
325239.000000 0.574995 276.000000 317.000000 232.000000 0.048025 269.000000 0.194809 289.000000 -0.052714 304.000000 -0.009706 10.000000 0.034541 58.000000 0.068227 75.000000 0.045268
325721.000000 0.685879 165.000000 394.000000 327.000000 -0.006004 350.000000 0.088385 372.000000 -0.047494 380.000000 0.035390 15.000000 -0.012365 224.000000 0.080285 249.000000 0.046459
326291.000000 0.802757 176.000000 238.000000 73.000000 0.066812 194.000000 0.019327 205.000000 -0.007301 227.000000 -0.004967 11.000000 0.150356 20.000000 0.075731 36.000000 0.003739
326529.000000 0.724937 238.000000 317.000000 225.000000 0.032553 274.000000 0.203979 296.000000 0.013135 305.000000 0.062634 12.000000 -0.019091 184.000000 0.011691 205.000000 0.002413
327238.000000 0.673149 240.000000 162.000000 108.000000 -0.165360 141.000000 0.000910 140.000000 -0.023605 147.000000 0.036083 11.000000 -0.053199 81.000000 0.016521 89.000000 -0.079309
327400.000000 1.088575 162.000000 144.000000 59.000000 0.078495 122.000000 0.010220 130.000000 0.046866 132.000000 -0.010250 13.000000 -0.017117 58.000000 0.094059 90.000000 -0.261710
327544.000000 1.018575 144.000000 142.000000 99.000000 -0.170597 121.000000 -0.032038 118.000000 -0.050440 125.000000 0.016990 13.000000 -0.033794 51.000000 0.136959 99.000000 -0.170597
327686.000000 1.002445 142.000000 261.000000 104.000000 -0.060688 163.000000 -0.052144 191.000000 -0.073412 247.000000 -0.115562 12.000000 0.045722 60.000000 0.233326 129.000000 0.123606
327947.000000 0.652256 261.000000 356.000000 257.000000 -0.022240 303.000000 0.036944 315.000000 0.007540 343.000000 0.016691 12.000000 -0.048448 62.000000 0.134470 69.000000 0.111084
328303.000000 1.023337 356.000000 365.000000 185.000000 0.092197 228.000000 -0.009621 318.000000 -0.102771 352.000000 -0.071754 14.000000 -0.020550 78.000000 0.132175 123.000000 -0.047228
329290.000000 0.706983 316.000000 324.000000 239.000000 -0.037477 279.000000 0.100467 299.000000 -0.086507 311.000000 -0.064875 12.000000 -0.001779 45.000000 0.052107 53.000000 0.021822
329614.000000 0.445611 324.000000 343.000000 272.000000 0.000004 297.000000 0.111774 318.000000 -0.080655 329.000000 -0.008380 13.000000 -0.054251 176.000000 0.036851 196.000000 0.029154
330264.000000 0.962809 307.000000 315.000000 245.000000 -0.014152 267.000000 0.117041 278.000000 0.019407 304.000000 -0.047976 11.000000 0.064878 30.000000 0.141696 37.000000 0.079486
330882.000000 1.096553 303.000000 295.000000 206.000000 0.035804 252.000000 0.171571 268.000000 -0.024951 282.000000 0.058323 16.000000 0.033012 35.000000 0.085082 51.000000 0.036758
331177.000000 1.056691 295.000000 300.000000 222.000000 0.011580 252.000000 0.106235 262.000000 -0.002620 287.000000 -0.013297 10.000000 0.067553 36.000000 0.115360 40.000000 0.090783
331925.000000 0.838874 170.000000 410.000000 347.000000 -0.012321 368.000000 0.126945 373.000000 0.049813 395.000000 -0.051253 10.000000 -0.012615 194.000000 0.089576 220.000000 0.046754
332870.000000 1.062962 160.000000 246.000000 114.000000 -0.011666 154.000000 0.090938 178.000000 0.031223 233.000000 0.006442 13.000000 0.093792 29.000000 0.068713 55.000000 -0.074688
333116.000000 0.823354 246.000000 162.000000 49.000000 0.014667 100.000000 -0.000159 119.000000 -0.095738 147.000000 -0.233734 12.000000 0.082303 28.000000 0.091112 35.000000 0.029904
333752.000000 1.333238 148.000000 214.000000 134.000000 -0.029840 185.000000 0.180021 190.000000 0.130069 200.000000 0.123030 17.000000 0.030638 22.000000 0.033867 31.000000 0.006735
334142.000000 0.876178 176.000000 175.000000 54.000000 0.204718 139.000000 0.028369 145.000000 -0.006615 164.000000 -0.061707 9.000000 0.121130 52.000000 0.257507 60.000000 0.169044
334317.000000 0.796319 175.000000 167.000000 56.000000 0.109660 141.000000 0.015740 145.000000 -0.016126 156.000000 -0.058557 12.000000 -0.022489 51.000000 0.143986 62.000000 0.088359
334484.000000 0.758450 167.000000 224.000000 54.000000 0.218356 142.000000 0.068713 154.000000 0.022648 211.000000 0.042838 12.000000 -0.002335 53.000000 0.238935 115.000000 -0.306771
334849.000000 1.333418 141.000000 271.000000 123.000000 -0.002382 185.000000 0.067352 225.000000 -0.061882 260.000000 -0.064359 14.000000 0.023543 125.000000 0.044263 182.000000 0.037509
335312.000000 0.998575 192.000000 208.000000 132.000000 -0.001553 154.000000 0.075627 164.000000 0.064264 194.000000 -0.206739 12.000000 -0.039778 64.000000 0.186368 112.000000 -0.274497
335977.000000 0.973279 181.000000 173.000000 70.000000 0.138418 138.000000 0.009454 147.000000 -0.027505 159.000000 0.009705 10.000000 0.080018 65.000000 0.174922 121.000000 -0.295500
336150.000000 1.048624 173.000000 311.000000 180.000000 0.023466 228.000000 0.155517 233.000000 0.118355 297.000000 -0.124576 12.000000 0.066273 60.000000 0.180598 65.000000 0.167244
336461.000000 1.008842 311.000000 213.000000 139.000000 -0.154998 187.000000 0.006379 192.000000 -0.013448 199.000000 -0.012288 13.000000 0.267305 21.000000 0.244642 27.000000 0.188294
336889.000000 1.196066 215.000000 202.000000 152.000000 -0.034294 174.000000 0.012244 182.000000 -0.092522 190.000000 -0.041832 13.000000 0.078259 29.000000 0.154104 37.000000 0.113664
337454.000000 1.041394 363.000000 365.000000 307.000000 -0.180895 339.000000 0.039968 343.000000 -0.019561 350.000000 0.000502 11.000000 0.005141 75.000000 0.115094 111.000000 -0.016210
337819.000000 0.841551 365.000000 379.000000 307.000000 -0.016882 347.000000 0.065219 363.000000 0.045517 366.000000 0.054594 12.000000 0.051035 36.000000 0.138514 41.000000 0.128764
338198.000000 1.065535 379.000000 449.000000 215.000000 0.040329 279.000000 0.109448 322.000000 0.043569 435.000000 0.047679 13.000000 0.000769 262.000000 0.116425 267.000000 0.109119
338647.000000 1.091082 449.000000 403.000000 216.000000 0.115853 245.000000 0.103201 319.000000 -0.019280 388.000000 0.048273 12.000000 -0.004703 238.000000 0.126792 319.000000 -0.019280
339050.000000 1.222255 403.000000 382.000000 328.000000 0.071721 351.000000 0.085780 356.000000 0.052613 368.000000 0.084572 14.000000 0.011018 39.000000 0.261945 65.000000 -0.051895
339432.000000 1.133431 382.000000 372.000000 277.000000 -0.075578 333.000000 0.097135 334.000000 0.082041 353.000000 -0.113980 10.000000 0.132444 22.000000 0.054388 45.000000 -0.006255
340465.000000 0.813528 299.000000 304.000000 231.000000 0.012694 262.000000 0.290656 283.000000 -0.041444 293.000000 -0.005941 12.000000 -0.076426 178.000000 -0.000109 196.000000 0.002337
340769.000000 1.124813 304.000000 281.000000 215.000000 -0.003003 241.000000 0.275523 257.000000 -0.039588 267.000000 -0.021440 10.000000 0.017195 36.000000 0.059991 47.000000 0.054993
