2933.000000 1.689010 140.000000 191.000000 120.000000 -0.197287 149.000000 0.020063 159.000000 -0.059294 178.000000 0.190628 7.000000 0.860625 68.000000 0.153745 80.000000 -0.190158
3333.000000 1.897321 209.000000 380.000000 294.000000 -0.068778 317.000000 0.028089 336.000000 -0.060766 359.000000 -0.044355 19.000000 -0.244215 128.000000 1.700724 131.000000 1.465458
4722.000000 0.896365 194.000000 138.000000 98.000000 -0.028370 117.000000 0.038229 112.000000 -0.010501 119.000000 0.084467 17.000000 -0.269654 60.000000 0.347352 98.000000 -0.028370
5247.000000 1.877335 164.000000 187.000000 109.000000 -0.223068 166.000000 0.018920 151.000000 -0.163149 158.000000 -0.089466 17.000000 -0.374059 69.000000 -0.103835 71.000000 -0.132910
5434.000000 1.880596 187.000000 216.000000 156.000000 -0.091130 194.000000 0.054012 199.000000 0.034247 206.000000 0.608071 22.000000 -0.347336 105.000000 -0.060705 131.000000 -0.102744
6030.000000 1.710736 237.000000 169.000000 102.000000 -0.016428 132.000000 0.060390 137.000000 0.051111 160.000000 0.523696 15.000000 -0.307539 90.000000 -0.023511 104.000000 -0.030691
6434.000000 1.530789 235.000000 277.000000 167.000000 0.025374 190.000000 0.078118 217.000000 -0.064015 255.000000 -0.059624 20.000000 -0.334305 160.000000 0.016722 167.000000 0.025374
6711.000000 1.642635 277.000000 232.000000 154.000000 -0.113025 183.000000 0.028384 187.000000 0.005045 214.000000 0.044935 19.000000 -0.346284 111.000000 -0.059327 166.000000 -0.025016
7279.000000 1.409085 336.000000 309.000000 173.000000 0.056104 197.000000 0.034893 222.000000 0.017822 284.000000 0.004653 16.000000 -0.265477 77.000000 0.080657 80.000000 0.064465
8154.000000 1.841978 403.000000 158.000000 114.000000 -0.103022 136.000000 0.030849 132.000000 -0.079151 139.000000 -0.132630 19.000000 -0.440766 84.000000 -0.106988 99.000000 -0.143445
8312.000000 1.779721 158.000000 229.000000 182.000000 -0.012130 208.000000 0.087745 199.000000 0.039954 206.000000 0.068512 18.000000 -0.287896 136.000000 -0.054713 148.000000 -0.042974
8541.000000 1.978999 229.000000 334.000000 198.000000 0.042868 251.000000 0.091988 253.000000 0.071142 313.000000 -0.001503 18.000000 -0.241284 171.000000 0.150270 174.000000 0.112966
9114.000000 2.083700 239.000000 179.000000 137.000000 -0.176049 155.000000 -0.131739 157.000000 -0.150939 159.000000 -0.180657 24.000000 -0.508307 86.000000 -0.009513 124.000000 -0.229137
9432.000000 1.583215 139.000000 240.000000 170.000000 0.005832 192.000000 0.063917 198.000000 0.028493 217.000000 -0.010065 15.000000 -0.195861 78.000000 0.123985 112.000000 -0.020671
9672.000000 1.789824 240.000000 279.000000 113.000000 0.024043 180.000000 0.058558 182.000000 0.024279 256.000000 -0.017917 21.000000 -0.403514 114.000000 0.046127 172.000000 0.047541
9951.000000 1.843775 279.000000 217.000000 165.000000 0.019075 196.000000 0.060140 185.000000 0.034891 192.000000 0.034921 32.000000 -0.403716 123.000000 -0.011754 143.000000 -0.118588
10168.000000 1.903871 217.000000 329.000000 229.000000 -0.060768 259.000000 0.000062 270.000000 -0.039924 308.000000 -0.023652 18.000000 -0.296804 80.000000 0.180058 81.000000 0.135826
10497.000000 1.920426 329.000000 333.000000 272.000000 -0.023150 297.000000 0.044766 298.000000 0.015189 309.000000 0.002195 18.000000 -0.340057 164.000000 0.086299 235.000000 0.010955
10830.000000 1.966428 333.000000 251.000000 116.000000 -0.081895 174.000000 -0.031849 193.000000 -0.065360 230.000000 -0.111378 20.000000 -0.292237 78.000000 0.043375 79.000000 0.043155
11081.000000 1.996100 251.000000 261.000000 197.000000 -0.070877 240.000000 0.061899 228.000000 -0.041581 235.000000 0.008357 20.000000 -0.389356 85.000000 0.047211 86.000000 0.040362
11342.000000 2.051898 261.000000 310.000000 234.000000 0.001490 280.000000 0.036222 281.000000 0.015611 288.000000 -0.023825 26.000000 -0.360237 87.000000 0.061514 108.000000 -0.016653
11858.000000 1.968010 206.000000 159.000000 107.000000 -0.128746 136.000000 -0.060974 140.000000 -0.080441 147.000000 0.299214 18.000000 -0.412961 81.000000 0.071915 110.000000 -0.137900
12755.000000 2.016020 228.000000 236.000000 175.000000 -0.020499 211.000000 0.044375 214.000000 -0.004198 221.000000 0.337933 17.000000 -0.319122 84.000000 -0.050801 126.000000 -0.147178
12991.000000 1.999310 236.000000 207.000000 115.000000 -0.118779 179.000000 0.040126 180.000000 0.019091 185.000000 0.023746 15.000000 -0.254878 94.000000 -0.076695 115.000000 -0.118779
13198.000000 2.181393 207.000000 343.000000 281.000000 -0.008541 318.000000 0.049668 315.000000 0.025812 322.000000 0.028368 21.000000 -0.330752 163.000000 0.012117 188.000000 -0.028163
13777.000000 2.082949 236.000000 238.000000 124.000000 -0.218541 184.000000 -0.059213 205.000000 -0.140779 222.000000 0.068279 20.000000 -0.341643 78.000000 -0.106266 104.000000 -0.241425
14015.000000 2.024470 238.000000 275.000000 231.000000 -0.048981 252.000000 0.018356 247.000000 0.006052 254.000000 -0.005531 16.000000 -0.265924 84.000000 0.010155 164.000000 -0.060253
14290.000000 2.049612 275.000000 300.000000 242.000000 -0.047395 277.000000 0.071052 270.000000 0.016819 277.000000 0.071052 18.000000 -0.241892 177.000000 0.090254 182.000000 -0.015891
14786.000000 1.966757 196.000000 140.000000 31.000000 -0.463744 84.000000 0.042005 105.000000 -0.101869 126.000000 0.188351 20.000000 -0.389654 79.000000 0.066189 105.000000 -0.101869
14926.000000 1.520030 140.000000 317.000000 258.000000 -0.051913 296.000000 0.096944 296.000000 0.096944 303.000000 0.585940 18.000000 -0.318982 115.000000 0.019858 130.000000 0.015969
15243.000000 1.766880 317.000000 192.000000 139.000000 0.007677 170.000000 0.133275 161.000000 0.029655 168.000000 0.108494 14.000000 -0.146177 92.000000 -0.029110 95.000000 -0.090208
15435.000000 2.081238 192.000000 194.000000 118.000000 -0.102552 170.000000 0.099483 164.000000 0.027524 171.000000 0.091677 24.000000 -0.347397 87.000000 -0.003430 99.000000 -0.034495
16306.000000 1.782524 377.000000 288.000000 176.000000 0.158874 211.000000 0.310597 229.000000 -0.263150 270.000000 -0.268402 16.000000 -0.412617 160.000000 0.251618 176.000000 0.158874
17651.000000 0.983686 376.000000 1260.000000 741.000000 -0.005912 784.000000 1.049794 816.000000 -0.248152 1235.000000 0.030158 9.000000 -0.011504 577.000000 0.498809 581.000000 0.385486
18911.000000 1.314846 1260.000000 205.000000 139.000000 -0.097099 162.000000 0.034453 167.000000 0.032228 197.000000 0.735064 18.000000 -0.179339 120.000000 0.057619 139.000000 -0.097099
19116.000000 1.457148 205.000000 142.000000 26.000000 -0.390001 88.000000 0.067993 103.000000 -0.063400 119.000000 -0.123635 16.000000 -0.201864 82.000000 0.128181 103.000000 -0.063400
20101.000000 1.019205 358.000000 195.000000 88.000000 0.052320 117.000000 0.075030 124.000000 0.058494 177.000000 0.146019 17.000000 -0.270150 116.000000 0.079576 124.000000 0.058494
20709.000000 1.558857 256.000000 189.000000 116.000000 -0.060486 163.000000 0.049859 159.000000 -0.001991 166.000000 -0.008041 17.000000 -0.280971 72.000000 0.078779 116.000000 -0.060486
20898.000000 1.758462 189.000000 136.000000 38.000000 -0.351083 88.000000 0.154860 112.000000 0.079375 123.000000 -0.009263 16.000000 -0.258732 80.000000 0.097509 88.000000 0.154860
21279.000000 1.548561 245.000000 128.000000 69.000000 -0.019343 97.000000 0.011879 102.000000 -0.004421 109.000000 0.047867 17.000000 -0.440124 71.000000 -0.010205 127.000000 1.542929
21706.000000 1.819531 299.000000 433.000000 225.000000 0.656756 279.000000 0.421130 282.000000 0.339327 419.000000 0.208449 21.000000 -0.332021 227.000000 0.668480 282.000000 0.339327
24226.000000 1.386471 151.000000 137.000000 1.000000 1.346268 83.000000 -0.010754 106.000000 -0.143827 122.000000 0.236706 18.000000 -0.197950 77.000000 0.047930 101.000000 -0.112526
24725.000000 1.491540 362.000000 159.000000 29.000000 -0.326894 106.000000 0.078432 129.000000 -0.081316 143.000000 -0.054421 14.000000 -0.203664 88.000000 0.095970 91.000000 0.085406
24884.000000 1.541207 159.000000 417.000000 358.000000 -0.027319 380.000000 0.058135 382.000000 0.012665 396.000000 0.012838 17.000000 -0.316599 117.000000 1.412117 149.000000 -0.456174
25301.000000 1.670692 417.000000 374.000000 202.000000 0.619153 225.000000 0.049092 289.000000 -0.051270 357.000000 0.120926 19.000000 -0.330546 207.000000 0.636866 289.000000 -0.051270
26001.000000 1.661942 326.000000 300.000000 234.000000 -0.055737 279.000000 0.063587 270.000000 -0.033483 277.000000 0.018069 5.000000 1.145970 84.000000 0.063690 96.000000 0.025554
26301.000000 1.896629 300.000000 520.000000 288.000000 0.598530 348.000000 0.321462 394.000000 -0.149857 500.000000 -0.132115 22.000000 -0.300014 223.000000 1.060047 288.000000 0.598530
26973.000000 1.247460 152.000000 244.000000 198.000000 -0.025826 215.000000 0.020991 216.000000 0.013483 227.000000 0.057243 16.000000 -0.215973 67.000000 0.087460 138.000000 -0.010797
27217.000000 1.138230 244.000000 302.000000 166.000000 0.167522 188.000000 0.178949 197.000000 0.128901 285.000000 0.019155 17.000000 -0.214310 169.000000 0.204357 190.000000 0.141222
28452.000000 1.517885 233.000000 184.000000 124.000000 -0.049640 160.000000 0.002883 159.000000 0.001489 166.000000 0.050706 19.000000 -0.377539 81.000000 0.056866 107.000000 -0.035830
28862.000000 1.577570 226.000000 163.000000 81.000000 0.043695 139.000000 0.060297 143.000000 0.050438 148.000000 0.125642 16.000000 -0.344578 84.000000 0.051658 134.000000 0.019450
29025.000000 1.793071 163.000000 317.000000 254.000000 -0.069062 293.000000 -0.033731 295.000000 -0.039938 299.000000 0.092225 17.000000 -0.247103 72.000000 0.081332 123.000000 -0.046358
29519.000000 1.858950 177.000000 266.000000 170.000000 0.013810 200.000000 0.115361 205.000000 0.072100 247.000000 0.003273 19.000000 -0.255125 71.000000 0.060909 148.000000 -0.024418
29785.000000 1.777398 266.000000 277.000000 223.000000 -0.085766 254.000000 -0.009031 246.000000 -0.115549 253.000000 -0.037887 18.000000 -0.297194 85.000000 0.007669 110.000000 -0.062489
30062.000000 1.828540 277.000000 219.000000 164.000000 -0.049641 198.000000 0.013415 195.000000 -0.044735 202.000000 0.239480 23.000000 -0.376320 77.000000 -0.013264 99.000000 -0.139785
30591.000000 1.172602 310.000000 418.000000 233.000000 0.740578 251.000000 0.228841 290.000000 -0.086771 410.000000 0.724609 18.000000 -0.165314 233.000000 0.740578 290.000000 -0.086771
31009.000000 1.448058 418.000000 240.000000 153.000000 -0.043983 175.000000 0.013543 180.000000 -0.006613 224.000000 0.118274 11.000000 -0.087634 85.000000 0.033838 116.000000 0.016784
31249.000000 1.610644 240.000000 329.000000 243.000000 -0.096192 272.000000 0.031801 296.000000 -0.033027 313.000000 0.217084 17.000000 -0.294889 72.000000 0.137102 73.000000 0.133090
31578.000000 1.140878 329.000000 272.000000 140.000000 -0.042677 171.000000 0.040017 173.000000 0.010141 253.000000 0.000657 14.000000 -0.142081 68.000000 0.082470 70.000000 0.077250
31850.000000 1.549388 272.000000 158.000000 81.000000 0.088686 114.000000 -0.011221 131.000000 -0.088887 145.000000 0.052539 18.000000 -0.305800 81.000000 0.088686 113.000000 -0.026315
32516.000000 2.040975 272.000000 211.000000 167.000000 0.037554 186.000000 0.045752 182.000000 0.007288 189.000000 0.008730 18.000000 -0.237928 90.000000 0.012510 136.000000 -0.074750
32985.000000 1.137993 258.000000 419.000000 234.000000 0.421976 347.000000 0.888279 348.000000 0.883797 402.000000 -0.121334 11.000000 -0.021975 220.000000 0.850251 262.000000 0.096442
33764.000000 1.935658 360.000000 194.000000 76.000000 -0.192163 132.000000 0.638090 157.000000 -2.012115 164.000000 -1.321128 21.000000 -0.259281 84.000000 -0.065705 123.000000 -0.004670
34723.000000 1.407038 142.000000 263.000000 116.000000 -0.144890 170.000000 0.073197 176.000000 0.072352 249.000000 0.247665 21.000000 -0.447477 73.000000 0.046741 74.000000 0.001192
34986.000000 1.076255 263.000000 237.000000 125.000000 0.013276 216.000000 0.829154 215.000000 0.765094 222.000000 1.029483 14.000000 -0.059951 133.000000 0.363338 223.000000 1.048856
35533.000000 1.445159 310.000000 260.000000 148.000000 -0.108949 212.000000 0.677116 214.000000 0.439326 239.000000 0.065863 18.000000 -0.276801 141.000000 0.431098 148.000000 -0.108949
36079.000000 1.262916 150.000000 217.000000 167.000000 -0.026223 192.000000 0.031740 193.000000 0.010345 197.000000 -0.029358 14.000000 -0.226787 127.000000 0.038230 167.000000 -0.026223
36296.000000 1.545656 217.000000 197.000000 137.000000 -0.213009 161.000000 -0.015908 170.000000 -0.085830 189.000000 0.280691 17.000000 -0.275518 108.000000 0.038417 137.000000 -0.213009
36920.000000 1.546506 158.000000 376.000000 224.000000 0.116144 261.000000 0.140328 265.000000 0.076049 369.000000 0.690175 13.000000 0.050159 141.000000 0.662055 143.000000 0.542258
37296.000000 1.154500 376.000000 472.000000 245.000000 0.651915 312.000000 0.310645 345.000000 -0.105970 459.000000 0.488402 6.000000 0.546412 245.000000 0.651915 311.000000 0.298200
38394.000000 1.008861 451.000000 474.000000 242.000000 0.560299 302.000000 0.409122 334.000000 -0.001803 461.000000 -0.069369 14.000000 -0.057895 240.000000 0.663246 248.000000 0.014484
40704.000000 0.951914 1619.000000 191.000000 105.000000 -0.080187 128.000000 0.560769 168.000000 -1.293103 175.000000 -0.088918 20.000000 -0.095875 68.000000 0.202227 105.000000 -0.080187
42659.000000 0.876381 223.000000 254.000000 212.000000 -0.038841 233.000000 0.171551 235.000000 0.347601 239.000000 0.213557 16.000000 -0.128382 66.000000 0.292819 70.000000 0.277835
43401.000000 0.904795 488.000000 439.000000 268.000000 -0.013749 296.000000 0.399277 300.000000 0.214277 425.000000 0.045988 15.000000 -0.122744 225.000000 0.626129 228.000000 0.607194
47062.000000 0.632649 154.000000 173.000000 66.000000 0.150783 152.000000 0.048591 152.000000 0.048591 159.000000 0.064375 19.000000 -0.365235 68.000000 0.186034 144.000000 -0.007211
48738.000000 0.736160 337.000000 322.000000 281.000000 -0.003493 301.000000 0.106694 302.000000 0.189516 308.000000 0.136083 30.000000 -0.206722 66.000000 0.283389 74.000000 0.207324
53355.000000 0.850908 186.000000 393.000000 352.000000 -0.022458 371.000000 0.335786 370.000000 0.276021 377.000000 0.003967 20.000000 -0.192180 69.000000 0.376335 101.000000 -0.054809
53748.000000 0.700033 393.000000 384.000000 329.000000 -0.061488 363.000000 0.309783 361.000000 0.227901 368.000000 0.031835 28.000000 -0.208652 77.000000 0.235468 116.000000 0.113448
54132.000000 0.755126 384.000000 197.000000 81.000000 0.363326 142.000000 0.195704 169.000000 -0.076474 182.000000 0.150312 17.000000 -0.049073 82.000000 0.400253 140.000000 -0.053104
54472.000000 0.926097 143.000000 275.000000 215.000000 0.071535 254.000000 0.107366 252.000000 0.056285 259.000000 0.344514 17.000000 -0.285612 79.000000 0.080328 98.000000 0.037493
55141.000000 1.280537 220.000000 283.000000 165.000000 0.023856 188.000000 0.057039 206.000000 0.024343 252.000000 -0.013117 21.000000 -0.292518 74.000000 0.037495 76.000000 -0.021111
55672.000000 1.573212 248.000000 138.000000 74.000000 0.006941 117.000000 0.081708 112.000000 -0.106724 119.000000 0.253213 21.000000 -0.350127 73.000000 0.011220 95.000000 -0.041019
55978.000000 0.999278 168.000000 253.000000 78.000000 0.048808 169.000000 0.035800 194.000000 -0.031471 239.000000 0.341819 15.000000 -0.215894 78.000000 0.048808 159.000000 -0.010814
56231.000000 1.466929 253.000000 223.000000 107.000000 -0.022976 202.000000 0.370974 167.000000 0.089721 174.000000 0.053327 18.000000 -0.179953 123.000000 0.144376 201.000000 0.319172
57527.000000 1.651832 257.000000 272.000000 172.000000 0.013634 195.000000 0.058870 197.000000 0.042053 248.000000 -0.037430 20.000000 -0.320662 76.000000 0.078147 99.000000 -0.020819
58580.000000 1.692056 234.000000 238.000000 183.000000 -0.017728 217.000000 0.068748 206.000000 0.016708 213.000000 -0.035439 20.000000 -0.249479 90.000000 0.068326 123.000000 -0.099985
59053.000000 0.756485 235.000000 313.000000 254.000000 0.016207 292.000000 0.047839 282.000000 -0.050186 289.000000 0.015174 14.000000 -0.158750 69.000000 0.133069 71.000000 0.101940
59632.000000 1.599580 266.000000 264.000000 174.000000 -0.033781 196.000000 -0.012401 213.000000 -0.078638 245.000000 0.024499 18.000000 -0.194075 84.000000 0.152369 112.000000 -0.053905
59896.000000 0.933356 264.000000 207.000000 107.000000 -0.019093 166.000000 0.002367 173.000000 -0.003542 189.000000 -0.010720 19.000000 -0.292882 77.000000 0.054059 78.000000 0.039137
60103.000000 0.949687 207.000000 313.000000 237.000000 0.015048 290.000000 0.084676 283.000000 0.065726 290.000000 0.084676 20.000000 -0.191347 80.000000 0.223496 142.000000 -0.056740
60612.000000 1.673325 196.000000 198.000000 89.000000 0.131305 170.000000 0.010880 175.000000 -0.024778 182.000000 0.218795 19.000000 -0.202209 87.000000 0.132590 89.000000 0.131305
61496.000000 1.525506 285.000000 197.000000 136.000000 -0.092585 168.000000 0.074263 168.000000 0.074263 175.000000 0.045219 20.000000 -0.321987 96.000000 0.054831 129.000000 -0.092631
61906.000000 0.725362 213.000000 212.000000 162.000000 -0.064357 191.000000 0.045125 185.000000 -0.014576 192.000000 0.038385 14.000000 -0.191910 76.000000 0.150049 94.000000 0.022808
62515.000000 1.527053 234.000000 271.000000 105.000000 0.025565 170.000000 0.041223 201.000000 0.006174 255.000000 0.093444 20.000000 -0.300770 84.000000 0.090487 104.000000 0.037006
62786.000000 1.151609 271.000000 285.000000 246.000000 -0.054543 264.000000 0.026774 268.000000 0.079392 271.000000 0.062418 17.000000 -0.243077 77.000000 0.101202 120.000000 -0.038466
63256.000000 1.280518 185.000000 287.000000 117.000000 0.067603 177.000000 0.133498 196.000000 0.018418 264.000000 -0.044089 17.000000 -0.111379 77.000000 0.154828 86.000000 0.125423
63747.000000 1.633604 204.000000 142.000000 54.000000 -0.297289 89.000000 -0.074169 102.000000 -0.164889 130.000000 0.023449 19.000000 -0.390205 77.000000 0.078589 144.000000 0.776271
64132.000000 0.995890 243.000000 222.000000 139.000000 -0.013762 172.000000 0.084859 175.000000 0.047633 191.000000 -0.018761 15.000000 -0.225379 124.000000 0.056787 153.000000 0.037336
65610.000000 0.918839 268.000000 266.000000 101.000000 0.012151 163.000000 -0.014293 169.000000 -0.020594 244.000000 -0.080626 14.000000 -0.161081 73.000000 0.145285 101.000000 0.012151
66211.000000 1.741473 168.000000 249.000000 124.000000 -0.043103 169.000000 0.039939 174.000000 0.031790 232.000000 -0.022614 18.000000 -0.173259 78.000000 0.168478 124.000000 -0.043103
66460.000000 0.819032 249.000000 231.000000 105.000000 0.026112 141.000000 0.035769 163.000000 0.013135 213.000000 0.063386 18.000000 -0.334682 105.000000 0.026112 141.000000 0.035769
66691.000000 1.279295 231.000000 197.000000 77.000000 0.014356 168.000000 0.035127 168.000000 0.035127 175.000000 0.022870 16.000000 -0.238229 76.000000 0.024873 82.000000 0.010861
66888.000000 1.599514 197.000000 173.000000 132.000000 -0.039465 151.000000 0.009798 148.000000 -0.037036 155.000000 0.068763 18.000000 -0.316803 80.000000 0.065846 108.000000 -0.036896
67061.000000 1.693449 173.000000 146.000000 96.000000 -0.022745 125.000000 0.067476 124.000000 0.050093 131.000000 0.177775 17.000000 -0.135643 75.000000 0.165030 96.000000 -0.022745
67207.000000 1.090111 146.000000 285.000000 143.000000 -0.410594 193.000000 0.065094 214.000000 -0.082006 266.000000 -0.027900 18.000000 -0.222961 120.000000 0.736206 151.000000 -0.407804
67778.000000 1.523753 286.000000 175.000000 132.000000 0.081680 150.000000 0.116256 150.000000 0.116256 157.000000 0.103199 17.000000 -0.292832 88.000000 0.046901 132.000000 0.081680
68102.000000 1.286942 149.000000 280.000000 159.000000 -0.038669 215.000000 0.029468 219.000000 0.010488 259.000000 -0.016629 18.000000 -0.222617 78.000000 0.083305 104.000000 -0.017401
68624.000000 1.518151 242.000000 250.000000 135.000000 -0.121537 178.000000 0.017804 203.000000 -0.028059 227.000000 -0.047698 19.000000 -0.294199 76.000000 0.081430 79.000000 0.049816
68874.000000 1.415155 250.000000 276.000000 140.000000 -0.026974 176.000000 0.018215 208.000000 -0.069467 261.000000 0.077039 18.000000 -0.239358 79.000000 0.124277 81.000000 0.086315
69150.000000 1.134595 276.000000 253.000000 140.000000 -0.069749 174.000000 -0.017365 180.000000 -0.037615 227.000000 -0.104668 16.000000 -0.246784 78.000000 0.080216 116.000000 -0.126837
69633.000000 1.164201 230.000000 255.000000 174.000000 0.023968 225.000000 0.122180 221.000000 0.062069 228.000000 0.088919 16.000000 -0.141819 81.000000 0.201440 141.000000 -0.010831
69888.000000 1.534184 255.000000 373.000000 203.000000 0.854692 224.000000 0.072122 275.000000 -0.111924 355.000000 -0.041599 20.000000 -0.090642 204.000000 0.884034 275.000000 -0.111924
70261.000000 1.601458 373.000000 264.000000 129.000000 -0.052066 173.000000 0.029075 224.000000 -0.043748 250.000000 0.190766 17.000000 -0.288463 101.000000 0.012812 130.000000 -0.037803
70525.000000 1.147317 264.000000 217.000000 141.000000 0.013932 168.000000 0.083651 185.000000 0.067662 194.000000 0.041095 14.000000 -0.166269 83.000000 0.096737 111.000000 0.000186
70742.000000 1.485955 217.000000 255.000000 115.000000 -0.153402 166.000000 0.046569 200.000000 -0.122568 241.000000 0.314954 18.000000 -0.205112 77.000000 0.094183 115.000000 -0.153402
71620.000000 1.553683 227.000000 304.000000 242.000000 -0.010623 283.000000 0.143983 282.000000 0.110112 289.000000 0.296178 17.000000 -0.239940 80.000000 0.035345 105.000000 -0.037384
72091.000000 1.273530 167.000000 268.000000 100.000000 -0.093130 178.000000 0.014217 201.000000 -0.002507 244.000000 -0.016097 21.000000 -0.246249 71.000000 0.011023 101.000000 -0.094901
72760.000000 1.307608 240.000000 200.000000 129.000000 -0.008308 176.000000 0.053574 180.000000 0.052415 187.000000 0.378560 20.000000 -0.227705 116.000000 0.036318 129.000000 -0.008308
72960.000000 1.537086 200.000000 211.000000 117.000000 -0.186693 190.000000 0.005220 173.000000 -0.045313 180.000000 -0.019200 18.000000 -0.201565 78.000000 -0.067317 80.000000 -0.083383
73827.000000 1.492928 177.000000 222.000000 171.000000 -0.008086 201.000000 0.065789 198.000000 0.021651 205.000000 0.204034 21.000000 -0.260868 74.000000 -0.000964 95.000000 -0.129505
74049.000000 1.318642 222.000000 163.000000 93.000000 0.046505 142.000000 0.112730 128.000000 -0.044341 135.000000 -0.004278 20.000000 -0.310404 93.000000 0.046505 161.000000 1.172368
74212.000000 1.242070 163.000000 555.000000 497.000000 -0.034564 534.000000 0.130340 520.000000 0.004619 527.000000 0.050731 30.000000 -0.374059 204.000000 0.751566 241.000000 -0.198856
75153.000000 1.318513 229.000000 327.000000 281.000000 -0.014888 306.000000 0.042932 301.000000 0.011725 308.000000 0.124452 20.000000 -0.229514 115.000000 0.048142 164.000000 -0.018038
75480.000000 1.597916 327.000000 271.000000 129.000000 -0.084466 167.000000 0.047335 168.000000 0.039341 248.000000 -0.056503 17.000000 -0.183574 83.000000 0.076065 87.000000 0.070893
76108.000000 1.163433 157.000000 149.000000 42.000000 -0.350204 90.000000 0.038997 107.000000 -0.083025 134.000000 0.164229 18.000000 -0.279263 84.000000 0.105031 107.000000 -0.083025
76257.000000 1.302913 149.000000 252.000000 179.000000 0.000175 229.000000 0.033294 233.000000 0.052321 240.000000 0.437367 15.000000 -0.181555 78.000000 0.117567 107.000000 -0.109327
76509.000000 1.576130 252.000000 196.000000 99.000000 0.008916 139.000000 0.071299 165.000000 -0.022523 183.000000 0.315626 19.000000 -0.345330 84.000000 0.073538 86.000000 0.065419
76705.000000 1.897052 196.000000 286.000000 204.000000 -0.069405 243.000000 0.030768 248.000000 0.018511 272.000000 0.180253 25.000000 -0.427854 82.000000 0.073116 108.000000 -0.141696
76991.000000 1.653574 286.000000 158.000000 119.000000 -0.019108 137.000000 0.124044 138.000000 0.154984 142.000000 -0.015658 9.000000 0.201803 77.000000 0.031145 82.000000 0.018919
77149.000000 1.608840 158.000000 417.000000 288.000000 -0.088542 320.000000 0.053086 355.000000 -0.091444 402.000000 0.244658 19.000000 -0.341364 119.000000 1.458277 189.000000 0.017917
77566.000000 1.520270 417.000000 546.000000 440.000000 -0.038810 486.000000 0.086976 505.000000 0.003936 525.000000 -0.009011 17.000000 -0.108897 234.000000 2.030690 374.000000 -0.364233
78112.000000 1.776962 546.000000 205.000000 105.000000 -0.049106 143.000000 0.217430 189.000000 0.496352 196.000000 0.775130 18.000000 -0.199512 102.000000 -0.016488 105.000000 -0.049106
78818.000000 1.614797 263.000000 468.000000 408.000000 0.005141 440.000000 0.117930 444.000000 0.094812 449.000000 0.155000 20.000000 -0.200986 206.000000 1.160721 260.000000 0.041758
79797.000000 1.221724 511.000000 272.000000 118.000000 0.002244 164.000000 0.069111 183.000000 0.035520 250.000000 -0.006155 18.000000 -0.219968 151.000000 0.082855 161.000000 0.054439
80998.000000 1.812789 691.000000 191.000000 98.000000 -0.042348 128.000000 1.032933 167.000000 0.333890 174.000000 0.579205 6.000000 0.956677 113.000000 0.022511 124.000000 0.710128
81643.000000 1.657663 258.000000 227.000000 165.000000 -0.011160 194.000000 0.026283 200.000000 -0.005396 205.000000 -0.025333 16.000000 -0.250895 110.000000 -0.034390 115.000000 -0.054563
81870.000000 1.739747 227.000000 260.000000 209.000000 -0.090452 239.000000 0.047148 228.000000 -0.030765 235.000000 -0.012475 18.000000 -0.321898 80.000000 0.096349 117.000000 -0.136489
82395.000000 1.422903 265.000000 274.000000 228.000000 -0.031550 253.000000 0.056351 239.000000 0.003293 246.000000 0.013278 21.000000 -0.341549 78.000000 0.110566 105.000000 -0.067446
82669.000000 1.246211 274.000000 303.000000 130.000000 0.028145 182.000000 0.014749 209.000000 -0.046095 278.000000 -0.027680 19.000000 -0.197677 86.000000 0.142534 113.000000 -0.017169
82972.000000 1.565078 303.000000 201.000000 134.000000 -0.057473 161.000000 0.008358 171.000000 -0.032096 178.000000 -0.014385 18.000000 -0.285329 84.000000 0.035865 102.000000 0.005348
83889.000000 1.795002 202.000000 161.000000 122.000000 -0.144592 140.000000 -0.077069 140.000000 -0.077069 147.000000 0.259968 16.000000 -0.339609 77.000000 0.052461 111.000000 -0.205078
84295.000000 1.633979 245.000000 268.000000 91.000000 0.095721 170.000000 0.095298 220.000000 -0.035377 251.000000 0.262181 20.000000 -0.250443 91.000000 0.095721 169.000000 0.088589
84815.000000 0.854611 252.000000 293.000000 239.000000 -0.017694 261.000000 0.039251 262.000000 0.023436 269.000000 -0.011471 18.000000 -0.201860 75.000000 0.166388 77.000000 0.160713
85108.000000 1.338184 293.000000 214.000000 141.000000 -0.093133 171.000000 0.055769 180.000000 0.019593 187.000000 -0.069090 17.000000 -0.213087 118.000000 0.062713 120.000000 0.038027
85322.000000 1.626100 214.000000 132.000000 39.000000 -0.422790 80.000000 0.156253 94.000000 -0.015989 112.000000 0.031534 17.000000 -0.226520 78.000000 0.141316 81.000000 0.126237
85592.000000 1.665172 138.000000 242.000000 135.000000 -0.091381 168.000000 0.024593 182.000000 -0.075001 227.000000 0.262097 18.000000 -0.241537 72.000000 0.100504 74.000000 0.086836
85834.000000 1.234560 242.000000 217.000000 114.000000 0.074780 137.000000 0.076157 156.000000 0.005390 202.000000 0.147399 17.000000 -0.293888 82.000000 0.128998 114.000000 0.074780
86051.000000 0.952840 217.000000 242.000000 146.000000 -0.059438 171.000000 -0.027555 180.000000 -0.058512 215.000000 -0.104999 14.000000 -0.128008 81.000000 0.127849 124.000000 -0.049628
86491.000000 1.816849 198.000000 321.000000 210.000000 -0.017693 259.000000 0.071897 279.000000 0.001770 293.000000 -0.025393 19.000000 -0.282649 80.000000 0.066880 84.000000 0.050799
86812.000000 1.727020 321.000000 278.000000 95.000000 0.038695 167.000000 0.112413 184.000000 0.046472 262.000000 0.195001 27.000000 -0.388467 162.000000 0.096988 184.000000 0.046472
87090.000000 1.051458 278.000000 233.000000 111.000000 -0.028886 182.000000 0.037601 203.000000 -0.044106 212.000000 0.011096 15.000000 -0.186283 74.000000 0.145158 111.000000 -0.028886
87614.000000 1.806551 291.000000 255.000000 190.000000 -0.013978 234.000000 0.061584 223.000000 0.004045 230.000000 0.029908 18.000000 -0.347102 78.000000 0.034497 105.000000 -0.043418
88378.000000 1.321609 250.000000 158.000000 83.000000 0.083010 136.000000 0.132963 131.000000 -0.008307 138.000000 -0.006708 16.000000 -0.267622 81.000000 0.103699 83.000000 0.083010
88536.000000 1.270598 158.000000 251.000000 118.000000 -0.089734 181.000000 0.074266 204.000000 -0.036550 228.000000 -0.026642 19.000000 -0.271016 80.000000 0.072588 82.000000 0.049578
88787.000000 1.677431 251.000000 222.000000 130.000000 0.060939 170.000000 0.131129 185.000000 0.064859 215.000000 1.138340 24.000000 -0.471833 110.000000 0.067836 130.000000 0.060939
89009.000000 1.780755 222.000000 228.000000 131.000000 -0.119372 165.000000 0.019639 173.000000 -0.007744 215.000000 0.190673 12.000000 -0.093541 93.000000 -0.006470 111.000000 -0.041299
89791.000000 1.183261 130.000000 138.000000 0.000000 1.183261 84.000000 0.078903 96.000000 0.029797 119.000000 -0.002884 14.000000 -0.297335 78.000000 0.075298 80.000000 0.052931
90073.000000 1.653245 144.000000 231.000000 170.000000 -0.225470 210.000000 0.062662 211.000000 0.071377 218.000000 -0.051178 16.000000 -0.307320 122.000000 1.231334 167.000000 -0.248150
90513.000000 1.107414 209.000000 269.000000 98.000000 0.093560 167.000000 0.147373 209.000000 -0.049164 248.000000 0.004955 14.000000 -0.241849 154.000000 0.136494 162.000000 0.118941
90782.000000 1.547413 269.000000 301.000000 244.000000 -0.042116 280.000000 0.059595 271.000000 0.005692 278.000000 0.044501 15.000000 -0.249549 88.000000 0.044572 97.000000 0.015528
91386.000000 1.130443 303.000000 241.000000 195.000000 -0.019498 217.000000 0.030597 211.000000 -0.005923 218.000000 0.007540 16.000000 -0.239902 74.000000 0.116572 150.000000 -0.064808
93193.000000 1.716268 357.000000 237.000000 113.000000 0.031007 173.000000 0.050472 175.000000 0.030816 212.000000 -0.010799 20.000000 -0.291270 114.000000 0.033123 171.000000 0.029296
94249.000000 1.566834 293.000000 213.000000 114.000000 -0.067225 167.000000 0.034828 183.000000 -0.090377 197.000000 0.186396 20.000000 -0.468700 89.000000 -0.036632 114.000000 -0.067225
94462.000000 1.256050 213.000000 208.000000 145.000000 -0.039746 171.000000 0.057744 178.000000 0.018339 185.000000 -0.018732 18.000000 -0.329280 111.000000 0.056162 118.000000 0.044972
94670.000000 1.727317 208.000000 321.000000 262.000000 0.044669 281.000000 0.065312 289.000000 -0.033185 310.000000 0.568367 18.000000 -0.273027 77.000000 0.095878 78.000000 0.080878
94991.000000 1.898369 321.000000 291.000000 147.000000 -0.056413 181.000000 0.041175 185.000000 0.020532 278.000000 0.344450 7.000000 1.024514 122.000000 0.101864 147.000000 -0.056413
95282.000000 1.284197 291.000000 356.000000 288.000000 0.024923 335.000000 0.175504 333.000000 0.107495 340.000000 0.340755 16.000000 -0.250299 83.000000 0.066284 109.000000 -0.025877
95638.000000 1.558062 356.000000 176.000000 134.000000 -0.022856 153.000000 0.065169 149.000000 -0.092354 156.000000 -0.040724 19.000000 -0.311814 92.000000 0.012227 118.000000 0.029137
95814.000000 1.711141 176.000000 443.000000 238.000000 0.023181 288.000000 0.016141 289.000000 0.002081 420.000000 -0.034389 17.000000 -0.193152 125.000000 1.372788 198.000000 0.159027
97637.000000 1.536208 243.000000 293.000000 232.000000 -0.067870 252.000000 0.024325 258.000000 0.000390 269.000000 -0.016664 17.000000 -0.198761 84.000000 0.048950 86.000000 0.039075
97930.000000 1.501421 293.000000 219.000000 140.000000 -0.100471 194.000000 -0.020814 192.000000 -0.033134 199.000000 0.002038 19.000000 -0.263752 110.000000 -0.041429 160.000000 -0.093261
98412.000000 1.477804 263.000000 285.000000 243.000000 -0.031005 264.000000 0.090781 258.000000 0.037458 265.000000 0.080468 21.000000 -0.241019 78.000000 0.070159 82.000000 0.048310
98697.000000 1.309638 285.000000 153.000000 -1.000000 1.286879 93.000000 0.032619 116.000000 -0.085060 139.000000 0.028858 18.000000 -0.306617 80.000000 0.111990 81.000000 0.087304
99113.000000 1.299434 134.000000 132.000000 39.000000 -0.359404 83.000000 0.011100 92.000000 -0.028399 113.000000 0.029595 21.000000 -0.363119 78.000000 0.012714 92.000000 -0.028399
99245.000000 1.288151 132.000000 418.000000 349.000000 0.058029 397.000000 0.106005 386.000000 -0.043225 393.000000 0.011256 18.000000 -0.287600 78.000000 0.078071 81.000000 0.050752
100693.000000 1.581035 301.000000 427.000000 387.000000 0.000988 406.000000 0.071489 404.000000 0.036238 411.000000 0.291944 19.000000 -0.372616 136.000000 0.132323 139.000000 0.107417
101522.000000 1.668467 176.000000 255.000000 203.000000 -0.034950 234.000000 0.130396 228.000000 -0.026250 235.000000 0.185098 19.000000 -0.329950 86.000000 -0.002740 87.000000 -0.010859
102629.000000 1.750237 322.000000 224.000000 144.000000 -0.072633 161.000000 -0.023604 168.000000 -0.034685 206.000000 -0.014044 16.000000 -0.278351 120.000000 -0.051848 131.000000 -0.062350
102853.000000 1.779060 224.000000 255.000000 212.000000 -0.055253 234.000000 0.070735 226.000000 0.025594 233.000000 0.049701 16.000000 -0.264969 82.000000 0.028321 85.000000 -0.004547
103108.000000 1.800344 255.000000 404.000000 209.000000 1.077210 276.000000 -0.009151 301.000000 -0.081281 383.000000 -0.009995 18.000000 -0.228355 210.000000 1.085580 272.000000 -0.041705
103512.000000 1.618170 404.000000 504.000000 225.000000 0.848495 345.000000 0.909200 410.000000 -0.050140 490.000000 0.240108 18.000000 -0.239699 225.000000 0.848495 342.000000 0.896174
104204.000000 1.688653 188.000000 317.000000 260.000000 -0.076864 283.000000 -0.008120 287.000000 -0.069592 293.000000 -0.092508 19.000000 -0.172962 85.000000 0.042749 93.000000 0.014851
104521.000000 1.716643 317.000000 182.000000 141.000000 0.051412 160.000000 0.080299 154.000000 0.026757 161.000000 0.064672 18.000000 -0.423388 92.000000 0.005078 116.000000 -0.017336
105105.000000 1.907099 402.000000 201.000000 129.000000 -0.105377 180.000000 0.096804 156.000000 -2.937005 163.000000 -2.691315 18.000000 -0.147071 96.000000 0.014967 102.000000 -0.009124
105585.000000 1.676493 279.000000 237.000000 162.000000 0.041977 179.000000 0.042824 194.000000 -0.069212 222.000000 0.338073 17.000000 -0.286610 114.000000 0.050818 123.000000 0.018625
105822.000000 1.399893 237.000000 189.000000 121.000000 -0.040969 166.000000 0.055096 170.000000 0.041930 177.000000 0.513653 17.000000 -0.298259 88.000000 0.121961 122.000000 -0.020937
106011.000000 1.730658 189.000000 248.000000 199.000000 -0.115252 227.000000 0.048321 222.000000 -0.049892 229.000000 0.169967 18.000000 -0.167198 85.000000 0.033916 110.000000 -0.157507
107105.000000 1.761412 234.000000 281.000000 168.000000 -0.049967 202.000000 0.269702 235.000000 0.044373 259.000000 0.018481 20.000000 -0.416456 93.000000 0.169703 168.000000 -0.049967
107386.000000 1.989578 281.000000 267.000000 227.000000 -0.035300 244.000000 0.028195 240.000000 0.002709 247.000000 0.010217 23.000000 -0.323965 86.000000 0.223948 102.000000 0.038257
107653.000000 1.859187 267.000000 189.000000 127.000000 -0.117806 164.000000 -0.014732 155.000000 -0.055626 162.000000 -0.094716 17.000000 -0.320076 87.000000 0.033514 127.000000 -0.117806
108206.000000 1.439111 364.000000 269.000000 92.000000 0.136376 162.000000 0.084715 190.000000 -0.022949 255.000000 0.404010 20.000000 -0.316957 97.000000 0.136501 159.000000 0.092113
108475.000000 1.635767 269.000000 231.000000 167.000000 -0.048603 210.000000 0.574610 211.000000 0.609609 218.000000 0.762665 16.000000 -0.254751 128.000000 0.144956 167.000000 -0.048603
109110.000000 1.074389 302.000000 265.000000 220.000000 0.072398 244.000000 0.205863 236.000000 0.119985 243.000000 0.200251 18.000000 -0.462775 98.000000 -0.010988 119.000000 -0.116598
113445.000000 1.324140 187.000000 655.000000 353.000000 -0.020330 443.000000 1.173462 557.000000 -0.082160 627.000000 -0.012927 15.000000 -0.227570 238.000000 0.996226 316.000000 0.094767
114100.000000 1.588717 655.000000 251.000000 143.000000 0.017570 166.000000 0.085581 186.000000 0.001726 234.000000 0.147603 24.000000 -0.347787 93.000000 0.052083 119.000000 -0.002696
115474.000000 1.480394 176.000000 537.000000 298.000000 -0.224813 347.000000 0.164358 414.000000 0.023617 526.000000 0.503070 20.000000 -0.260044 267.000000 0.869093 298.000000 -0.224813
117007.000000 1.446804 421.000000 271.000000 127.000000 -0.053438 174.000000 0.112477 197.000000 0.012634 250.000000 0.046972 15.000000 -0.171113 103.000000 0.077046 127.000000 -0.053438
117734.000000 0.996192 210.000000 278.000000 134.000000 0.712225 202.000000 0.143227 237.000000 -0.031804 268.000000 0.237699 13.000000 -0.226112 133.000000 0.731285 138.000000 0.441849
118012.000000 1.268514 278.000000 224.000000 162.000000 -0.078889 189.000000 0.039121 193.000000 0.015359 200.000000 -0.007132 9.000000 0.065835 69.000000 0.001002 73.000000 -0.043340
118236.000000 1.471645 224.000000 142.000000 83.000000 -0.030844 121.000000 0.127748 117.000000 0.053767 124.000000 0.080507 19.000000 -0.297101 79.000000 -0.010233 94.000000 -0.109447
118378.000000 1.268077 142.000000 164.000000 108.000000 -0.109231 142.000000 -0.017318 135.000000 -0.052209 142.000000 -0.017318 18.000000 -0.426061 81.000000 -0.043354 93.000000 -0.072445
118764.000000 1.107070 222.000000 276.000000 235.000000 -0.020803 254.000000 0.051516 241.000000 -0.012089 248.000000 -0.003061 16.000000 -0.204262 86.000000 0.104576 172.000000 0.024513
119299.000000 1.636020 259.000000 344.000000 213.000000 -0.033918 282.000000 0.050030 288.000000 0.033384 328.000000 0.218259 21.000000 -0.285484 88.000000 0.125113 131.000000 -0.107790
119918.000000 1.494187 275.000000 267.000000 203.000000 -0.065771 227.000000 0.040373 234.000000 -0.015912 246.000000 0.008212 21.000000 -0.286518 77.000000 0.057638 167.000000 -0.027574
120185.000000 1.652775 267.000000 178.000000 121.000000 -0.058335 157.000000 0.059439 148.000000 -0.062567 155.000000 0.018999 17.000000 -0.253510 73.000000 0.068545 75.000000 0.018059
120363.000000 1.861081 178.000000 246.000000 163.000000 -0.068999 202.000000 -0.028073 205.000000 -0.079249 225.000000 -0.044388 19.000000 -0.233480 75.000000 0.060374 163.000000 -0.068999
121024.000000 1.488369 167.000000 248.000000 207.000000 0.083274 227.000000 0.104746 225.000000 0.074996 232.000000 0.245027 23.000000 -0.266582 82.000000 0.102183 87.000000 0.094440
121713.000000 1.156909 165.000000 131.000000 29.000000 -0.289530 82.000000 0.087209 104.000000 -0.054451 114.000000 -0.008636 18.000000 -0.245942 75.000000 0.101457 89.000000 0.011864
122076.000000 1.655564 232.000000 316.000000 268.000000 0.011975 295.000000 0.052149 285.000000 0.007587 292.000000 -0.008572 17.000000 -0.319265 96.000000 0.121603 115.000000 0.052967
122392.000000 1.842871 316.000000 646.000000 588.000000 -0.022678 620.000000 0.047214 614.000000 0.039299 621.000000 0.029376 20.000000 -0.195673 212.000000 0.907241 343.000000 0.877460
123038.000000 1.672181 646.000000 208.000000 134.000000 -0.072538 187.000000 0.582666 164.000000 -2.480501 171.000000 -1.651756 23.000000 -0.185705 95.000000 -0.038684 97.000000 -0.062978
123622.000000 1.515188 161.000000 134.000000 31.000000 -0.314579 81.000000 0.018967 99.000000 -0.031471 119.000000 0.130300 16.000000 -0.226348 79.000000 0.014719 99.000000 -0.031471
123894.000000 1.297574 138.000000 131.000000 71.000000 0.030034 108.000000 0.068640 110.000000 0.042669 117.000000 0.269333 18.000000 -0.339293 72.000000 0.048529 131.000000 1.303519
124025.000000 1.303519 131.000000 240.000000 178.000000 0.010281 205.000000 0.047132 210.000000 0.028700 219.000000 -0.004952 17.000000 -0.297768 79.000000 0.051476 103.000000 -0.024469
124265.000000 1.614125 240.000000 181.000000 85.000000 0.045238 139.000000 0.060066 143.000000 0.033985 158.000000 0.042933 19.000000 -0.328023 85.000000 0.045238 129.000000 0.023984
124684.000000 1.772691 238.000000 331.000000 292.000000 -0.046381 310.000000 0.037490 315.000000 0.199026 316.000000 0.188179 20.000000 -0.338736 110.000000 0.011695 112.000000 -0.028634
125015.000000 1.893824 331.000000 200.000000 145.000000 -0.062648 169.000000 0.029644 170.000000 0.014016 177.000000 -0.052160 19.000000 -0.333323 108.000000 -0.036849 111.000000 -0.044169
125215.000000 1.970866 200.000000 142.000000 78.000000 0.041928 121.000000 0.022631 112.000000 -0.087714 119.000000 -0.017416 17.000000 -0.269682 77.000000 0.061975 82.000000 0.022006
125735.000000 1.876739 378.000000 174.000000 117.000000 -0.020596 149.000000 0.277872 147.000000 0.193608 154.000000 -0.167912 21.000000 -0.436269 103.000000 -0.047022 117.000000 -0.020596
126911.000000 1.816462 307.000000 326.000000 164.000000 -0.038980 216.000000 0.885895 220.000000 0.875942 311.000000 0.226272 18.000000 -0.203005 194.000000 0.098606 220.000000 0.875942
127415.000000 1.989151 178.000000 235.000000 144.000000 -0.048450 179.000000 0.054454 195.000000 0.019265 214.000000 0.019483 19.000000 -0.177590 78.000000 0.021591 114.000000 -0.084206
127650.000000 1.704481 235.000000 319.000000 262.000000 -0.070676 298.000000 0.053495 287.000000 -0.092055 294.000000 -0.057963 17.000000 -0.182198 131.000000 0.073467 150.000000 -0.011643
127969.000000 1.775785 319.000000 226.000000 127.000000 -0.160874 167.000000 0.011287 192.000000 -0.082164 204.000000 -0.065017 20.000000 -0.332647 112.000000 -0.073100 127.000000 -0.160874
128195.000000 1.969046 226.000000 289.000000 233.000000 -0.018136 268.000000 0.019137 257.000000 -0.041771 264.000000 0.012398 21.000000 -0.377192 78.000000 0.071225 104.000000 -0.060954
128484.000000 1.719109 289.000000 240.000000 121.000000 -0.039308 155.000000 0.055832 192.000000 0.003702 220.000000 0.070973 23.000000 -0.328196 143.000000 0.032870 152.000000 0.012602
130501.000000 1.672324 647.000000 356.000000 262.000000 0.005749 309.000000 0.043758 310.000000 0.033209 345.000000 0.504165 19.000000 -0.292677 76.000000 0.076911 81.000000 0.065784
130857.000000 1.641187 356.000000 249.000000 168.000000 -0.019987 193.000000 0.003229 209.000000 -0.046815 225.000000 -0.039543 21.000000 -0.323201 79.000000 0.053635 110.000000 -0.041472
131106.000000 1.716508 249.000000 238.000000 136.000000 -0.127896 185.000000 0.012805 210.000000 -0.082054 213.000000 -0.048449 19.000000 -0.294995 76.000000 0.058029 77.000000 0.052778
131344.000000 1.737473 238.000000 414.000000 338.000000 -0.031738 393.000000 0.090533 383.000000 -0.011190 390.000000 0.065094 24.000000 -0.311162 168.000000 0.081583 171.000000 0.075360
131758.000000 1.681675 414.000000 273.000000 140.000000 -0.042866 191.000000 0.039686 241.000000 -0.058905 258.000000 0.326171 16.000000 -0.294137 161.000000 0.034857 184.000000 0.022648
132031.000000 1.380214 273.000000 333.000000 284.000000 0.037711 308.000000 0.105702 302.000000 0.030971 309.000000 0.100608 23.000000 -0.338391 88.000000 0.151363 169.000000 -0.038921
132364.000000 1.593258 333.000000 282.000000 96.000000 -0.024370 174.000000 -0.021659 225.000000 -0.084091 257.000000 -0.046643 22.000000 -0.301287 83.000000 0.073246 101.000000 -0.016861
132646.000000 1.760020 282.000000 323.000000 277.000000 -0.068528 299.000000 0.041065 291.000000 -0.082305 298.000000 0.037445 21.000000 -0.334791 83.000000 0.019658 99.000000 -0.030767
133555.000000 1.282743 352.000000 292.000000 242.000000 -0.060548 271.000000 0.032979 266.000000 0.020173 273.000000 0.044249 19.000000 -0.248180 86.000000 0.048203 88.000000 0.046556
134074.000000 1.744120 227.000000 331.000000 276.000000 -0.092067 299.000000 -0.028683 304.000000 -0.047695 308.000000 -0.066348 25.000000 -0.266367 89.000000 0.148354 113.000000 0.011677
134626.000000 1.847069 221.000000 192.000000 86.000000 0.015252 168.000000 0.094500 155.000000 0.028795 162.000000 0.063325 20.000000 -0.330876 83.000000 0.072353 86.000000 0.015252
134818.000000 1.508326 192.000000 238.000000 179.000000 -0.023448 199.000000 0.010908 202.000000 -0.003543 226.000000 0.130422 23.000000 -0.246925 78.000000 0.096648 144.000000 -0.017256
135615.000000 1.722260 321.000000 168.000000 105.000000 -0.061054 138.000000 0.218242 140.000000 0.136909 147.000000 -0.249171 20.000000 -0.346754 97.000000 -0.027575 113.000000 0.013477
136299.000000 1.287292 516.000000 209.000000 113.000000 -0.022067 151.000000 0.239045 168.000000 -2.371598 175.000000 -1.932616 18.000000 -0.106093 89.000000 0.040989 92.000000 0.028105
137223.000000 1.162570 178.000000 130.000000 82.000000 -0.021300 109.000000 0.024718 108.000000 0.016223 115.000000 -0.213761 14.000000 -0.176833 70.000000 0.052965 91.000000 -0.080235
137353.000000 0.987242 130.000000 344.000000 179.000000 -0.079047 217.000000 0.083868 233.000000 -0.025567 320.000000 0.035050 13.000000 -0.124201 117.000000 1.270937 119.000000 1.248507
137697.000000 1.486085 344.000000 157.000000 108.000000 0.061539 136.000000 0.161726 133.000000 0.091397 140.000000 -0.016034 20.000000 -0.433900 89.000000 0.045960 92.000000 0.013766
138386.000000 0.923414 145.000000 385.000000 301.000000 0.057525 318.000000 0.059514 339.000000 -0.076256 372.000000 0.333889 22.000000 -0.188607 117.000000 1.131049 119.000000 1.080923
139045.000000 1.863840 274.000000 391.000000 340.000000 -0.212774 367.000000 -0.068575 369.000000 -0.105410 376.000000 0.081738 18.000000 -0.249640 205.000000 0.907261 260.000000 -0.165464
139436.000000 1.152116 391.000000 201.000000 149.000000 0.029593 174.000000 0.104860 173.000000 0.096835 180.000000 0.096302 16.000000 -0.273652 103.000000 0.067712 105.000000 0.023809
139637.000000 1.392257 201.000000 172.000000 74.000000 0.108057 148.000000 0.007290 141.000000 -0.018901 148.000000 0.007290 18.000000 -0.334342 75.000000 0.117619 142.000000 -0.019120
140288.000000 1.426240 250.000000 282.000000 165.000000 0.004983 220.000000 0.295251 235.000000 -0.191050 270.000000 0.287556 19.000000 -0.237554 89.000000 0.065297 165.000000 0.004983
140570.000000 0.995487 282.000000 321.000000 261.000000 0.074514 294.000000 0.430096 303.000000 0.052557 310.000000 1.001539 12.000000 -0.184717 97.000000 0.315220 144.000000 -0.053323
143056.000000 1.463605 256.000000 177.000000 89.000000 0.100190 109.000000 0.050362 129.000000 -0.082507 162.000000 0.165675 19.000000 -0.310800 88.000000 0.115112 89.000000 0.100190
144537.000000 0.727036 225.000000 162.000000 105.000000 0.085031 139.000000 0.173261 138.000000 0.158684 145.000000 -0.351082 13.000000 -0.221349 88.000000 0.132539 105.000000 0.085031
144699.000000 0.961521 162.000000 232.000000 129.000000 0.009872 153.000000 0.066598 157.000000 -0.005565 216.000000 0.213920 25.000000 -0.263258 70.000000 0.134029 104.000000 -0.030626
145320.000000 1.065205 389.000000 204.000000 142.000000 0.007164 163.000000 0.099216 168.000000 0.080908 190.000000 0.240233 9.000000 -0.001833 84.000000 0.059748 89.000000 0.036175
145524.000000 0.748039 204.000000 249.000000 131.000000 0.813717 197.000000 0.140331 215.000000 -0.082053 234.000000 -0.032383 14.000000 -0.217571 130.000000 0.842667 131.000000 0.813717
146047.000000 1.330219 131.000000 245.000000 120.000000 1.216380 190.000000 0.068889 191.000000 0.062698 230.000000 0.410910 16.000000 -0.268856 121.000000 1.222556 191.000000 0.062698
147025.000000 1.794732 269.000000 241.000000 144.000000 -0.127347 173.000000 0.001868 176.000000 -0.020405 225.000000 0.264076 25.000000 -0.293641 84.000000 0.099967 113.000000 -0.069687
147266.000000 1.296974 241.000000 230.000000 147.000000 -0.109642 209.000000 0.084764 207.000000 0.013588 214.000000 0.260548 17.000000 -0.297978 78.000000 -0.029249 147.000000 -0.109642
147752.000000 1.799813 256.000000 195.000000 95.000000 -0.003980 125.000000 0.247604 155.000000 -0.551942 162.000000 -0.253119 21.000000 -0.285734 112.000000 0.054092 124.000000 0.238074
148438.000000 1.263355 309.000000 129.000000 87.000000 -0.001834 108.000000 0.058181 96.000000 -0.017837 103.000000 0.026443 17.000000 -0.238932 74.000000 -0.077584 92.000000 -0.003685
148567.000000 0.880328 129.000000 206.000000 84.000000 1.680795 125.000000 0.099167 161.000000 -0.115501 184.000000 -0.262319 23.000000 -2.058860 83.000000 1.684871 92.000000 1.489258
148773.000000 1.263544 206.000000 141.000000 93.000000 -0.141017 120.000000 0.117838 122.000000 0.183136 125.000000 0.012650 17.000000 -0.538448 80.000000 -0.112083 81.000000 -0.121613
149177.000000 1.689234 263.000000 210.000000 106.000000 -0.271127 145.000000 -0.120547 148.000000 -0.175358 202.000000 0.689123 21.000000 -0.262617 90.000000 -0.096018 92.000000 -0.133385
149855.000000 1.605596 280.000000 321.000000 211.000000 0.048948 258.000000 0.087332 263.000000 0.072080 304.000000 0.168646 16.000000 -0.169528 85.000000 0.205503 87.000000 0.190143
150384.000000 1.881695 208.000000 179.000000 74.000000 0.116570 125.000000 -0.051895 129.000000 -0.195625 158.000000 -0.100204 20.000000 -0.368369 75.000000 0.119046 129.000000 -0.195625
150960.000000 1.497964 397.000000 250.000000 134.000000 0.011506 173.000000 0.104436 207.000000 -0.102787 215.000000 -0.108681 19.000000 -0.408134 143.000000 0.078638 158.000000 -0.056316
151210.000000 1.717604 250.000000 252.000000 208.000000 0.004844 229.000000 0.073543 233.000000 0.105062 240.000000 0.582007 25.000000 -0.374090 71.000000 0.089108 79.000000 -0.010845
152326.000000 1.779671 186.000000 205.000000 144.000000 -0.024890 175.000000 0.106018 179.000000 0.078886 186.000000 0.055156 18.000000 -0.262929 65.000000 0.160268 68.000000 0.142854
152531.000000 1.575799 205.000000 242.000000 93.000000 -0.161332 149.000000 -0.047490 150.000000 -0.064026 222.000000 -0.101457 15.000000 -0.259295 77.000000 -0.018259 93.000000 -0.161332
153038.000000 1.687509 265.000000 287.000000 185.000000 0.048449 211.000000 0.125659 215.000000 0.060361 273.000000 0.443527 22.000000 -0.338807 111.000000 0.215456 149.000000 0.011553
153325.000000 1.605689 287.000000 236.000000 129.000000 0.145250 215.000000 0.728058 216.000000 0.753011 223.000000 0.959547 18.000000 -0.257085 133.000000 0.331975 236.000000 0.819061
153858.000000 1.386959 297.000000 265.000000 142.000000 0.034092 166.000000 0.153622 181.000000 0.012227 236.000000 -0.038132 18.000000 -0.351270 155.000000 0.101835 167.000000 0.151350
154123.000000 1.693968 265.000000 494.000000 254.000000 0.128059 339.000000 1.023545 395.000000 -0.089168 474.000000 -0.159687 20.000000 -0.247773 219.000000 0.976442 259.000000 0.178295
154617.000000 1.666565 494.000000 249.000000 176.000000 -0.067931 193.000000 -0.042006 208.000000 -0.123117 220.000000 -0.134042 20.000000 -0.494532 139.000000 -0.040390 159.000000 -0.088919
154866.000000 1.940049 249.000000 146.000000 77.000000 -0.084372 106.000000 -0.032489 111.000000 -0.049228 133.000000 0.143467 24.000000 -0.489903 78.000000 -0.081738 111.000000 -0.049228
155489.000000 1.843498 225.000000 391.000000 303.000000 -0.044230 354.000000 0.020769 360.000000 -0.003431 369.000000 -0.009402 17.000000 -0.226330 79.000000 0.049204 137.000000 -0.190684
155880.000000 2.047462 391.000000 217.000000 124.000000 0.001321 166.000000 0.077589 170.000000 0.055017 194.000000 -0.012036 17.000000 -0.257694 113.000000 0.023798 119.000000 0.010287
156097.000000 1.912430 217.000000 346.000000 216.000000 -0.039561 261.000000 0.066208 266.000000 0.041161 332.000000 0.375206 22.000000 -0.363778 81.000000 0.157757 122.000000 -0.043324
156443.000000 1.685456 346.000000 266.000000 95.000000 0.058763 160.000000 0.052351 190.000000 -0.003339 253.000000 0.365128 18.000000 -0.365156 100.000000 0.070049 165.000000 0.017916
156709.000000 1.715362 266.000000 241.000000 150.000000 -0.080316 178.000000 0.069670 183.000000 0.028415 214.000000 -0.068452 20.000000 -0.310781 76.000000 0.135222 79.000000 0.097541
156950.000000 1.883494 241.000000 255.000000 125.000000 -0.281211 188.000000 -0.025423 199.000000 -0.055078 232.000000 -0.109858 22.000000 -0.413779 80.000000 -0.008232 111.000000 -0.242213
157721.000000 1.847901 360.000000 211.000000 120.000000 -0.185612 148.000000 0.371928 171.000000 -2.440110 178.000000 -1.775925 20.000000 -0.234529 88.000000 -0.057400 89.000000 -0.063779
158357.000000 1.562275 253.000000 251.000000 135.000000 -0.116204 166.000000 0.014484 174.000000 -0.003166 225.000000 -0.040547 24.000000 -0.310656 83.000000 0.039454 114.000000 -0.041094
159143.000000 1.746417 276.000000 314.000000 235.000000 -0.070674 256.000000 0.033575 270.000000 -0.035315 299.000000 0.336864 21.000000 -0.466198 112.000000 0.015067 114.000000 -0.008805
160201.000000 1.648230 338.000000 207.000000 133.000000 -0.060675 182.000000 0.089782 179.000000 0.031694 186.000000 0.056632 17.000000 -0.252538 122.000000 0.004326 133.000000 -0.060675
160408.000000 1.933041 207.000000 277.000000 220.000000 -0.052713 256.000000 0.061784 254.000000 -0.011116 261.000000 0.380499 22.000000 -0.400359 90.000000 0.095598 130.000000 -0.219074
160685.000000 1.877271 277.000000 268.000000 126.000000 -0.123135 220.000000 0.885265 249.000000 0.240987 256.000000 -0.019139 21.000000 -0.293198 130.000000 0.187931 219.000000 0.870986
161193.000000 1.866080 240.000000 193.000000 122.000000 -0.093824 172.000000 0.465894 156.000000 -2.109262 163.000000 -1.216958 18.000000 -0.177963 114.000000 -0.047961 128.000000 0.087415
162929.000000 1.852491 399.000000 199.000000 121.000000 -0.185879 178.000000 0.199795 163.000000 -1.956223 170.000000 -1.258355 18.000000 -0.169561 117.000000 -0.155518 131.000000 -0.067760
163696.000000 1.042132 362.000000 331.000000 275.000000 -0.042494 304.000000 0.024077 296.000000 -0.013275 303.000000 -0.000594 14.000000 -0.164248 113.000000 0.105809 134.000000 0.045968
164222.000000 1.930799 195.000000 248.000000 179.000000 -0.064201 205.000000 0.114735 211.000000 0.075769 234.000000 0.385079 24.000000 -0.341913 84.000000 0.054527 145.000000 -0.134782
164470.000000 1.591101 248.000000 239.000000 130.000000 -0.058183 172.000000 0.090861 174.000000 0.065375 227.000000 0.546898 18.000000 -0.224935 82.000000 0.007322 130.000000 -0.058183
164709.000000 1.258856 239.000000 233.000000 108.000000 -0.064309 161.000000 0.070877 171.000000 0.039404 219.000000 0.422948 18.000000 -0.278337 77.000000 0.035331 82.000000 0.033387
164942.000000 1.127387 233.000000 195.000000 125.000000 -0.095095 162.000000 -0.023478 165.000000 -0.060280 173.000000 -0.058257 15.000000 -0.169510 84.000000 0.045973 111.000000 -0.089265
166229.000000 1.662582 298.000000 302.000000 167.000000 0.071003 207.000000 0.078230 254.000000 -0.158086 287.000000 0.294892 21.000000 -0.340315 127.000000 0.163243 167.000000 0.071003
166897.000000 1.499294 366.000000 525.000000 471.000000 0.025283 504.000000 0.086383 512.000000 0.632715 519.000000 0.998547 16.000000 -0.176363 241.000000 0.872965 296.000000 0.072272
167742.000000 0.879451 320.000000 267.000000 152.000000 -0.041390 176.000000 0.017386 190.000000 -0.032646 258.000000 0.344954 16.000000 -0.128747 79.000000 0.194970 122.000000 0.007935
168009.000000 0.998449 267.000000 316.000000 82.000000 0.063716 221.000000 0.774983 267.000000 -0.028164 285.000000 -0.066408 16.000000 -0.145924 76.000000 0.111381 82.000000 0.063716
168631.000000 1.419215 306.000000 196.000000 120.000000 0.301535 146.000000 0.361425 149.000000 0.240720 188.000000 0.296846 18.000000 -0.390300 112.000000 0.312616 120.000000 0.301535
168827.000000 0.854605 196.000000 180.000000 74.000000 0.761331 115.000000 0.296022 124.000000 0.252386 175.000000 0.209518 5.000000 0.214417 73.000000 0.761770 74.000000 0.761331
169007.000000 0.545301 180.000000 144.000000 74.000000 0.038419 116.000000 0.071101 120.000000 0.002809 129.000000 0.072589 7.000000 -0.101939 73.000000 0.042714 85.000000 -0.020405
169151.000000 0.993388 144.000000 140.000000 35.000000 -0.240891 86.000000 0.043591 116.000000 -0.051738 125.000000 0.037087 16.000000 -0.247805 74.000000 0.094719 75.000000 0.089452
169291.000000 1.098279 140.000000 262.000000 178.000000 -0.275580 210.000000 0.051472 225.000000 -0.044015 249.000000 0.163618 14.000000 -0.193350 132.000000 1.058391 159.000000 -0.374197
169553.000000 1.223619 262.000000 253.000000 150.000000 -0.095502 183.000000 0.082976 212.000000 -0.085548 234.000000 0.008684 14.000000 -0.191067 73.000000 0.154627 132.000000 -0.083856
170770.000000 1.241013 135.000000 406.000000 235.000000 -0.040329 298.000000 0.038560 311.000000 0.013779 383.000000 -0.053263 15.000000 -0.171149 122.000000 1.334763 160.000000 -0.281556
171176.000000 1.802929 406.000000 634.000000 421.000000 0.000204 462.000000 0.864548 463.000000 0.857824 620.000000 0.151021 17.000000 -0.070346 233.000000 2.071260 234.000000 2.055585
171810.000000 1.389233 634.000000 155.000000 72.000000 0.148356 126.000000 -0.033415 127.000000 -0.042740 133.000000 -0.043823 15.000000 -0.185516 72.000000 0.148356 127.000000 -0.042740
172795.000000 0.956113 334.000000 154.000000 0.000000 0.956113 93.000000 0.027133 115.000000 -0.024263 132.000000 -0.048620 21.000000 -0.315720 77.000000 0.100707 89.000000 0.029092
173233.000000 1.502239 151.000000 331.000000 289.000000 0.109546 310.000000 0.240598 309.000000 0.193106 316.000000 0.491805 20.000000 -0.207008 78.000000 0.224357 88.000000 0.061927
174091.000000 1.288824 241.000000 251.000000 143.000000 0.130548 175.000000 0.355330 192.000000 0.082869 238.000000 0.334402 16.000000 -0.079390 84.000000 0.230139 131.000000 -0.022070
175521.000000 0.775045 299.000000 205.000000 132.000000 0.019264 162.000000 0.223496 183.000000 0.153622 191.000000 0.357416 12.000000 -0.231177 73.000000 0.171269 110.000000 -0.083337
175726.000000 0.869501 205.000000 255.000000 175.000000 -0.031567 217.000000 0.040376 219.000000 -0.029860 231.000000 0.015330 15.000000 -0.077835 63.000000 0.417650 126.000000 -0.117116
176224.000000 1.374641 243.000000 225.000000 144.000000 -0.096411 184.000000 0.164481 206.000000 0.024325 213.000000 0.295674 21.000000 -0.145655 73.000000 0.353542 107.000000 0.099701
176775.000000 1.263465 326.000000 254.000000 138.000000 -0.023007 171.000000 0.063355 188.000000 0.033262 235.000000 0.123749 19.000000 -0.229937 80.000000 0.146333 84.000000 0.093465
177029.000000 1.578028 254.000000 227.000000 158.000000 -0.035409 181.000000 0.046880 186.000000 0.020767 212.000000 0.413354 16.000000 -0.179967 73.000000 0.161631 77.000000 0.107964
177882.000000 1.549151 205.000000 149.000000 -3.000000 1.438022 90.000000 -0.069935 114.000000 -0.129074 138.000000 0.284088 27.000000 -0.463966 82.000000 0.024955 114.000000 -0.129074
178277.000000 1.011267 246.000000 273.000000 167.000000 -0.027761 215.000000 0.905500 246.000000 0.035235 254.000000 0.032633 16.000000 -0.281302 152.000000 0.122458 167.000000 -0.027761
178550.000000 1.543245 273.000000 249.000000 108.000000 -0.150831 165.000000 0.061617 196.000000 -0.020360 222.000000 -0.032615 17.000000 -0.334057 69.000000 0.006064 73.000000 -0.030864
178799.000000 1.621586 249.000000 184.000000 127.000000 -0.015751 162.000000 0.109812 148.000000 0.050847 155.000000 0.053495 18.000000 -0.258995 84.000000 0.102621 86.000000 0.077934
178983.000000 2.053371 184.000000 251.000000 125.000000 -0.211150 158.000000 -0.065407 167.000000 -0.115046 236.000000 0.275442 13.000000 0.051051 73.000000 0.102081 76.000000 0.075873
179668.000000 1.476709 143.000000 136.000000 76.000000 0.032682 115.000000 0.134032 116.000000 0.173076 121.000000 0.313734 16.000000 -0.280250 78.000000 0.053466 135.000000 1.258718
180048.000000 1.644341 244.000000 201.000000 129.000000 -0.048559 180.000000 0.495830 160.000000 -2.570565 167.000000 -1.637885 23.000000 -0.168622 82.000000 -0.051785 107.000000 -0.159811
180577.000000 1.807442 328.000000 277.000000 220.000000 -0.074688 256.000000 0.068746 243.000000 -0.054074 250.000000 -0.039937 21.000000 -0.385913 74.000000 0.154232 103.000000 -0.081582
181035.000000 1.952430 181.000000 265.000000 148.000000 -0.491299 205.000000 0.028980 223.000000 -0.125517 249.000000 0.136348 19.000000 -0.283213 124.000000 1.162524 151.000000 -0.468054
181528.000000 1.652056 228.000000 236.000000 104.000000 -0.075500 162.000000 0.075818 166.000000 0.035882 214.000000 -0.000216 17.000000 -0.222551 102.000000 -0.041739 104.000000 -0.075500
181764.000000 1.731758 236.000000 350.000000 291.000000 0.048372 329.000000 0.072918 329.000000 0.072918 336.000000 0.586884 17.000000 -0.257804 173.000000 0.114624 233.000000 0.012790
182880.000000 1.800891 273.000000 251.000000 189.000000 -0.023859 230.000000 0.056361 232.000000 0.109198 239.000000 0.617192 18.000000 -0.251948 82.000000 0.205937 119.000000 -0.099955
183131.000000 1.815453 251.000000 406.000000 195.000000 0.375800 271.000000 0.466815 274.000000 0.353226 392.000000 0.373587 20.000000 -0.363873 214.000000 0.967521 274.000000 0.353226
183839.000000 1.585674 302.000000 142.000000 101.000000 -0.006176 120.000000 0.043668 109.000000 -0.080705 116.000000 -0.011348 17.000000 -0.124766 83.000000 -0.032085 102.000000 -0.001238
184699.000000 1.774109 309.000000 190.000000 95.000000 -0.108085 130.000000 0.303216 154.000000 -2.657004 161.000000 -1.675483 17.000000 -0.139058 86.000000 0.003827 105.000000 -0.128775
185061.000000 1.383541 172.000000 269.000000 224.000000 -0.044920 248.000000 0.115376 248.000000 0.115376 255.000000 0.398431 17.000000 -0.493072 160.000000 -0.000030 170.000000 0.036146
185330.000000 1.077679 269.000000 325.000000 280.000000 -0.038670 301.000000 0.077443 293.000000 -0.008874 300.000000 0.067208 16.000000 -0.189766 79.000000 0.157223 92.000000 0.079576
185655.000000 1.594795 325.000000 472.000000 424.000000 -0.058651 451.000000 0.159203 443.000000 -0.032301 450.000000 0.109203 19.000000 -0.311740 246.000000 0.983419 325.000000 -0.141864
186127.000000 1.314565 472.000000 412.000000 204.000000 -0.034890 248.000000 0.031552 292.000000 -0.001396 398.000000 0.479154 14.000000 -0.177285 170.000000 0.079217 171.000000 0.073230
186539.000000 1.319202 412.000000 423.000000 223.000000 1.148134 280.000000 0.075420 282.000000 0.042615 397.000000 0.026158 18.000000 -0.230124 222.000000 1.168573 262.000000 -0.001114
187158.000000 1.672119 196.000000 267.000000 206.000000 -0.022601 246.000000 0.066489 226.000000 -0.104889 233.000000 -0.115720 16.000000 -0.308461 69.000000 0.153562 72.000000 0.091430
188437.000000 1.326349 284.000000 456.000000 205.000000 -0.035594 288.000000 0.200972 291.000000 0.175455 445.000000 0.487339 20.000000 -0.207038 79.000000 0.186819 102.000000 -0.054389
189472.000000 0.998184 183.000000 256.000000 201.000000 -0.041476 235.000000 0.023965 238.000000 0.101567 245.000000 0.786238 12.000000 -0.281174 72.000000 0.317478 74.000000 0.298951
190273.000000 1.285125 262.000000 318.000000 241.000000 -0.062192 283.000000 0.073183 303.000000 0.317477 310.000000 1.042933 17.000000 -0.283183 115.000000 0.167256 146.000000 0.061616
190828.000000 1.848825 237.000000 255.000000 179.000000 -0.021143 211.000000 0.026195 231.000000 -0.015873 245.000000 0.897857 12.000000 -0.157697 78.000000 0.121316 127.000000 -0.236805
191083.000000 1.629894 255.000000 217.000000 149.000000 0.049829 180.000000 0.108762 182.000000 0.075470 204.000000 0.608762 22.000000 -0.355735 87.000000 0.102743 103.000000 0.016504
191593.000000 1.818307 293.000000 248.000000 195.000000 -0.127933 225.000000 0.037851 232.000000 0.355672 235.000000 0.269183 20.000000 -0.153338 72.000000 0.141788 80.000000 -0.028133
193085.000000 0.623337 164.000000 219.000000 101.000000 0.094873 135.000000 0.072772 145.000000 -0.017902 206.000000 0.181144 18.000000 -0.248858 68.000000 0.323635 101.000000 0.094873
193304.000000 0.962320 219.000000 186.000000 74.000000 0.171661 149.000000 0.097995 164.000000 -0.077350 171.000000 0.173418 19.000000 -0.224075 77.000000 0.263715 138.000000 0.023386
194670.000000 0.918466 266.000000 476.000000 248.000000 -0.243151 295.000000 0.312570 330.000000 0.100282 463.000000 0.283340 15.000000 -0.272570 203.000000 0.755048 255.000000 -0.274217
195146.000000 1.065408 476.000000 154.000000 98.000000 -0.033308 129.000000 0.177774 129.000000 0.177774 136.000000 -0.427210 12.000000 -0.074921 65.000000 0.109782 98.000000 -0.033308
195552.000000 1.075691 252.000000 247.000000 71.000000 0.230124 156.000000 0.122241 204.000000 0.024077 235.000000 0.447792 11.000000 -0.076143 69.000000 0.261692 75.000000 0.118009
196421.000000 0.791523 228.000000 146.000000 101.000000 0.016976 123.000000 0.273309 122.000000 0.195503 129.000000 -0.229106 18.000000 -0.294150 68.000000 0.267136 72.000000 0.203845
196980.000000 1.023401 413.000000 379.000000 115.000000 0.073481 228.000000 0.924813 286.000000 -0.036253 363.000000 0.093290 11.000000 0.049702 216.000000 1.397087 286.000000 -0.036253
197359.000000 1.064844 379.000000 263.000000 205.000000 -0.047917 225.000000 0.013478 231.000000 -0.078887 249.000000 0.013261 18.000000 -0.223041 89.000000 0.168120 143.000000 0.065110
199019.000000 1.022884 205.000000 1239.000000 976.000000 -0.018792 1002.000000 0.610410 1070.000000 0.108231 1225.000000 0.463479 11.000000 -0.189544 192.000000 0.961536 205.000000 0.942257
200777.000000 1.104656 260.000000 200.000000 125.000000 -0.071439 177.000000 -0.014875 173.000000 -0.084876 180.000000 -0.049718 21.000000 -0.298290 79.000000 0.203137 125.000000 -0.071439
200977.000000 1.389327 200.000000 209.000000 148.000000 -0.155972 188.000000 0.091206 174.000000 -0.042243 181.000000 -0.037305 19.000000 -0.367837 78.000000 0.260547 123.000000 -0.222134
202721.000000 1.400640 213.000000 151.000000 38.000000 -0.263309 91.000000 -0.030786 110.000000 -0.094781 140.000000 0.264936 12.000000 -0.030738 78.000000 0.115233 110.000000 -0.094781
203210.000000 1.157476 197.000000 196.000000 144.000000 -0.107351 171.000000 0.044012 178.000000 0.074013 185.000000 0.533621 10.000000 -0.009201 86.000000 0.061269 102.000000 0.008057
203406.000000 1.492165 196.000000 217.000000 132.000000 -0.108136 167.000000 -0.010799 187.000000 -0.061408 193.000000 -0.093602 11.000000 0.011648 77.000000 0.175802 116.000000 -0.154701
203623.000000 1.292916 217.000000 220.000000 178.000000 -0.033510 196.000000 0.012303 191.000000 0.003150 198.000000 -0.027774 16.000000 -0.231880 82.000000 0.040373 111.000000 -0.080159
203843.000000 1.415814 220.000000 191.000000 110.000000 -0.161146 168.000000 0.009684 160.000000 -0.100583 167.000000 0.007818 20.000000 -0.340126 83.000000 -0.002414 110.000000 -0.161146
204448.000000 1.133103 250.000000 820.000000 552.000000 -0.005409 585.000000 0.648319 667.000000 -0.027901 810.000000 0.521019 15.000000 -0.108088 204.000000 0.845767 245.000000 0.156641
205268.000000 0.866866 820.000000 249.000000 159.000000 0.030251 182.000000 0.037664 187.000000 0.004796 243.000000 0.834185 12.000000 -0.027962 80.000000 0.097211 106.000000 -0.091488
205750.000000 1.285441 233.000000 253.000000 147.000000 -0.076552 197.000000 0.029437 207.000000 -0.052459 248.000000 0.788260 13.000000 -0.001705 84.000000 0.173151 118.000000 -0.215878
206936.000000 1.944731 172.000000 241.000000 189.000000 -0.024074 218.000000 0.052198 207.000000 -0.052222 214.000000 -0.021313 17.000000 -0.196224 73.000000 0.106395 109.000000 -0.153857
207177.000000 1.602244 241.000000 165.000000 106.000000 -0.030689 142.000000 0.135393 143.000000 0.113544 147.000000 -0.080187 22.000000 -0.426408 92.000000 -0.028353 106.000000 -0.030689
207489.000000 1.560112 147.000000 302.000000 245.000000 -0.073229 281.000000 0.107506 268.000000 0.064341 275.000000 0.043180 18.000000 -0.284559 74.000000 0.072211 100.000000 -0.081535
207791.000000 1.611930 302.000000 208.000000 101.000000 -0.216975 147.000000 0.155016 165.000000 -1.543384 202.000000 0.633358 18.000000 -0.101676 20.000000 -0.147601 42.000000 -0.278088
208548.000000 1.795676 350.000000 256.000000 213.000000 -0.042882 233.000000 0.062933 240.000000 0.052761 247.000000 0.633184 21.000000 -0.262549 81.000000 0.006931 83.000000 -0.038931
209679.000000 1.392807 173.000000 1170.000000 1013.000000 -0.147225 1101.000000 0.660093 1103.000000 0.626598 1152.000000 0.030236 8.000000 0.690802 486.000000 1.018716 520.000000 -0.026786
212392.000000 1.622978 195.000000 220.000000 161.000000 -0.031626 190.000000 0.057494 189.000000 0.038670 196.000000 0.014532 16.000000 -0.249703 70.000000 0.050062 116.000000 -0.127538
213179.000000 1.088494 305.000000 188.000000 99.000000 -0.149468 136.000000 0.661474 156.000000 -3.076928 163.000000 -1.780972 16.000000 -0.149828 94.000000 0.195860 99.000000 -0.149468
214711.000000 1.027040 268.000000 241.000000 184.000000 -0.084015 220.000000 0.147884 207.000000 0.023745 214.000000 0.027822 18.000000 -0.176535 72.000000 0.137523 74.000000 0.091801
215261.000000 1.463432 309.000000 215.000000 165.000000 0.315958 192.000000 0.432934 201.000000 0.713764 208.000000 1.019830 17.000000 -0.165126 124.000000 0.022836 165.000000 0.315958
217954.000000 1.192554 230.000000 238.000000 75.000000 0.143982 172.000000 0.062759 174.000000 0.036474 220.000000 0.169265 18.000000 -0.373558 80.000000 0.197117 173.000000 0.057210
218583.000000 0.772412 166.000000 236.000000 135.000000 -0.018792 167.000000 0.054201 179.000000 -0.037963 217.000000 0.051125 18.000000 -0.078623 70.000000 0.243181 71.000000 0.221520
218819.000000 1.068978 236.000000 158.000000 115.000000 0.033955 137.000000 0.107495 134.000000 0.050834 141.000000 -0.028494 17.000000 -0.230254 87.000000 0.137292 116.000000 0.019628
218977.000000 1.207806 158.000000 222.000000 112.000000 -0.061645 157.000000 0.030644 174.000000 -0.007552 195.000000 -0.046296 16.000000 -0.237117 67.000000 0.106286 72.000000 0.097383
219199.000000 1.411461 222.000000 252.000000 131.000000 -0.081052 173.000000 0.059200 191.000000 -0.029952 224.000000 -0.082975 20.000000 -0.344728 79.000000 0.076472 119.000000 -0.068372
220111.000000 1.475143 251.000000 262.000000 163.000000 -0.020441 191.000000 0.069198 216.000000 -0.053670 241.000000 -0.071724 8.000000 0.448606 78.000000 0.162431 166.000000 -0.043010
221208.000000 1.571273 187.000000 222.000000 168.000000 0.009892 198.000000 0.080003 191.000000 -0.078305 198.000000 0.080003 15.000000 -0.203429 99.000000 0.243166 106.000000 0.060877
221430.000000 1.456789 222.000000 158.000000 100.000000 -0.051523 123.000000 0.154464 138.000000 0.056706 143.000000 0.192788 18.000000 -0.370470 73.000000 0.186722 74.000000 0.167287
221588.000000 1.596706 158.000000 216.000000 137.000000 -0.107790 173.000000 0.023024 174.000000 -0.000597 203.000000 0.252458 15.000000 -0.178136 77.000000 0.160830 137.000000 -0.107790
221804.000000 0.837726 216.000000 268.000000 117.000000 -0.087899 161.000000 0.060252 172.000000 -0.043056 243.000000 -0.142240 13.000000 -0.208888 153.000000 0.036303 162.000000 0.032305
222072.000000 1.348653 268.000000 174.000000 94.000000 -0.021601 121.000000 -0.072368 139.000000 -0.149281 156.000000 0.083571 20.000000 -0.398746 74.000000 0.079717 96.000000 -0.061460
222246.000000 1.598698 174.000000 263.000000 161.000000 0.071978 181.000000 0.161915 199.000000 0.002198 242.000000 -0.034873 17.000000 -0.220958 95.000000 0.151331 112.000000 -0.091161
222509.000000 1.441993 263.000000 271.000000 228.000000 -0.064436 250.000000 0.111348 253.000000 0.229059 260.000000 0.458887 14.000000 -0.215984 79.000000 0.204467 84.000000 0.152632
223698.000000 1.500674 160.000000 192.000000 126.000000 0.185815 157.000000 0.295643 173.000000 0.052367 183.000000 0.721724 11.000000 -0.351207 101.000000 0.100064 126.000000 0.185815
228192.000000 0.933713 375.000000 170.000000 62.000000 0.071552 108.000000 0.095797 143.000000 -0.160442 150.000000 0.099135 13.000000 -0.080690 60.000000 0.073151 63.000000 0.050879
231996.000000 1.065424 321.000000 207.000000 119.000000 0.027395 149.000000 0.023585 173.000000 0.015796 196.000000 0.354167 8.000000 0.115706 78.000000 0.240059 104.000000 -0.026257
232203.000000 1.035124 207.000000 595.000000 311.000000 -0.163935 357.000000 0.168104 405.000000 0.028229 580.000000 0.097790 19.000000 -0.357463 122.000000 0.467555 196.000000 0.304371
232798.000000 1.004170 595.000000 400.000000 220.000000 0.512898 244.000000 0.247412 264.000000 0.002005 378.000000 -0.124561 14.000000 -0.114090 155.000000 0.610610 159.000000 0.430171
233428.000000 1.118007 230.000000 216.000000 166.000000 -0.099280 195.000000 -0.016693 195.000000 -0.016693 202.000000 0.080142 18.000000 -0.196301 67.000000 0.247620 106.000000 -0.174356
233644.000000 0.901771 216.000000 155.000000 107.000000 -0.135941 134.000000 0.087447 136.000000 0.319171 142.000000 0.066757 13.000000 -0.228997 66.000000 0.249421 68.000000 0.224907
234038.000000 1.185346 239.000000 263.000000 120.000000 0.068856 209.000000 1.276926 242.000000 0.062366 251.000000 0.057836 19.000000 -0.127896 122.000000 0.258371 208.000000 1.247741
235110.000000 1.033180 231.000000 193.000000 111.000000 -0.042397 149.000000 0.105721 161.000000 0.002586 167.000000 0.030798 19.000000 -0.277699 88.000000 0.032914 131.000000 0.004828
235802.000000 1.231851 248.000000 293.000000 253.000000 0.033105 271.000000 0.149375 267.000000 0.032259 274.000000 0.032086 15.000000 -0.249327 79.000000 0.166488 111.000000 -0.039795
236095.000000 1.333386 293.000000 609.000000 329.000000 1.155663 366.000000 0.031728 451.000000 -0.247888 590.000000 0.041846 14.000000 -0.089137 333.000000 1.253955 451.000000 -0.247888
236704.000000 1.302835 609.000000 283.000000 165.000000 -0.029372 184.000000 -0.002131 216.000000 -0.065469 265.000000 0.047481 21.000000 -0.339738 84.000000 0.109698 110.000000 0.072410
237257.000000 1.569611 270.000000 194.000000 127.000000 -0.202742 165.000000 -0.030953 166.000000 -0.038070 179.000000 0.266586 24.000000 -0.359591 82.000000 0.118040 127.000000 -0.202742
237451.000000 1.240851 194.000000 208.000000 161.000000 -0.100047 187.000000 -0.004672 177.000000 -0.054264 184.000000 -0.036396 17.000000 -0.233364 74.000000 0.190035 77.000000 0.156070
237659.000000 1.353555 208.000000 238.000000 189.000000 -0.018120 217.000000 -0.005581 207.000000 -0.049812 214.000000 -0.083920 19.000000 -0.264424 76.000000 0.104809 132.000000 -0.093621
238186.000000 1.622208 289.000000 202.000000 145.000000 -0.066065 178.000000 -0.019404 172.000000 -0.041410 179.000000 -0.023510 18.000000 -0.275942 83.000000 0.055736 128.000000 -0.087571
238758.000000 1.415815 234.000000 288.000000 114.000000 0.021395 177.000000 0.038715 228.000000 -0.009187 276.000000 0.421315 17.000000 -0.301570 87.000000 0.083493 115.000000 0.039749
239046.000000 1.299558 288.000000 235.000000 149.000000 -0.055059 171.000000 0.034988 173.000000 0.017136 220.000000 0.122481 13.000000 -0.227322 68.000000 0.085139 110.000000 -0.095737
239281.000000 1.388155 235.000000 180.000000 70.000000 0.154345 111.000000 -0.053132 124.000000 -0.127851 158.000000 -0.106050 15.000000 -0.204793 74.000000 0.177307 124.000000 -0.127851
239461.000000 1.628136 180.000000 201.000000 123.000000 -0.153340 164.000000 -0.050956 167.000000 -0.070094 174.000000 -0.079719 18.000000 -0.285517 68.000000 0.154751 80.000000 0.047838
239662.000000 1.553588 201.000000 269.000000 213.000000 -0.068542 248.000000 0.081645 244.000000 -0.052195 251.000000 0.204278 23.000000 -0.338183 77.000000 0.161301 113.000000 -0.079923
239931.000000 1.361475 269.000000 259.000000 175.000000 -0.004529 238.000000 0.068514 237.000000 0.024596 244.000000 0.267730 22.000000 -0.344701 72.000000 0.107352 120.000000 -0.046663
240190.000000 1.254046 259.000000 334.000000 105.000000 -0.090343 209.000000 0.973560 268.000000 -0.024199 303.000000 -0.151721 16.000000 -0.125999 199.000000 0.652964 212.000000 0.955738
241165.000000 0.975818 411.000000 235.000000 105.000000 -0.031108 145.000000 0.097761 184.000000 -0.050423 210.000000 -0.005249 18.000000 -0.313602 73.000000 0.099316 105.000000 -0.031108
241400.000000 1.624296 235.000000 287.000000 109.000000 0.062603 200.000000 0.989971 201.000000 0.989062 273.000000 0.138011 22.000000 -0.310013 171.000000 0.159672 201.000000 0.989062
242262.000000 1.230877 388.000000 367.000000 275.000000 0.002553 333.000000 0.089906 335.000000 0.059154 354.000000 0.363433 17.000000 -0.202852 78.000000 0.221554 173.000000 -0.001567
244129.000000 0.620078 513.000000 181.000000 103.000000 0.073982 135.000000 0.125989 149.000000 0.037073 167.000000 0.102245 18.000000 -0.185988 74.000000 0.246411 103.000000 0.073982
248130.000000 1.055801 640.000000 146.000000 -1.000000 1.009516 88.000000 0.040941 112.000000 -0.092162 131.000000 -0.312805 20.000000 -0.313776 73.000000 0.216866 112.000000 -0.092162
249358.000000 1.146664 374.000000 144.000000 101.000000 0.143777 123.000000 0.360374 122.000000 0.299920 129.000000 -0.141257 15.000000 -0.153414 77.000000 0.299058 106.000000 0.157993
250189.000000 1.437918 234.000000 169.000000 114.000000 -0.050000 143.000000 0.072698 147.000000 0.003513 154.000000 0.036177 15.000000 -0.262020 77.000000 0.178277 80.000000 0.166772
250358.000000 1.550643 169.000000 159.000000 108.000000 -0.124607 138.000000 0.033372 132.000000 -0.119056 139.000000 0.109501 16.000000 -0.232272 77.000000 0.218341 79.000000 0.204517
250706.000000 1.247541 189.000000 147.000000 72.000000 0.167100 125.000000 0.074358 125.000000 0.074358 132.000000 -0.500047 17.000000 -0.298179 74.000000 0.188370 111.000000 -0.084310
250853.000000 0.683088 147.000000 133.000000 83.000000 0.079106 111.000000 0.226535 111.000000 0.226535 118.000000 -0.299594 13.000000 -0.024623 66.000000 0.339122 92.000000 0.081378
251326.000000 1.026240 155.000000 140.000000 29.000000 -0.353901 86.000000 0.064029 97.000000 -0.053119 127.000000 0.096770 18.000000 -0.251596 74.000000 0.226850 87.000000 0.053026
251674.000000 1.324626 208.000000 168.000000 93.000000 -0.072822 147.000000 0.165579 121.000000 -2.144310 128.000000 -1.485204 14.000000 -0.136095 70.000000 0.080645 73.000000 0.049939
252239.000000 1.537241 397.000000 193.000000 145.000000 -0.030626 168.000000 0.138325 170.000000 0.054861 173.000000 0.109171 16.000000 -0.183794 114.000000 0.077540 150.000000 -0.069998
252432.000000 1.719924 193.000000 147.000000 36.000000 -0.370717 89.000000 0.082479 119.000000 -0.224873 134.000000 0.133778 19.000000 -0.309526 79.000000 0.204267 119.000000 -0.224873
252713.000000 0.990956 134.000000 237.000000 170.000000 -0.001380 192.000000 0.041300 199.000000 -0.060534 222.000000 0.008464 21.000000 -0.380910 61.000000 0.220359 63.000000 0.163917
253494.000000 1.635661 338.000000 256.000000 130.000000 -0.076506 175.000000 0.101787 183.000000 0.060297 243.000000 0.096004 15.000000 -0.185971 68.000000 0.364295 103.000000 -0.132195
253981.000000 1.135221 231.000000 268.000000 135.000000 1.049169 198.000000 0.269371 200.000000 0.252240 252.000000 0.065347 14.000000 -0.134731 135.000000 1.049169 184.000000 0.061706
254514.000000 1.394419 265.000000 330.000000 281.000000 0.018273 299.000000 0.070454 300.000000 0.055250 316.000000 -0.086991 18.000000 -0.391082 125.000000 0.109783 165.000000 -0.004357
255268.000000 1.507635 424.000000 260.000000 94.000000 0.067180 163.000000 0.111836 200.000000 0.023826 247.000000 0.281488 23.000000 -0.375610 151.000000 0.203434 200.000000 0.023826
256333.000000 1.369483 241.000000 293.000000 245.000000 -0.063260 272.000000 0.167665 273.000000 0.222241 280.000000 0.283936 19.000000 -0.274449 70.000000 0.121898 76.000000 0.109391
257032.000000 1.405863 237.000000 403.000000 217.000000 0.957067 242.000000 0.193792 265.000000 -0.020925 394.000000 0.491584 17.000000 -0.257696 216.000000 0.967302 217.000000 0.957067
258872.000000 0.932836 356.000000 830.000000 581.000000 -0.080925 625.000000 0.936553 696.000000 0.335392 820.000000 0.254999 14.000000 -0.115770 201.000000 1.332087 249.000000 0.087102
259702.000000 1.013557 830.000000 144.000000 100.000000 -0.104200 123.000000 0.062651 123.000000 0.062651 130.000000 -0.061848 15.000000 -0.203747 66.000000 0.462224 105.000000 -0.076911
260037.000000 1.053780 191.000000 197.000000 125.000000 -0.074969 169.000000 0.047791 172.000000 0.001067 181.000000 0.083778 18.000000 -0.430499 67.000000 0.063448 101.000000 -0.141818
260234.000000 1.325156 197.000000 167.000000 63.000000 0.074419 101.000000 -0.024546 134.000000 -0.061286 147.000000 -0.155658 15.000000 -0.324124 62.000000 0.097569 65.000000 0.053385
260401.000000 1.731177 167.000000 188.000000 62.000000 0.268668 141.000000 -0.014953 155.000000 -0.130047 162.000000 -0.074639 20.000000 -0.360798 64.000000 0.294280 185.000000 1.472353
262462.000000 1.730750 204.000000 211.000000 130.000000 0.015063 155.000000 0.135300 156.000000 0.120237 196.000000 0.034469 21.000000 -0.600002 120.000000 0.034985 132.000000 0.074923
263250.000000 1.322837 209.000000 268.000000 213.000000 0.022821 245.000000 0.158307 249.000000 0.200453 253.000000 0.237947 18.000000 -0.296270 74.000000 0.351881 98.000000 -0.007586
264578.000000 1.367115 195.000000 408.000000 217.000000 0.365206 278.000000 0.520911 347.000000 0.108308 393.000000 -0.166754 19.000000 -0.297039 215.000000 0.429830 220.000000 -0.078948
264986.000000 0.773842 408.000000 158.000000 64.000000 0.407446 137.000000 0.021912 136.000000 -0.023072 143.000000 -0.001035 14.000000 -0.131002 67.000000 0.488904 127.000000 -0.121458
266547.000000 1.092008 221.000000 261.000000 62.000000 0.230626 162.000000 0.031081 199.000000 -0.007837 247.000000 0.207225 14.000000 -0.286285 60.000000 0.279905 62.000000 0.230626
272787.000000 1.346756 275.000000 179.000000 72.000000 0.288152 114.000000 0.155926 115.000000 0.128809 138.000000 -1.382994 15.000000 -0.168432 73.000000 0.318261 99.000000 -0.138291
274790.000000 0.980750 839.000000 271.000000 199.000000 0.892243 244.000000 0.949579 257.000000 0.588308 262.000000 0.809139 15.000000 -0.114454 65.000000 0.578131 101.000000 -0.040315
276150.000000 1.269813 730.000000 191.000000 90.000000 -0.111191 134.000000 0.551377 169.000000 -0.966460 176.000000 0.383556 17.000000 -0.082804 56.000000 0.275376 90.000000 -0.111191
277053.000000 1.122337 380.000000 192.000000 104.000000 -0.125108 139.000000 0.093230 173.000000 0.169828 180.000000 0.537445 16.000000 -0.315672 69.000000 0.362980 106.000000 -0.001894
278028.000000 1.095534 138.000000 979.000000 661.000000 -0.147306 710.000000 1.087318 765.000000 0.199311 972.000000 0.318730 19.000000 -0.480627 471.000000 1.001711 539.000000 0.224329
279909.000000 1.358512 480.000000 226.000000 140.000000 -0.136020 178.000000 0.036458 190.000000 0.024075 208.000000 0.032336 17.000000 -0.310768 60.000000 0.242333 63.000000 0.207883
280407.000000 1.736318 272.000000 232.000000 117.000000 0.042854 171.000000 0.281959 190.000000 -0.070158 213.000000 -0.029485 17.000000 -0.314889 119.000000 0.404500 169.000000 0.123009
280639.000000 1.347457 232.000000 294.000000 194.000000 -0.009779 234.000000 0.092304 251.000000 0.035470 272.000000 -0.024639 14.000000 -0.190772 79.000000 0.248039 107.000000 0.011928
282200.000000 1.449787 231.000000 173.000000 131.000000 -0.132932 152.000000 -0.098261 158.000000 -0.033826 165.000000 0.754372 17.000000 -0.393160 64.000000 0.155334 67.000000 0.119425
282373.000000 1.712413 173.000000 134.000000 64.000000 0.300360 82.000000 -0.048340 103.000000 -0.212574 122.000000 0.065342 16.000000 -0.331992 65.000000 0.310579 103.000000 -0.212574
283068.000000 1.256742 246.000000 168.000000 121.000000 -0.034873 145.000000 0.107054 147.000000 0.097492 153.000000 -0.001975 20.000000 -0.302755 79.000000 0.149924 81.000000 0.133357
283459.000000 1.424592 223.000000 155.000000 109.000000 -0.037727 133.000000 0.314797 131.000000 0.217995 138.000000 -0.335516 15.000000 -0.273669 83.000000 0.173479 109.000000 -0.037727
283614.000000 1.049593 155.000000 252.000000 118.000000 0.673151 174.000000 0.359952 177.000000 0.331410 237.000000 0.014107 17.000000 -0.269936 116.000000 0.786396 119.000000 0.638982
283866.000000 1.079468 252.000000 242.000000 161.000000 -0.020000 204.000000 0.000231 209.000000 -0.027151 224.000000 -0.082214 15.000000 -0.258933 66.000000 0.131398 120.000000 -0.064498
284108.000000 1.273287 242.000000 224.000000 102.000000 -0.017649 136.000000 0.070767 153.000000 -0.032209 207.000000 0.031207 17.000000 -0.208029 65.000000 0.143024 77.000000 0.106865
284332.000000 1.443118 224.000000 266.000000 215.000000 -0.004264 245.000000 0.056082 243.000000 0.016379 250.000000 0.030189 21.000000 -0.394672 68.000000 0.291206 142.000000 -0.044967
284861.000000 1.009732 263.000000 146.000000 98.000000 -0.125690 121.000000 0.096897 132.000000 -0.997868 139.000000 -0.037726 14.000000 -0.227292 61.000000 0.291943 64.000000 0.279953
285007.000000 0.936771 146.000000 307.000000 128.000000 1.026049 196.000000 0.276788 198.000000 0.257791 289.000000 0.026788 12.000000 -0.140235 128.000000 1.026049 198.000000 0.257791
285314.000000 1.454751 307.000000 177.000000 94.000000 -0.042207 137.000000 0.001821 143.000000 -0.031972 161.000000 -0.034528 19.000000 -0.459293 77.000000 0.061446 94.000000 -0.042207
285491.000000 1.475049 177.000000 263.000000 201.000000 0.176740 242.000000 0.222177 244.000000 0.253336 247.000000 0.174841 16.000000 -0.284812 133.000000 1.244140 164.000000 -0.371583
285754.000000 1.036895 263.000000 350.000000 287.000000 0.057683 329.000000 0.257351 327.000000 0.223135 334.000000 -0.024498 19.000000 -0.345643 204.000000 0.656862 268.000000 0.165518
286104.000000 0.960581 350.000000 204.000000 142.000000 -0.041129 182.000000 0.025315 181.000000 0.006616 188.000000 -0.091645 18.000000 -0.238214 66.000000 0.193163 85.000000 0.087694
286308.000000 1.305645 204.000000 243.000000 130.000000 0.057158 168.000000 0.082679 183.000000 -0.080782 229.000000 0.150424 13.000000 -0.285798 62.000000 0.117067 65.000000 0.111894
287483.000000 1.319310 476.000000 335.000000 280.000000 -0.030611 314.000000 0.261065 311.000000 0.065876 318.000000 0.252914 16.000000 -0.347899 73.000000 0.143556 77.000000 0.124151
287818.000000 1.616912 335.000000 177.000000 89.000000 -0.094767 114.000000 0.213367 158.000000 0.144840 165.000000 0.251800 17.000000 -0.285125 104.000000 0.016047 111.000000 0.064088
288305.000000 1.203577 310.000000 169.000000 78.000000 0.055768 103.000000 0.067932 123.000000 0.006678 155.000000 0.090928 14.000000 -0.295280 96.000000 0.096914 123.000000 0.006678
288474.000000 1.587260 169.000000 266.000000 225.000000 -0.045377 245.000000 0.109950 244.000000 0.050170 251.000000 0.112380 16.000000 -0.284685 65.000000 0.177745 103.000000 -0.072163
288960.000000 1.470395 220.000000 394.000000 289.000000 -0.019187 347.000000 0.044297 364.000000 -0.052989 378.000000 -0.052926 15.000000 -0.365248 119.000000 0.792865 128.000000 -0.171054
289354.000000 1.204723 394.000000 157.000000 112.000000 0.016785 136.000000 0.234608 134.000000 0.115941 141.000000 -0.082147 15.000000 -0.225309 74.000000 0.082885 81.000000 0.060392
289710.000000 1.534343 199.000000 289.000000 246.000000 -0.062712 268.000000 0.129059 269.000000 0.181645 284.000000 1.071818 17.000000 -0.340281 71.000000 0.124752 73.000000 0.099423
290555.000000 1.416553 177.000000 169.000000 67.000000 0.198294 125.000000 -0.022943 137.000000 -0.102236 162.000000 0.613719 15.000000 -0.283446 66.000000 0.208608 68.000000 0.167934
290724.000000 1.464768 169.000000 326.000000 284.000000 -0.017679 305.000000 0.117086 303.000000 0.079312 310.000000 0.245738 14.000000 -0.250105 65.000000 0.266745 123.000000 0.036378
291050.000000 1.395174 326.000000 391.000000 187.000000 0.941858 236.000000 0.043223 318.000000 -0.266348 375.000000 0.039234 18.000000 -0.222914 202.000000 1.339053 318.000000 -0.266348
291441.000000 1.277133 391.000000 306.000000 262.000000 -0.073257 285.000000 0.152981 281.000000 -0.051800 288.000000 0.107808 13.000000 -0.245940 116.000000 0.076689 124.000000 0.056581
291747.000000 1.580849 306.000000 212.000000 158.000000 -0.060737 191.000000 0.078355 181.000000 -0.032021 188.000000 -0.013761 17.000000 -0.339059 75.000000 0.009936 92.000000 -0.062493
291959.000000 1.744027 212.000000 179.000000 71.000000 0.179308 120.000000 -0.120065 133.000000 -0.166445 156.000000 -0.137244 20.000000 -0.420629 72.000000 0.184653 105.000000 -0.175238
292138.000000 1.763381 179.000000 318.000000 195.000000 -0.081443 258.000000 0.014639 285.000000 -0.102036 303.000000 0.230740 19.000000 -0.351587 65.000000 0.247001 114.000000 -0.006113
292631.000000 1.052446 175.000000 228.000000 141.000000 -0.222900 185.000000 0.294043 187.000000 0.262319 214.000000 -0.283903 14.000000 -0.245250 123.000000 0.995266 152.000000 -0.283230
293005.000000 1.520641 146.000000 274.000000 228.000000 -0.031850 250.000000 0.070172 254.000000 0.061755 260.000000 0.180485 10.000000 0.067710 117.000000 0.105156 119.000000 0.073668
293279.000000 1.497365 274.000000 189.000000 105.000000 -0.087664 168.000000 0.293951 170.000000 0.307884 177.000000 0.505470 16.000000 -0.165080 112.000000 0.221693 200.000000 1.385615
294538.000000 1.690003 336.000000 383.000000 196.000000 0.719750 231.000000 0.049436 251.000000 -0.063183 368.000000 0.077333 17.000000 -0.269150 206.000000 0.975707 251.000000 -0.063183
294921.000000 1.523870 383.000000 214.000000 110.000000 -0.010797 145.000000 0.037780 158.000000 0.006400 198.000000 0.074033 15.000000 -0.301662 105.000000 0.045504 115.000000 -0.008586
295135.000000 1.727512 214.000000 266.000000 211.000000 -0.032083 243.000000 0.019957 241.000000 -0.025937 248.000000 0.092465 16.000000 -0.339448 64.000000 0.136711 87.000000 -0.008632
295401.000000 1.639987 266.000000 146.000000 103.000000 -0.058228 125.000000 0.012852 124.000000 -0.017352 131.000000 0.014075 15.000000 -0.304166 73.000000 0.115111 75.000000 0.075111
295988.000000 1.794876 251.000000 181.000000 115.000000 -0.136677 156.000000 0.001380 152.000000 -0.010767 159.000000 -0.035172 8.000000 0.809421 79.000000 0.076911 115.000000 -0.136677
296557.000000 1.320910 250.000000 282.000000 199.000000 -0.064076 229.000000 0.004030 230.000000 -0.000797 267.000000 0.085708 16.000000 -0.308808 69.000000 0.185405 70.000000 0.169339
296839.000000 1.563514 282.000000 146.000000 82.000000 0.069701 123.000000 0.131315 126.000000 0.160312 133.000000 0.054639 15.000000 -0.342834 74.000000 0.114560 82.000000 0.069701
297446.000000 1.005300 216.000000 210.000000 107.000000 0.028182 134.000000 0.073575 145.000000 0.027743 194.000000 0.054327 17.000000 -0.308339 61.000000 0.133294 70.000000 0.085911
297656.000000 1.155269 210.000000 262.000000 219.000000 -0.017285 241.000000 0.142967 239.000000 0.026540 246.000000 0.045568 16.000000 -0.269325 73.000000 0.346739 100.000000 -0.060847
297918.000000 1.116698 262.000000 256.000000 212.000000 -0.111674 235.000000 0.018528 234.000000 -0.037460 241.000000 0.086864 15.000000 -0.154352 73.000000 0.429924 81.000000 0.090848
298174.000000 1.281723 256.000000 239.000000 182.000000 -0.068118 218.000000 0.124671 216.000000 0.018652 223.000000 0.111521 14.000000 -0.218291 66.000000 0.339751 68.000000 0.303732
298560.000000 0.962414 147.000000 121.000000 1.000000 0.943402 73.000000 0.235111 93.000000 -0.177052 105.000000 -0.084966 17.000000 -0.141723 63.000000 0.394358 93.000000 -0.177052
298681.000000 1.249266 121.000000 118.000000 35.000000 -0.400562 71.000000 0.162195 90.000000 -0.110971 102.000000 0.216803 18.000000 -0.266361 67.000000 0.258245 90.000000 -0.110971
298799.000000 1.100924 118.000000 245.000000 165.000000 0.071790 201.000000 0.263089 224.000000 0.030159 225.000000 0.135190 18.000000 -0.193622 52.000000 0.555188 69.000000 0.016269
299617.000000 1.066645 159.000000 211.000000 159.000000 -0.063621 177.000000 -0.051568 182.000000 -0.064780 202.000000 -0.034970 15.000000 -0.216491 56.000000 0.258900 60.000000 0.235059
299828.000000 1.059356 211.000000 292.000000 241.000000 -0.024966 265.000000 0.084280 267.000000 0.012509 275.000000 -0.039843 12.000000 -0.158951 72.000000 0.353886 114.000000 0.012772
300120.000000 1.144814 292.000000 156.000000 77.000000 0.205925 135.000000 0.277256 133.000000 0.117068 140.000000 -0.102289 15.000000 -0.183619 73.000000 0.210030 77.000000 0.205925
300276.000000 1.148273 156.000000 222.000000 129.000000 0.081050 195.000000 0.080613 199.000000 -0.068070 206.000000 0.238184 20.000000 -0.173262 75.000000 0.272726 77.000000 0.170970
300498.000000 1.239987 222.000000 262.000000 133.000000 -0.015660 171.000000 0.196142 196.000000 -0.134406 249.000000 0.171113 17.000000 -0.132725 70.000000 0.252526 75.000000 0.177744
300969.000000 1.172259 209.000000 164.000000 65.000000 0.342415 99.000000 0.080612 125.000000 -0.170909 144.000000 -0.119294 13.000000 -0.134654 64.000000 0.343152 66.000000 0.336694
301893.000000 0.733748 209.000000 252.000000 138.000000 -0.066974 168.000000 0.290017 188.000000 0.080644 241.000000 -0.006126 14.000000 -0.323634 53.000000 0.523813 62.000000 0.371226
302431.000000 1.280782 142.000000 222.000000 180.000000 -0.052896 201.000000 0.034217 199.000000 -0.072083 206.000000 0.142461 16.000000 -0.342634 61.000000 0.154015 85.000000 -0.034292
302653.000000 1.094154 222.000000 150.000000 107.000000 -0.017947 129.000000 0.240628 129.000000 0.240628 136.000000 -0.246143 13.000000 -0.216019 68.000000 0.232584 97.000000 0.005721
303168.000000 1.346613 365.000000 187.000000 76.000000 -0.004766 121.000000 0.327820 177.000000 0.742177 184.000000 1.128698 15.000000 -0.052382 62.000000 0.093917 76.000000 -0.004766
304027.000000 0.785281 291.000000 198.000000 64.000000 0.394373 144.000000 -0.005501 161.000000 -0.095766 181.000000 -0.141597 18.000000 -0.257855 61.000000 0.421160 64.000000 0.394373
304699.000000 1.419451 205.000000 139.000000 -1.000000 1.388683 84.000000 0.001318 111.000000 -0.200158 123.000000 -0.014891 23.000000 -0.406613 72.000000 0.162179 138.000000 1.294827
305157.000000 1.235535 134.000000 224.000000 184.000000 -0.074563 203.000000 0.011425 201.000000 -0.072039 208.000000 0.133306 25.000000 -0.367863 69.000000 0.172261 108.000000 -0.030781
305381.000000 1.254230 224.000000 355.000000 294.000000 -0.033574 334.000000 0.054656 329.000000 0.012681 336.000000 0.128591 18.000000 -0.289580 73.000000 0.126785 75.000000 0.111613
305736.000000 1.441462 355.000000 248.000000 127.000000 -0.012084 169.000000 -0.009888 211.000000 -0.035971 233.000000 0.090016 18.000000 -0.305326 79.000000 0.147463 127.000000 -0.012084
306612.000000 0.678544 341.000000 241.000000 190.000000 -0.100092 220.000000 -0.025531 217.000000 -0.082773 224.000000 -0.112037 15.000000 -0.191706 69.000000 0.489251 119.000000 -0.002254
306853.000000 1.022666 241.000000 176.000000 112.000000 -0.052195 142.000000 0.030972 144.000000 -0.004153 158.000000 -0.074968 14.000000 0.048762 67.000000 0.465642 112.000000 -0.052195
307029.000000 1.123027 176.000000 268.000000 196.000000 0.034953 247.000000 0.199733 248.000000 0.264733 253.000000 0.307335 16.000000 -0.232397 77.000000 0.558402 99.000000 -0.020438
307297.000000 1.396771 268.000000 220.000000 168.000000 0.225912 199.000000 1.059564 210.000000 1.362543 213.000000 1.228374 17.000000 -0.157147 74.000000 0.294827 111.000000 -0.013293
308584.000000 0.862288 171.000000 229.000000 149.000000 -0.055829 172.000000 0.013638 201.000000 -0.044324 214.000000 -0.003949 19.000000 -0.248793 62.000000 0.291975 90.000000 -0.025422
309134.000000 1.107508 321.000000 335.000000 259.000000 0.000784 277.000000 0.233935 292.000000 -0.042444 319.000000 0.030046 18.000000 -0.286911 123.000000 0.513075 142.000000 -0.032569
309837.000000 1.087213 368.000000 160.000000 76.000000 0.165800 114.000000 0.248119 125.000000 0.160986 143.000000 0.105329 8.000000 -0.039653 60.000000 0.404624 76.000000 0.165800
310130.000000 0.636471 133.000000 125.000000 -3.000000 0.479919 77.000000 0.010800 99.000000 -0.108698 110.000000 -0.376911 12.000000 -0.225942 58.000000 0.293558 64.000000 0.236442
310255.000000 0.629563 125.000000 231.000000 120.000000 0.051286 171.000000 0.231758 188.000000 -0.131284 214.000000 0.163810 14.000000 -0.149184 58.000000 0.530955 88.000000 0.194985
310748.000000 1.321929 262.000000 305.000000 262.000000 -0.039737 284.000000 0.078478 281.000000 -0.049626 288.000000 0.040765 15.000000 -0.278759 77.000000 0.201995 143.000000 -0.072066
311532.000000 1.299375 235.000000 289.000000 185.000000 0.034751 207.000000 0.211476 254.000000 -0.197820 274.000000 0.301931 17.000000 -0.255094 72.000000 0.290564 76.000000 0.267445
312025.000000 1.281020 204.000000 209.000000 90.000000 -0.007883 142.000000 0.054908 168.000000 -0.056612 196.000000 -0.036410 21.000000 -0.320657 46.000000 0.380315 66.000000 0.297854
312234.000000 0.876098 209.000000 192.000000 121.000000 -0.017431 167.000000 0.031708 169.000000 -0.024232 176.000000 -0.028149 14.000000 -0.228134 68.000000 0.369044 104.000000 0.021236
312426.000000 1.197180 192.000000 194.000000 135.000000 -0.092132 172.000000 -0.030971 170.000000 -0.044466 177.000000 -0.019608 15.000000 -0.250248 71.000000 0.306738 126.000000 -0.037006
312620.000000 1.255438 194.000000 273.000000 226.000000 -0.007414 252.000000 0.076253 251.000000 0.020391 258.000000 0.021379 14.000000 -0.266175 72.000000 0.321568 131.000000 0.024498
312893.000000 1.193448 273.000000 210.000000 162.000000 -0.013808 189.000000 0.378403 197.000000 0.721209 204.000000 1.016930 15.000000 -0.134859 121.000000 0.305267 162.000000 -0.013808
313410.000000 0.927147 133.000000 203.000000 110.000000 0.028796 131.000000 0.150644 146.000000 0.021051 181.000000 -0.010829 14.000000 -0.140017 70.000000 0.227322 76.000000 0.175112
313613.000000 1.330708 203.000000 281.000000 140.000000 -0.068388 179.000000 0.157756 243.000000 -0.090597 266.000000 0.134358 17.000000 -0.334167 108.000000 0.366157 126.000000 0.003321
314118.000000 0.812493 224.000000 157.000000 71.000000 0.330361 95.000000 0.028478 119.000000 -0.109529 143.000000 -0.124546 14.000000 -0.261769 71.000000 0.330361 119.000000 -0.109529
314275.000000 1.086269 157.000000 132.000000 61.000000 0.218730 80.000000 0.057257 102.000000 -0.087082 117.000000 -0.129809 16.000000 -0.203010 58.000000 0.246991 61.000000 0.218730
314407.000000 0.880159 132.000000 235.000000 115.000000 0.746837 182.000000 0.215971 201.000000 0.022054 223.000000 -0.009200 15.000000 -0.247724 112.000000 0.963216 115.000000 0.746837
315322.000000 1.048391 239.000000 156.000000 71.000000 0.281458 135.000000 0.135078 132.000000 0.026975 139.000000 0.005815 17.000000 -0.250435 71.000000 0.281458 122.000000 -0.104532
315478.000000 1.051834 156.000000 213.000000 168.000000 -0.054404 191.000000 0.040064 189.000000 -0.043275 196.000000 -0.113275 21.000000 -0.314515 67.000000 0.203872 72.000000 0.188715
315691.000000 1.171288 213.000000 211.000000 77.000000 0.184389 129.000000 0.118294 130.000000 0.097995 195.000000 0.077980 17.000000 -0.248589 77.000000 0.184389 130.000000 0.097995
315902.000000 0.836350 211.000000 248.000000 138.000000 0.443247 200.000000 0.251991 215.000000 0.098951 234.000000 -0.588527 26.000000 -0.311958 135.000000 0.604830 138.000000 0.443247
316479.000000 1.264700 329.000000 187.000000 84.000000 -0.068995 124.000000 0.627021 149.000000 -2.384172 156.000000 -1.675675 15.000000 -0.080518 68.000000 0.019813 70.000000 -0.005970
317074.000000 1.178277 408.000000 145.000000 101.000000 -0.001272 124.000000 0.048131 122.000000 -0.047982 129.000000 -0.300098 15.000000 -0.262037 74.000000 0.216800 75.000000 0.177082
317219.000000 1.176503 145.000000 260.000000 213.000000 -0.115848 239.000000 0.176848 236.000000 0.025548 243.000000 0.057773 20.000000 -0.158843 65.000000 0.329328 66.000000 0.314233
317479.000000 1.399044 260.000000 245.000000 196.000000 -0.091583 222.000000 0.242178 222.000000 0.242178 229.000000 0.173510 18.000000 -0.345361 122.000000 0.180771 141.000000 0.032479
317724.000000 1.308432 245.000000 448.000000 258.000000 -0.018887 290.000000 0.480235 322.000000 0.147321 432.000000 -0.027212 16.000000 -0.145596 202.000000 1.360892 258.000000 -0.018887
318172.000000 1.251691 448.000000 243.000000 142.000000 -0.029060 173.000000 0.257272 188.000000 -0.057713 222.000000 -0.094454 15.000000 -0.310235 54.000000 0.237604 60.000000 -0.008618
318415.000000 1.306159 243.000000 193.000000 84.000000 0.057901 123.000000 -0.117461 166.000000 -0.290676 177.000000 -0.182117 20.000000 -0.319530 93.000000 0.223433 118.000000 -0.120281
320774.000000 1.440533 1943.000000 179.000000 75.000000 -0.197711 116.000000 0.236989 145.000000 -2.305753 152.000000 -1.513041 16.000000 -0.040627 100.000000 0.076332 112.000000 -0.006756
321666.000000 1.370502 246.000000 225.000000 160.000000 0.007399 194.000000 0.073778 201.000000 -0.180767 208.000000 0.078418 18.000000 -0.276976 65.000000 0.241816 74.000000 0.152882
321891.000000 1.350533 225.000000 142.000000 0.000000 1.350533 86.000000 -0.006709 113.000000 -0.178493 129.000000 -0.054293 23.000000 -0.382131 60.000000 0.262069 81.000000 0.052335
322901.000000 1.900990 317.000000 183.000000 113.000000 -0.108181 162.000000 0.582337 150.000000 -1.966817 157.000000 0.057509 17.000000 -0.236454 82.000000 -0.017850 94.000000 -0.158084
323235.000000 1.129843 151.000000 179.000000 115.000000 -0.048433 156.000000 0.022992 156.000000 0.022992 163.000000 0.130877 18.000000 -0.708055 96.000000 0.039923 116.000000 -0.073872
323754.000000 1.611554 174.000000 142.000000 69.000000 0.249325 121.000000 0.044373 121.000000 0.044373 128.000000 -0.024954 21.000000 -0.391440 70.000000 0.249435 143.000000 1.119608
324273.000000 1.102855 377.000000 263.000000 216.000000 -0.109417 242.000000 0.096992 240.000000 -0.024310 247.000000 0.074562 16.000000 -0.175327 139.000000 0.241301 171.000000 -0.022051
324536.000000 1.191411 263.000000 166.000000 117.000000 -0.114547 145.000000 0.139449 144.000000 0.035797 151.000000 -0.094030 16.000000 -0.295705 66.000000 0.244686 114.000000 -0.118888
324702.000000 0.778619 166.000000 131.000000 89.000000 -0.043561 110.000000 0.042441 113.000000 0.202645 118.000000 -0.182057 14.000000 -0.173057 54.000000 0.402366 89.000000 -0.043561
325043.000000 1.032725 210.000000 238.000000 170.000000 -0.111159 200.000000 0.059719 215.000000 -0.152350 225.000000 -0.098166 20.000000 -0.194688 128.000000 0.407679 142.000000 -0.044014
325672.000000 2.026035 240.000000 165.000000 -5.000000 1.434750 99.000000 1.049574 139.000000 -0.047416 152.000000 -0.148842 18.000000 -2.472664 83.000000 1.596551 137.000000 0.039559
327173.000000 1.199703 242.000000 235.000000 167.000000 0.016551 203.000000 0.190628 209.000000 -0.074874 222.000000 0.095125 18.000000 -0.332916 64.000000 0.399562 104.000000 -0.029122
327408.000000 0.945125 235.000000 230.000000 138.000000 0.039941 176.000000 0.483560 197.000000 -0.132931 218.000000 0.026740 14.000000 -0.214499 67.000000 0.444437 106.000000 -0.033696
328160.000000 0.911301 221.000000 198.000000 113.000000 0.091647 144.000000 0.102492 162.000000 -0.056413 181.000000 0.111312 17.000000 -0.229420 72.000000 0.338717 113.000000 0.091647
328670.000000 1.030959 312.000000 243.000000 117.000000 0.017884 156.000000 0.150235 191.000000 -0.114515 230.000000 0.242051 16.000000 -0.271079 70.000000 0.216347 75.000000 0.167428
333663.000000 1.199605 1040.000000 145.000000 92.000000 -0.001583 124.000000 0.150673 123.000000 0.069215 130.000000 0.034091 17.000000 -0.275880 70.000000 0.118353 71.000000 0.094294
333808.000000 0.953465 145.000000 381.000000 280.000000 -0.008481 309.000000 0.011488 321.000000 -0.017744 365.000000 0.009543 14.000000 -0.214668 119.000000 0.626916 120.000000 0.612073
334189.000000 1.111707 381.000000 266.000000 136.000000 0.083728 162.000000 0.039560 197.000000 0.005360 243.000000 -0.058258 14.000000 -0.148667 79.000000 0.144200 102.000000 0.075923
334455.000000 1.283073 266.000000 269.000000 99.000000 0.102381 165.000000 0.058398 197.000000 -0.094360 254.000000 0.212459 19.000000 -0.392539 76.000000 0.130330 83.000000 0.098041
335145.000000 0.987152 268.000000 258.000000 144.000000 0.038966 166.000000 0.019200 175.000000 -0.029187 240.000000 -0.033291 13.000000 -0.177802 75.000000 0.151274 79.000000 0.105819
335403.000000 1.203746 258.000000 162.000000 107.000000 -0.080752 134.000000 0.119529 142.000000 -0.159734 149.000000 0.052444 17.000000 -0.310189 69.000000 0.185077 107.000000 -0.080752
335738.000000 1.203046 173.000000 255.000000 193.000000 -0.087006 215.000000 0.002649 222.000000 -0.021866 242.000000 -0.160736 15.000000 -0.247424 64.000000 0.196510 107.000000 -0.024325
335993.000000 0.689453 255.000000 186.000000 76.000000 0.188716 145.000000 0.053807 160.000000 -0.057698 172.000000 -0.044468 9.000000 -0.140659 74.000000 0.224657 77.000000 0.193262
336179.000000 1.253589 186.000000 361.000000 188.000000 0.250517 255.000000 0.031023 279.000000 -0.049448 338.000000 -0.014795 13.000000 -0.182665 127.000000 0.891425 129.000000 0.836801
336540.000000 1.403495 361.000000 206.000000 128.000000 -0.086723 185.000000 0.352020 167.000000 -1.970314 174.000000 -1.332383 20.000000 -0.124844 72.000000 0.041991 90.000000 -0.015563
337685.000000 1.277744 220.000000 267.000000 143.000000 -0.097707 168.000000 0.007149 194.000000 -0.031019 252.000000 0.013997 17.000000 -0.287979 72.000000 0.273874 112.000000 -0.122442
338300.000000 1.223151 348.000000 220.000000 159.000000 -0.080018 190.000000 0.038981 191.000000 0.028981 198.000000 -0.035799 15.000000 -0.212414 76.000000 0.091851 134.000000 -0.036835
338520.000000 1.420095 220.000000 200.000000 128.000000 -0.162240 167.000000 -0.069279 168.000000 -0.072320 182.000000 0.054889 16.000000 -0.300797 71.000000 0.228577 128.000000 -0.162240
339348.000000 1.146349 367.000000 241.000000 141.000000 -0.020187 173.000000 0.027177 175.000000 -0.013167 220.000000 -0.058809 14.000000 -0.111253 77.000000 0.125201 79.000000 0.117740
339893.000000 1.129218 304.000000 402.000000 289.000000 -0.095881 336.000000 0.799845 337.000000 0.789938 387.000000 -0.062788 16.000000 -0.124324 203.000000 1.101300 244.000000 -0.011177
340295.000000 1.358592 402.000000 331.000000 206.000000 -0.005767 229.000000 0.049687 232.000000 0.023150 315.000000 0.058668 16.000000 -0.325611 114.000000 1.068573 115.000000 0.988636
340626.000000 1.406929 331.000000 199.000000 126.000000 0.013384 178.000000 0.355394 160.000000 -1.685986 167.000000 -1.133368 16.000000 -0.098776 72.000000 0.036097 74.000000 -0.000188
341067.000000 0.875455 242.000000 343.000000 247.000000 -0.035157 277.000000 0.000803 297.000000 -0.035545 322.000000 -0.017536 14.000000 -0.166598 158.000000 0.160527 214.000000 -0.039673
341991.000000 0.758041 299.000000 290.000000 212.000000 0.000427 235.000000 0.016025 236.000000 0.011730 275.000000 0.037623 9.000000 -0.111112 74.000000 0.280504 113.000000 -0.007222
342281.000000 1.211712 290.000000 215.000000 145.000000 -0.118699 185.000000 -0.010109 186.000000 -0.010297 194.000000 -0.037789 14.000000 -0.175280 71.000000 0.176630 113.000000 -0.025958
342496.000000 1.378782 215.000000 229.000000 138.000000 -0.077507 168.000000 0.022790 201.000000 -0.109672 214.000000 0.066066 15.000000 -0.244399 72.000000 0.173013 138.000000 -0.077507
342725.000000 1.224154 229.000000 155.000000 71.000000 0.148134 118.000000 -0.018309 120.000000 -0.028294 142.000000 -0.062227 15.000000 -0.269028 71.000000 0.148134 120.000000 -0.028294
342880.000000 0.900893 155.000000 236.000000 120.000000 -0.050594 158.000000 0.007663 174.000000 -0.007133 219.000000 -0.035584 15.000000 -0.210673 60.000000 0.221132 108.000000 -0.019480
343116.000000 1.021029 236.000000 197.000000 75.000000 0.039433 119.000000 0.057852 139.000000 -0.017604 172.000000 0.006814 17.000000 -0.233735 113.000000 0.073902 139.000000 -0.017604
343313.000000 1.470250 197.000000 301.000000 249.000000 -0.059216 274.000000 0.056364 279.000000 0.025910 285.000000 0.090471 22.000000 -0.288356 77.000000 0.141375 81.000000 0.108695
343889.000000 1.026148 275.000000 216.000000 153.000000 -0.071756 173.000000 0.005531 187.000000 -0.032588 199.000000 -0.084218 16.000000 -0.264164 77.000000 0.157792 107.000000 -0.006205
344105.000000 0.891204 216.000000 266.000000 166.000000 -0.179811 209.000000 0.183260 210.000000 0.182649 251.000000 -0.150125 16.000000 -0.198907 141.000000 0.860298 164.000000 -0.196252
344371.000000 0.910988 266.000000 138.000000 95.000000 -0.025548 117.000000 0.119467 115.000000 0.068386 122.000000 0.105815 13.000000 -0.235564 57.000000 0.142933 60.000000 0.130629
344737.000000 1.074765 228.000000 165.000000 124.000000 -0.005252 143.000000 0.045752 146.000000 0.076974 152.000000 0.150438 14.000000 -0.238354 94.000000 0.030752 110.000000 0.024732
345131.000000 1.003969 229.000000 360.000000 269.000000 -0.013132 293.000000 0.040470 307.000000 -0.042055 343.000000 0.068902 14.000000 -0.223021 71.000000 0.146881 73.000000 0.131552
345780.000000 1.202240 289.000000 185.000000 138.000000 -0.123040 164.000000 -0.033999 168.000000 0.049856 173.000000 0.011847 17.000000 -0.231615 79.000000 0.203199 128.000000 -0.113228
346265.000000 1.163733 300.000000 275.000000 231.000000 -0.031111 254.000000 0.046823 250.000000 -0.035106 257.000000 0.048390 19.000000 -0.286395 77.000000 0.152255 106.000000 0.054447
346540.000000 1.328609 275.000000 343.000000 284.000000 -0.054341 305.000000 0.054830 317.000000 -0.006063 327.000000 0.107951 16.000000 -0.254717 72.000000 0.150814 74.000000 0.121331
346883.000000 1.143673 343.000000 213.000000 129.000000 -0.029984 172.000000 0.007835 173.000000 -0.002885 199.000000 -0.036882 15.000000 -0.185482 113.000000 0.042507 117.000000 -0.010079
347096.000000 0.788495 213.000000 151.000000 68.000000 0.231602 102.000000 -0.020167 111.000000 -0.025183 136.000000 -0.094666 16.000000 -0.226849 68.000000 0.231602 102.000000 -0.020167
347247.000000 0.874518 151.000000 252.000000 147.000000 -0.286440 194.000000 0.150970 217.000000 -0.035017 238.000000 0.028948 13.000000 -0.120717 123.000000 0.822291 147.000000 -0.286440
347640.000000 0.998561 141.000000 285.000000 122.000000 0.031223 171.000000 0.061473 180.000000 0.048010 270.000000 0.011728 15.000000 -0.174873 76.000000 0.139547 122.000000 0.031223
347925.000000 1.111399 285.000000 206.000000 110.000000 -0.060157 143.000000 0.395613 167.000000 -2.003745 174.000000 -1.377601 18.000000 -0.099056 67.000000 0.101864 78.000000 0.042570
348307.000000 1.174529 176.000000 405.000000 198.000000 0.797821 245.000000 0.029233 254.000000 0.017838 391.000000 0.130062 15.000000 -0.318606 199.000000 0.807178 247.000000 0.018652
348912.000000 1.272050 200.000000 219.000000 180.000000 -0.000185 198.000000 0.019156 192.000000 -0.107020 199.000000 0.008435 17.000000 -0.234955 74.000000 0.107443 75.000000 0.103164
349648.000000 1.335672 288.000000 231.000000 133.000000 -0.006990 173.000000 0.018292 175.000000 -0.018777 212.000000 -0.081867 15.000000 -0.210957 84.000000 0.103714 123.000000 -0.003557
350187.000000 1.257788 308.000000 224.000000 142.000000 -0.042021 173.000000 -0.006052 175.000000 -0.027196 209.000000 0.048977 16.000000 -0.250020 79.000000 0.064385 109.000000 -0.017524
350556.000000 1.084469 145.000000 354.000000 177.000000 0.196194 213.000000 0.042854 233.000000 -0.093072 342.000000 0.220439 18.000000 -0.256159 110.000000 1.038202 138.000000 -0.312302
350910.000000 1.195770 354.000000 193.000000 100.000000 -0.156566 130.000000 0.449138 144.000000 -2.252117 151.000000 -2.107650 13.000000 -0.059999 75.000000 -0.018523 87.000000 -0.111737
351506.000000 1.363137 240.000000 362.000000 233.000000 -0.082176 295.000000 0.037523 297.000000 0.011253 346.000000 0.166708 16.000000 -0.224716 79.000000 0.110908 105.000000 -0.003342
351868.000000 1.318305 362.000000 301.000000 256.000000 -0.056266 280.000000 0.043765 275.000000 -0.091737 282.000000 0.053796 15.000000 -0.229954 89.000000 0.085660 106.000000 0.038999
352169.000000 1.251445 301.000000 195.000000 140.000000 -0.119387 174.000000 -0.020517 169.000000 -0.067242 176.000000 0.024562 19.000000 -0.240388 76.000000 0.155600 112.000000 -0.090140
352364.000000 1.491787 195.000000 336.000000 223.000000 0.003324 289.000000 0.030785 302.000000 -0.012681 319.000000 0.132226 19.000000 -0.260047 73.000000 0.176914 115.000000 -0.067087
353013.000000 0.985521 313.000000 300.000000 247.000000 -0.017914 279.000000 0.008181 276.000000 -0.021410 283.000000 0.092507 14.000000 -0.223225 71.000000 0.214082 112.000000 0.008831
353313.000000 1.221596 300.000000 199.000000 110.000000 -0.068231 162.000000 0.016876 177.000000 -0.079331 182.000000 0.032191 16.000000 -0.296994 65.000000 0.031846 114.000000 -0.040817
353512.000000 1.311300 199.000000 274.000000 215.000000 -0.021595 253.000000 0.033714 241.000000 -0.042131 248.000000 0.008715 16.000000 -0.168323 70.000000 0.138891 100.000000 -0.003917
354094.000000 1.352341 308.000000 283.000000 226.000000 -0.007789 262.000000 0.125739 258.000000 0.010378 265.000000 0.185833 14.000000 -0.169209 82.000000 0.078252 85.000000 0.042875
354377.000000 1.162494 283.000000 251.000000 178.000000 -0.040297 213.000000 0.009217 218.000000 -0.022631 225.000000 -0.089701 17.000000 -0.235862 81.000000 0.118118 105.000000 -0.017290
354628.000000 1.264420 251.000000 256.000000 125.000000 -0.033874 172.000000 0.020407 220.000000 -0.012338 241.000000 0.046076 16.000000 -0.156349 75.000000 0.167522 101.000000 -0.077761
354884.000000 0.938679 256.000000 313.000000 262.000000 -0.109547 287.000000 0.082740 284.000000 0.037677 291.000000 0.053116 14.000000 -0.115319 79.000000 0.181516 106.000000 -0.028918
355471.000000 1.339107 274.000000 228.000000 136.000000 -0.085282 163.000000 -0.022478 178.000000 -0.071568 211.000000 0.037382 14.000000 -0.151581 78.000000 0.109032 121.000000 -0.021662
355699.000000 1.444721 228.000000 133.000000 72.000000 0.123357 112.000000 0.176648 108.000000 0.046288 115.000000 -0.187976 16.000000 -0.216281 73.000000 0.123405 104.000000 0.006006
355832.000000 1.139297 133.000000 306.000000 247.000000 -0.041271 276.000000 0.042161 277.000000 0.032051 288.000000 0.139763 20.000000 -0.287350 65.000000 0.142869 114.000000 0.079064
356138.000000 1.391174 306.000000 545.000000 276.000000 0.266979 377.000000 1.093640 438.000000 0.002904 531.000000 0.078012 19.000000 -0.205095 228.000000 1.122463 277.000000 0.282088
356683.000000 1.224985 545.000000 269.000000 132.000000 0.054042 187.000000 0.038244 208.000000 -0.034936 251.000000 0.041806 13.000000 -0.144434 126.000000 0.054528 132.000000 0.054042
356952.000000 1.366586 269.000000 373.000000 300.000000 -0.013577 350.000000 0.010845 352.000000 -0.000361 359.000000 0.231394 16.000000 -0.221565 80.000000 0.138587 82.000000 0.093712
357754.000000 1.442023 429.000000 606.000000 562.000000 -0.034106 585.000000 0.191018 583.000000 0.082350 590.000000 0.292696 17.000000 -0.186173 219.000000 1.254249 278.000000 -0.067755
358360.000000 1.249341 606.000000 230.000000 84.000000 -0.014166 141.000000 0.106524 171.000000 0.099170 213.000000 0.128854 16.000000 -0.318196 130.000000 0.112652 138.000000 0.076352
358590.000000 1.200453 230.000000 142.000000 37.000000 -0.323809 86.000000 0.095441 114.000000 -0.075736 127.000000 -0.150784 22.000000 -0.313480 74.000000 0.182009 114.000000 -0.075736
358868.000000 0.909768 136.000000 332.000000 264.000000 0.049168 311.000000 0.079968 308.000000 0.037869 315.000000 0.192805 20.000000 -0.263382 77.000000 0.184217 116.000000 -0.015318
359200.000000 1.452554 332.000000 206.000000 114.000000 -0.006991 146.000000 0.596801 171.000000 -1.677841 178.000000 -1.131132 16.000000 -0.208385 105.000000 0.029984 114.000000 -0.006991
359679.000000 1.080296 273.000000 251.000000 135.000000 0.107068 166.000000 0.066065 195.000000 0.004937 235.000000 0.066708 15.000000 -0.226131 137.000000 0.133071 166.000000 0.066065
359930.000000 1.346662 251.000000 386.000000 341.000000 0.058545 365.000000 0.060097 366.000000 0.084783 373.000000 0.232525 17.000000 -0.232364 83.000000 0.186158 136.000000 -0.034067
360316.000000 1.428983 386.000000 239.000000 197.000000 0.004187 218.000000 0.047807 217.000000 -0.029058 224.000000 0.256553 14.000000 -0.186332 141.000000 0.048276 165.000000 0.003935
360555.000000 1.380455 239.000000 136.000000 27.000000 -0.320234 82.000000 0.114281 107.000000 -0.101456 121.000000 -0.193148 14.000000 -0.225893 77.000000 0.149437 107.000000 -0.101456
360691.000000 0.883497 136.000000 336.000000 234.000000 0.020345 281.000000 0.053149 307.000000 -0.034763 318.000000 0.059076 17.000000 -0.273510 84.000000 0.129357 85.000000 0.129247
361027.000000 1.202493 336.000000 292.000000 211.000000 -0.039074 271.000000 0.102476 268.000000 0.040579 275.000000 0.165407 18.000000 -0.254045 120.000000 0.130030 165.000000 0.030468
361319.000000 1.382696 292.000000 349.000000 310.000000 -0.017585 328.000000 0.054954 327.000000 0.015095 334.000000 0.279498 17.000000 -0.253746 85.000000 0.093306 110.000000 0.028884
361668.000000 1.284325 349.000000 224.000000 116.000000 0.033201 168.000000 0.011066 179.000000 -0.007773 209.000000 0.095421 18.000000 -0.274326 115.000000 0.052731 116.000000 0.033201
361892.000000 1.045063 224.000000 228.000000 168.000000 -0.017617 193.000000 0.052886 207.000000 -0.016392 213.000000 0.087323 15.000000 -0.258934 70.000000 0.151223 107.000000 -0.061831
362120.000000 1.296837 228.000000 258.000000 114.000000 -0.011410 173.000000 0.077415 212.000000 -0.074260 235.000000 -0.011595 17.000000 -0.197646 71.000000 0.104705 72.000000 0.094548
363014.000000 1.184545 239.000000 217.000000 107.000000 0.058903 196.000000 0.321474 180.000000 -0.008636 187.000000 0.081129 13.000000 -0.099813 112.000000 0.176490 203.000000 0.557038
363726.000000 1.375532 145.000000 243.000000 138.000000 -0.252321 186.000000 0.162805 203.000000 0.065484 228.000000 0.104074 14.000000 -0.236881 115.000000 0.825376 138.000000 -0.252321
363969.000000 0.807945 243.000000 190.000000 101.000000 0.017695 123.000000 0.062603 160.000000 0.006503 171.000000 0.080626 13.000000 -0.226584 69.000000 0.096613 101.000000 0.017695
364159.000000 1.185564 190.000000 190.000000 73.000000 0.029091 114.000000 0.113559 158.000000 0.002415 172.000000 0.068385 16.000000 -0.305550 109.000000 0.130690 130.000000 0.020645
364349.000000 1.414168 190.000000 152.000000 71.000000 0.039184 92.000000 -0.026096 114.000000 -0.080184 136.000000 0.011148 19.000000 -0.367541 73.000000 0.070187 106.000000 -0.044950
364743.000000 1.366850 242.000000 181.000000 140.000000 -0.002444 160.000000 0.084265 163.000000 0.201850 167.000000 0.138182 17.000000 -0.277491 88.000000 0.104434 116.000000 0.054092
364924.000000 1.174015 181.000000 278.000000 219.000000 0.010913 257.000000 0.048106 254.000000 0.025034 261.000000 0.090347 16.000000 -0.238272 85.000000 0.118747 164.000000 -0.004292
365202.000000 1.032243 278.000000 201.000000 131.000000 0.043856 149.000000 0.075909 156.000000 0.074546 185.000000 0.112009 17.000000 -0.174874 96.000000 0.155627 97.000000 0.140815
365743.000000 1.451993 340.000000 494.000000 438.000000 -0.007632 456.000000 0.007714 457.000000 -0.023540 480.000000 -0.009354 15.000000 -0.190233 226.000000 1.329208 272.000000 -0.074618
366237.000000 0.913311 494.000000 231.000000 72.000000 0.031930 139.000000 0.126946 178.000000 0.009516 214.000000 0.062195 13.000000 -0.155889 123.000000 0.188467 125.000000 0.153248
366679.000000 1.287678 211.000000 356.000000 259.000000 -0.006048 292.000000 0.049702 296.000000 0.023982 340.000000 0.170772 20.000000 -0.274076 83.000000 0.139250 118.000000 0.067515
367035.000000 1.268577 356.000000 283.000000 108.000000 0.063446 176.000000 0.080205 232.000000 -0.039432 267.000000 0.002478 15.000000 -0.194513 93.000000 0.091064 113.000000 0.062019
367318.000000 0.852319 283.000000 144.000000 0.000000 0.852319 87.000000 0.115077 110.000000 -0.040862 126.000000 -1.161707 18.000000 -0.136522 74.000000 0.248557 77.000000 0.241158
367746.000000 1.329781 284.000000 244.000000 117.000000 0.013603 179.000000 0.038510 187.000000 0.000877 224.000000 0.055939 16.000000 -0.177571 71.000000 0.027663 120.000000 0.022442
368159.000000 1.312929 169.000000 174.000000 73.000000 0.094842 108.000000 -0.040736 118.000000 -0.063791 160.000000 0.079404 21.000000 -0.331758 73.000000 0.094842 107.000000 -0.061049
368490.000000 0.886788 157.000000 342.000000 235.000000 0.019763 269.000000 0.069339 303.000000 -0.087778 323.000000 0.068789 16.000000 -0.178461 65.000000 0.152635 84.000000 0.055316
368832.000000 1.482833 342.000000 132.000000 79.000000 -0.011585 101.000000 0.074936 99.000000 0.039514 106.000000 0.066081 19.000000 -0.255754 77.000000 -0.011600 82.000000 0.027286
368964.000000 1.209278 132.000000 251.000000 83.000000 1.750456 167.000000 -0.131380 184.000000 -0.292381 236.000000 -0.048197 20.000000 -2.483667 83.000000 1.750456 162.000000 -0.139624
