265.000000 2.088211 265.000000 311.000000 218.000000 -0.110971 252.000000 0.012198 263.000000 -0.027127 293.000000 -0.149013 15.000000 -0.119658 96.000000 0.374856 98.000000 0.370405
1795.000000 2.121756 312.000000 333.000000 246.000000 -0.098917 273.000000 0.025391 297.000000 -0.159218 314.000000 -0.166128 16.000000 -0.108416 107.000000 0.383404 168.000000 0.020881
2444.000000 2.046869 316.000000 301.000000 169.000000 -0.031940 238.000000 -0.007698 241.000000 -0.014123 284.000000 -0.188274 15.000000 -0.127785 93.000000 0.378794 144.000000 -0.104356
3044.000000 2.027284 299.000000 303.000000 168.000000 -0.007634 245.000000 0.009419 256.000000 -0.033512 285.000000 -0.158227 16.000000 -0.110961 98.000000 0.364794 168.000000 -0.007634
3347.000000 1.988560 303.000000 300.000000 208.000000 -0.115596 240.000000 -0.006270 264.000000 -0.165894 281.000000 -0.162211 14.000000 -0.075233 103.000000 0.349543 170.000000 -0.001707
3647.000000 2.044861 300.000000 308.000000 177.000000 -0.046032 246.000000 0.013997 279.000000 -0.170049 288.000000 -0.159375 15.000000 -0.114369 97.000000 0.357809 99.000000 0.343295
4939.000000 2.095973 329.000000 316.000000 165.000000 0.009295 244.000000 0.017445 247.000000 0.006958 301.000000 -0.151709 16.000000 -0.122713 89.000000 0.358698 91.000000 0.352726
5255.000000 2.054875 316.000000 326.000000 162.000000 0.032081 254.000000 0.012084 282.000000 -0.141787 306.000000 -0.148919 15.000000 -0.083136 96.000000 0.352504 162.000000 0.032081
5892.000000 2.010531 311.000000 325.000000 227.000000 -0.114877 264.000000 0.020061 274.000000 -0.032275 305.000000 -0.154815 17.000000 -0.125412 102.000000 0.371520 107.000000 0.331567
6873.000000 2.128390 319.000000 306.000000 220.000000 -0.119463 247.000000 -0.010531 259.000000 -0.045876 287.000000 -0.178086 18.000000 -0.138961 98.000000 0.392965 128.000000 -0.035091
7781.000000 2.152759 299.000000 317.000000 226.000000 -0.105798 257.000000 0.013685 276.000000 -0.116205 297.000000 -0.175623 12.000000 -0.036755 96.000000 0.362259 153.000000 -0.050985
9361.000000 2.121439 300.000000 303.000000 165.000000 -0.014846 245.000000 -0.007072 256.000000 -0.041586 283.000000 -0.161758 15.000000 -0.128201 94.000000 0.391533 136.000000 -0.027853
12097.000000 1.991285 293.000000 299.000000 165.000000 -0.014124 238.000000 0.007305 272.000000 -0.170500 282.000000 -0.163948 16.000000 -0.119673 94.000000 0.323306 130.000000 -0.020626
13001.000000 2.033933 302.000000 300.000000 167.000000 -0.003791 239.000000 0.011956 272.000000 -0.162732 281.000000 -0.160177 6.000000 -0.112665 96.000000 0.351602 98.000000 0.341774
13886.000000 2.197448 287.000000 284.000000 166.000000 -0.013717 229.000000 -0.016097 246.000000 -0.154437 266.000000 -0.165404 19.000000 -0.185452 87.000000 0.381869 89.000000 0.372417
14461.000000 1.998891 291.000000 308.000000 214.000000 -0.103510 248.000000 0.014653 259.000000 -0.047556 290.000000 -0.174531 19.000000 -0.168945 99.000000 0.367976 143.000000 -0.040926
14769.000000 2.149846 308.000000 313.000000 230.000000 -0.094779 254.000000 0.009358 281.000000 -0.190251 293.000000 -0.171895 16.000000 -0.150877 104.000000 0.399403 179.000000 -0.017883
15082.000000 2.163798 313.000000 301.000000 170.000000 -0.032427 243.000000 -0.010628 260.000000 -0.121082 279.000000 -0.176064 15.000000 -0.115339 97.000000 0.381053 99.000000 0.371681
15383.000000 2.072386 301.000000 301.000000 167.000000 0.009312 241.000000 0.002527 253.000000 -0.037803 279.000000 -0.170686 15.000000 -0.134825 96.000000 0.353493 98.000000 0.338775
16269.000000 2.229323 291.000000 307.000000 212.000000 -0.111681 241.000000 -0.000740 248.000000 -0.022995 288.000000 -0.171549 20.000000 -0.178923 98.000000 0.376834 141.000000 -0.039248
17219.000000 2.092877 332.000000 317.000000 219.000000 -0.116520 257.000000 0.019920 285.000000 -0.177996 297.000000 -0.177181 15.000000 -0.084632 102.000000 0.371979 142.000000 -0.063366
17536.000000 2.038152 317.000000 302.000000 166.000000 -0.021099 237.000000 -0.010923 253.000000 -0.042977 283.000000 -0.162070 16.000000 -0.135561 97.000000 0.366305 98.000000 0.356713
18146.000000 2.106328 308.000000 300.000000 164.000000 0.003461 241.000000 -0.016878 274.000000 -0.167270 285.000000 -0.177507 15.000000 -0.107121 92.000000 0.384964 93.000000 0.375199
21200.000000 2.114986 306.000000 318.000000 174.000000 -0.019216 255.000000 0.026617 274.000000 -0.106469 299.000000 -0.168680 16.000000 -0.104874 104.000000 0.356753 150.000000 -0.057179
21837.000000 1.998390 319.000000 300.000000 172.000000 -0.016878 235.000000 -0.011022 239.000000 -0.034062 283.000000 -0.158179 15.000000 -0.100152 98.000000 0.328905 132.000000 -0.032693
23327.000000 2.088797 300.000000 313.000000 218.000000 -0.091752 251.000000 0.019707 265.000000 -0.026014 297.000000 -0.169431 16.000000 -0.125687 100.000000 0.338352 147.000000 -0.038953
23955.000000 1.993167 315.000000 313.000000 228.000000 -0.114686 253.000000 -0.002867 255.000000 -0.023196 293.000000 -0.175263 15.000000 -0.113543 98.000000 0.325435 101.000000 0.310215
24268.000000 2.003356 313.000000 293.000000 95.000000 0.332148 179.000000 -0.021442 237.000000 -0.033556 276.000000 -0.158259 14.000000 -0.096929 96.000000 0.347462 165.000000 -0.003479
24561.000000 2.100312 293.000000 299.000000 165.000000 0.000941 240.000000 -0.009811 274.000000 -0.182959 282.000000 -0.176893 18.000000 -0.144893 92.000000 0.361408 133.000000 -0.032367
24860.000000 2.033908 299.000000 306.000000 210.000000 -0.096095 248.000000 -0.021079 277.000000 -0.166957 289.000000 -0.156016 17.000000 -0.129430 99.000000 0.352086 140.000000 -0.025813
25465.000000 2.096872 299.000000 309.000000 173.000000 -0.012332 244.000000 -0.003369 279.000000 -0.162130 291.000000 -0.161503 16.000000 -0.118237 99.000000 0.339420 138.000000 -0.063964
26389.000000 2.116350 306.000000 296.000000 167.000000 -0.007222 238.000000 -0.008559 261.000000 -0.162164 276.000000 -0.177792 17.000000 -0.127536 100.000000 0.372086 167.000000 -0.007222
26974.000000 2.097087 289.000000 299.000000 167.000000 -0.026093 240.000000 -0.005081 257.000000 -0.120441 278.000000 -0.158545 16.000000 -0.143711 96.000000 0.351540 132.000000 -0.012913
28784.000000 1.935220 292.000000 280.000000 166.000000 -0.018371 223.000000 -0.000553 242.000000 -0.134676 261.000000 -0.149643 14.000000 -0.087255 92.000000 0.352497 144.000000 -0.060357
29064.000000 2.002837 280.000000 280.000000 185.000000 -0.050015 220.000000 -0.001834 221.000000 -0.007900 262.000000 -0.150613 14.000000 -0.098400 89.000000 0.350144 91.000000 0.341116
29344.000000 2.014919 280.000000 306.000000 210.000000 -0.104718 240.000000 -0.006833 256.000000 -0.045092 289.000000 -0.154403 15.000000 -0.108717 97.000000 0.350469 171.000000 -0.029721
29650.000000 1.980125 306.000000 305.000000 168.000000 -0.016429 240.000000 -0.000580 252.000000 -0.059092 286.000000 -0.175439 16.000000 -0.149624 97.000000 0.321066 139.000000 -0.037100
29955.000000 2.033056 305.000000 305.000000 166.000000 -0.034815 243.000000 0.006301 244.000000 0.000690 286.000000 -0.165157 18.000000 -0.122321 99.000000 0.337557 139.000000 -0.049827
30574.000000 2.100270 314.000000 306.000000 166.000000 -0.031470 247.000000 -0.002900 279.000000 -0.154199 288.000000 -0.149432 17.000000 -0.140951 92.000000 0.348373 93.000000 0.328373
30880.000000 2.018643 306.000000 302.000000 168.000000 0.000928 242.000000 -0.002321 247.000000 -0.011600 285.000000 -0.165143 15.000000 -0.117924 96.000000 0.350376 119.000000 -0.000250
31792.000000 2.013742 313.000000 325.000000 230.000000 -0.111674 264.000000 0.012493 297.000000 -0.162601 306.000000 -0.158494 17.000000 -0.131006 103.000000 0.335536 165.000000 -0.013913
32758.000000 2.022239 321.000000 308.000000 207.000000 -0.091316 241.000000 -0.004156 247.000000 -0.007541 291.000000 -0.161603 15.000000 -0.121020 97.000000 0.344590 98.000000 0.344449
35239.000000 2.147965 300.000000 302.000000 165.000000 -0.014950 243.000000 -0.003258 255.000000 -0.046455 282.000000 -0.172380 14.000000 -0.122645 93.000000 0.353968 133.000000 -0.070878
37418.000000 2.123828 302.000000 301.000000 213.000000 -0.117803 241.000000 0.002981 252.000000 -0.053665 285.000000 -0.159949 18.000000 -0.144462 93.000000 0.366426 135.000000 -0.046585
39284.000000 2.005907 309.000000 294.000000 166.000000 0.002631 237.000000 0.011286 266.000000 -0.146959 278.000000 -0.146629 13.000000 -0.073435 93.000000 0.356570 127.000000 -0.035270
39578.000000 1.980927 294.000000 296.000000 166.000000 -0.003778 236.000000 -0.013449 248.000000 -0.044138 275.000000 -0.177695 15.000000 -0.105372 99.000000 0.343624 166.000000 -0.003778
40178.000000 2.006139 304.000000 303.000000 176.000000 -0.006099 242.000000 0.003852 253.000000 -0.057103 285.000000 -0.167323 17.000000 -0.141304 98.000000 0.358983 100.000000 0.349845
42286.000000 2.132534 289.000000 306.000000 166.000000 -0.015065 240.000000 0.001662 263.000000 -0.130955 285.000000 -0.192349 15.000000 -0.114097 96.000000 0.359620 141.000000 -0.027147
43203.000000 2.103804 301.000000 319.000000 178.000000 -0.029296 254.000000 0.014892 266.000000 -0.029952 300.000000 -0.163183 14.000000 -0.060975 104.000000 0.333421 162.000000 -0.013623
44404.000000 2.165066 290.000000 301.000000 209.000000 -0.085595 241.000000 0.015065 252.000000 -0.030546 281.000000 -0.169949 14.000000 -0.107285 98.000000 0.347147 135.000000 -0.052696
45629.000000 2.153548 305.000000 301.000000 180.000000 -0.003023 245.000000 0.009671 255.000000 -0.051944 282.000000 -0.161314 15.000000 -0.111279 101.000000 0.347022 168.000000 0.013953
45930.000000 2.165864 301.000000 286.000000 95.000000 0.348006 172.000000 0.012575 233.000000 -0.018679 268.000000 -0.158212 16.000000 -0.125705 94.000000 0.352677 95.000000 0.348006
46216.000000 2.036174 286.000000 283.000000 93.000000 0.300937 174.000000 -0.006507 225.000000 -0.037774 262.000000 -0.172131 16.000000 -0.141649 90.000000 0.315608 93.000000 0.300937
47091.000000 2.148470 306.000000 300.000000 169.000000 0.021756 241.000000 0.005123 253.000000 -0.056711 282.000000 -0.176865 15.000000 -0.079963 104.000000 0.342448 169.000000 0.021756
48826.000000 1.962929 284.000000 288.000000 174.000000 0.006423 228.000000 0.014388 262.000000 -0.186396 269.000000 -0.161429 15.000000 -0.109108 97.000000 0.297226 98.000000 0.292555
49114.000000 2.039589 288.000000 308.000000 168.000000 0.007475 246.000000 0.012147 258.000000 -0.040018 286.000000 -0.175222 18.000000 -0.122556 102.000000 0.346725 141.000000 -0.035050
49422.000000 2.094244 308.000000 306.000000 179.000000 -0.001396 244.000000 0.002004 246.000000 0.000891 287.000000 -0.165694 14.000000 -0.046445 101.000000 0.329582 104.000000 0.319958
49728.000000 2.094243 306.000000 297.000000 99.000000 0.327477 179.000000 -0.011898 234.000000 -0.036692 280.000000 -0.150470 14.000000 -0.080569 101.000000 0.343575 167.000000 0.014872
50325.000000 2.073713 300.000000 293.000000 168.000000 -0.010927 236.000000 -0.012166 258.000000 -0.162354 276.000000 -0.168891 15.000000 -0.087430 98.000000 0.338984 168.000000 -0.010927
50618.000000 2.119449 293.000000 289.000000 96.000000 0.339830 176.000000 -0.013134 228.000000 -0.046302 273.000000 -0.195192 16.000000 -0.122118 98.000000 0.355896 166.000000 0.005157
50907.000000 2.169573 289.000000 303.000000 209.000000 -0.114172 241.000000 -0.003983 270.000000 -0.164501 283.000000 -0.148875 15.000000 -0.105646 92.000000 0.342509 136.000000 -0.030784
51210.000000 2.028933 303.000000 310.000000 166.000000 0.017100 245.000000 0.007931 259.000000 -0.048465 291.000000 -0.167011 16.000000 -0.111302 96.000000 0.323718 128.000000 -0.030110
52148.000000 2.040598 307.000000 300.000000 167.000000 -0.016627 242.000000 0.004970 266.000000 -0.138604 282.000000 -0.151205 19.000000 -0.120154 93.000000 0.316066 95.000000 0.295972
52750.000000 2.111775 302.000000 295.000000 166.000000 -0.009965 240.000000 0.003086 252.000000 -0.066819 275.000000 -0.158164 14.000000 -0.092755 90.000000 0.318841 92.000000 0.308967
53045.000000 2.104422 295.000000 291.000000 165.000000 0.006900 233.000000 -0.006032 257.000000 -0.146913 274.000000 -0.166426 14.000000 -0.101456 90.000000 0.322618 127.000000 -0.040578
53336.000000 1.981660 291.000000 305.000000 174.000000 -0.006266 242.000000 -0.009136 277.000000 -0.178558 288.000000 -0.162036 14.000000 -0.099500 99.000000 0.318058 134.000000 0.001335
53641.000000 1.947385 305.000000 312.000000 173.000000 0.004199 250.000000 0.006916 263.000000 -0.041814 295.000000 -0.183461 17.000000 -0.133981 100.000000 0.293226 103.000000 0.283023
54256.000000 2.119627 303.000000 295.000000 100.000000 0.327931 180.000000 0.010109 206.000000 -0.084923 279.000000 -0.167886 14.000000 -0.068930 102.000000 0.348856 169.000000 0.021284
55126.000000 2.103220 285.000000 285.000000 98.000000 0.334499 174.000000 0.008824 222.000000 -0.044891 266.000000 -0.178429 13.000000 -0.076688 96.000000 0.348402 98.000000 0.334499
55706.000000 2.015035 295.000000 300.000000 170.000000 -0.007555 238.000000 -0.012036 241.000000 -0.019402 292.000000 0.133528 15.000000 -0.072287 104.000000 0.319906 170.000000 -0.007555
56590.000000 2.005647 285.000000 274.000000 96.000000 0.359766 167.000000 0.013731 222.000000 -0.015892 257.000000 -0.184482 15.000000 -0.107377 96.000000 0.359766 166.000000 0.008935
56864.000000 2.048402 274.000000 284.000000 144.000000 -0.059954 171.000000 0.005942 222.000000 -0.037367 267.000000 -0.172572 14.000000 -0.087211 92.000000 0.342932 93.000000 0.338716
57737.000000 2.116800 297.000000 317.000000 223.000000 -0.100423 250.000000 0.003747 255.000000 0.001662 298.000000 -0.147715 19.000000 -0.148355 96.000000 0.345454 100.000000 0.339262
59660.000000 2.071114 316.000000 318.000000 224.000000 -0.101710 259.000000 -0.002322 269.000000 -0.032228 298.000000 -0.154232 16.000000 -0.127632 93.000000 0.367069 95.000000 0.362493
60942.000000 2.141723 318.000000 304.000000 166.000000 -0.023462 245.000000 -0.017399 255.000000 -0.047900 287.000000 -0.149668 17.000000 -0.107149 95.000000 0.369920 97.000000 0.345093
63710.000000 2.133541 296.000000 314.000000 163.000000 -0.009973 248.000000 0.004076 283.000000 -0.180875 295.000000 -0.171157 16.000000 -0.116320 93.000000 0.375107 148.000000 -0.025331
65639.000000 2.220609 311.000000 301.000000 209.000000 -0.101833 245.000000 -0.011407 270.000000 -0.149622 285.000000 -0.179890 17.000000 -0.133703 90.000000 0.413212 133.000000 -0.047381
66573.000000 2.164452 333.000000 323.000000 234.000000 -0.122021 261.000000 -0.003826 264.000000 -0.008136 305.000000 -0.178936 15.000000 -0.120422 98.000000 0.396819 100.000000 0.386772
66896.000000 2.243574 323.000000 315.000000 224.000000 -0.124050 254.000000 0.003085 264.000000 -0.051648 300.000000 -0.214595 17.000000 -0.143634 92.000000 0.397058 133.000000 -0.064734
67524.000000 2.099157 313.000000 307.000000 169.000000 -0.020826 244.000000 -0.017462 256.000000 -0.055503 290.000000 -0.183275 11.000000 -0.091957 100.000000 0.397292 141.000000 -0.054794
67831.000000 2.208356 307.000000 306.000000 172.000000 -0.013608 243.000000 -0.007992 245.000000 -0.018807 284.000000 -0.179357 16.000000 -0.128778 95.000000 0.409684 98.000000 0.409591
68442.000000 2.115330 305.000000 331.000000 165.000000 0.046347 263.000000 0.023418 300.000000 -0.197240 312.000000 -0.175922 19.000000 -0.165019 101.000000 0.359573 165.000000 0.046347
69740.000000 2.192982 312.000000 312.000000 220.000000 -0.114624 249.000000 0.009201 260.000000 -0.025925 296.000000 -0.161661 15.000000 -0.144574 92.000000 0.389433 144.000000 -0.029407
70052.000000 2.178355 312.000000 312.000000 208.000000 -0.088699 249.000000 -0.004705 279.000000 -0.178011 295.000000 -0.183890 16.000000 -0.115798 98.000000 0.392603 146.000000 -0.034637
71981.000000 2.209580 310.000000 306.000000 213.000000 -0.117177 246.000000 -0.005003 257.000000 -0.039893 286.000000 -0.168700 14.000000 -0.109776 89.000000 0.430565 143.000000 -0.036800
72287.000000 2.226129 306.000000 312.000000 183.000000 -0.035611 253.000000 -0.003858 265.000000 -0.065065 295.000000 -0.168576 14.000000 -0.088634 95.000000 0.424174 147.000000 -0.059577
73559.000000 2.070075 330.000000 309.000000 175.000000 -0.009765 251.000000 -0.000454 263.000000 -0.047476 291.000000 -0.171835 17.000000 -0.120943 97.000000 0.363276 175.000000 -0.009765
74166.000000 2.171973 298.000000 294.000000 168.000000 -0.047095 232.000000 -0.026077 263.000000 -0.160201 275.000000 -0.144229 15.000000 -0.125174 95.000000 0.382849 168.000000 -0.047095
74460.000000 2.042384 294.000000 307.000000 216.000000 -0.105655 244.000000 -0.002536 278.000000 -0.168289 290.000000 -0.167833 15.000000 -0.111831 99.000000 0.364059 140.000000 -0.064655
75703.000000 1.938651 324.000000 309.000000 178.000000 -0.002259 243.000000 -0.000971 256.000000 -0.044309 297.000000 -0.332711 15.000000 -0.086915 102.000000 0.321344 168.000000 -0.023528
76594.000000 2.026254 294.000000 297.000000 211.000000 -0.083634 238.000000 -0.004762 248.000000 -0.037270 281.000000 -0.157645 12.000000 -0.045596 89.000000 0.347918 91.000000 0.342854
76891.000000 1.937902 297.000000 302.000000 170.000000 -0.010654 242.000000 0.006052 274.000000 -0.165093 282.000000 -0.162868 15.000000 -0.116753 98.000000 0.354029 109.000000 0.158480
77193.000000 2.178154 302.000000 308.000000 179.000000 -0.037661 247.000000 -0.003667 258.000000 -0.031834 286.000000 -0.196158 14.000000 -0.097050 96.000000 0.377150 143.000000 -0.078211
77501.000000 2.121868 308.000000 312.000000 177.000000 -0.022130 247.000000 0.004315 282.000000 -0.177173 297.000000 -0.178411 19.000000 -0.139620 95.000000 0.372947 100.000000 0.348401
77813.000000 2.010239 312.000000 313.000000 191.000000 -0.019950 252.000000 0.008563 272.000000 -0.140763 295.000000 -0.159680 13.000000 -0.061047 100.000000 0.332930 101.000000 0.327945
79289.000000 2.102780 303.000000 306.000000 182.000000 -0.018508 244.000000 0.009077 257.000000 -0.062208 285.000000 -0.158382 17.000000 -0.132722 106.000000 0.345705 170.000000 -0.021846
79896.000000 1.994716 301.000000 310.000000 175.000000 -0.024107 243.000000 0.013009 274.000000 -0.150064 291.000000 -0.148577 14.000000 -0.074296 99.000000 0.300263 101.000000 0.300012
80206.000000 2.019731 310.000000 300.000000 205.000000 -0.068559 240.000000 0.001726 252.000000 -0.036675 282.000000 -0.150185 16.000000 -0.112446 103.000000 0.342789 170.000000 -0.003496
80506.000000 2.098107 300.000000 288.000000 94.000000 0.336257 174.000000 0.000094 236.000000 -0.068122 271.000000 -0.186243 15.000000 -0.119919 95.000000 0.352103 169.000000 -0.003307
81086.000000 2.044985 292.000000 289.000000 95.000000 0.312009 175.000000 -0.003825 225.000000 -0.029170 267.000000 -0.155940 15.000000 -0.121973 96.000000 0.337072 166.000000 -0.000234
81995.000000 1.973011 306.000000 297.000000 198.000000 -0.080124 238.000000 0.008247 247.000000 -0.056314 278.000000 -0.181204 4.000000 1.020190 95.000000 0.331820 98.000000 0.319549
82292.000000 2.048309 297.000000 314.000000 178.000000 -0.046737 247.000000 -0.004573 261.000000 -0.043961 297.000000 -0.170781 15.000000 -0.119354 98.000000 0.329280 178.000000 -0.046737
83188.000000 2.196853 284.000000 296.000000 167.000000 -0.006378 233.000000 -0.002385 236.000000 -0.038482 279.000000 -0.186502 14.000000 -0.120074 89.000000 0.380239 129.000000 -0.072224
83484.000000 2.075913 296.000000 304.000000 177.000000 -0.004371 238.000000 0.001351 244.000000 -0.006094 284.000000 -0.163507 15.000000 -0.125371 93.000000 0.344828 138.000000 -0.050331
83788.000000 2.034439 304.000000 315.000000 216.000000 -0.089874 250.000000 0.001163 255.000000 -0.009243 298.000000 -0.167125 16.000000 -0.117757 102.000000 0.344764 175.000000 -0.009659
84103.000000 2.147200 315.000000 302.000000 97.000000 0.326239 184.000000 -0.006548 240.000000 -0.028710 285.000000 -0.151109 16.000000 -0.117519 98.000000 0.336506 170.000000 -0.005641
84699.000000 2.070485 294.000000 294.000000 96.000000 0.332652 179.000000 -0.012181 194.000000 -0.053920 277.000000 -0.158291 16.000000 -0.123291 98.000000 0.333655 167.000000 -0.004608
86440.000000 2.149969 302.000000 295.000000 98.000000 0.316740 179.000000 -0.010691 200.000000 -0.084265 280.000000 -0.181723 14.000000 -0.080189 97.000000 0.331286 98.000000 0.316740
87311.000000 2.014389 286.000000 281.000000 148.000000 -0.027258 172.000000 0.019951 224.000000 -0.018023 263.000000 -0.163010 13.000000 -0.068824 94.000000 0.307480 148.000000 -0.027258
88166.000000 2.029858 293.000000 304.000000 171.000000 -0.009689 242.000000 -0.000426 273.000000 -0.168890 287.000000 -0.165302 15.000000 -0.113119 103.000000 0.312854 171.000000 -0.009689
88470.000000 2.043116 304.000000 300.000000 104.000000 0.327889 183.000000 0.013933 238.000000 -0.002732 283.000000 -0.175677 14.000000 -0.058653 106.000000 0.328234 180.000000 -0.006444
89056.000000 2.147668 286.000000 284.000000 165.000000 -0.008198 227.000000 -0.000943 237.000000 -0.079219 264.000000 -0.164342 13.000000 -0.043946 94.000000 0.345095 165.000000 -0.008198
89340.000000 2.012105 284.000000 289.000000 98.000000 0.294813 177.000000 0.007953 232.000000 -0.013039 274.000000 -0.158929 18.000000 -0.140512 99.000000 0.310268 166.000000 0.007168
89629.000000 1.935490 289.000000 279.000000 92.000000 0.301288 169.000000 0.014483 221.000000 -0.022714 263.000000 -0.172495 12.000000 -0.041266 92.000000 0.301288 166.000000 0.005314
90496.000000 2.025083 301.000000 306.000000 173.000000 0.009093 244.000000 0.017067 256.000000 -0.031820 284.000000 -0.180298 16.000000 -0.117661 101.000000 0.299357 142.000000 -0.039091
90802.000000 2.111649 306.000000 302.000000 197.000000 -0.041739 245.000000 0.002082 271.000000 -0.174531 283.000000 -0.186678 20.000000 -0.152833 106.000000 0.334265 178.000000 -0.006660
91388.000000 2.107715 284.000000 287.000000 178.000000 -0.035918 223.000000 0.010223 256.000000 -0.180560 268.000000 -0.164307 14.000000 -0.119370 93.000000 0.305721 147.000000 -0.065376
91966.000000 2.113402 291.000000 287.000000 96.000000 0.313248 173.000000 0.031196 230.000000 -0.027760 268.000000 -0.158463 13.000000 -0.071660 100.000000 0.319126 167.000000 0.021964
93153.000000 2.077631 301.000000 287.000000 101.000000 0.319888 173.000000 0.010845 228.000000 0.000989 268.000000 -0.170568 15.000000 -0.115064 102.000000 0.320358 166.000000 0.006724
93440.000000 2.112788 287.000000 280.000000 97.000000 0.325741 168.000000 0.014230 218.000000 -0.033201 259.000000 -0.161895 15.000000 -0.120737 96.000000 0.330318 98.000000 0.326195
94288.000000 2.158606 283.000000 288.000000 171.000000 -0.002572 232.000000 0.025865 256.000000 -0.166158 272.000000 -0.169794 17.000000 -0.124732 100.000000 0.348088 171.000000 -0.002572
94875.000000 1.979027 299.000000 290.000000 143.000000 -0.079217 174.000000 -0.000691 229.000000 -0.022302 273.000000 -0.175076 14.000000 -0.070706 101.000000 0.312945 125.000000 0.009496
95165.000000 1.929236 290.000000 291.000000 165.000000 0.005127 184.000000 -0.006770 230.000000 -0.020643 272.000000 -0.187555 18.000000 -0.146531 105.000000 0.300786 165.000000 0.005127
95978.000000 2.069276 255.000000 260.000000 147.000000 -0.067716 168.000000 0.005043 198.000000 -0.012743 242.000000 -0.189546 13.000000 -0.090913 91.000000 0.309619 92.000000 0.290184
96510.000000 2.160425 272.000000 281.000000 176.000000 -0.020065 224.000000 0.010234 243.000000 -0.135690 263.000000 -0.160155 18.000000 -0.175281 93.000000 0.349686 94.000000 0.339701
97376.000000 2.002418 297.000000 298.000000 95.000000 0.312824 180.000000 -0.004046 240.000000 -0.005957 281.000000 -0.153479 16.000000 -0.136345 96.000000 0.322777 180.000000 -0.004046
97970.000000 2.175673 296.000000 286.000000 169.000000 -0.013245 234.000000 -0.000203 245.000000 -0.066301 269.000000 -0.150061 15.000000 -0.146899 91.000000 0.383512 169.000000 -0.013245
98256.000000 2.165989 286.000000 301.000000 204.000000 -0.105771 242.000000 0.020359 254.000000 -0.030001 283.000000 -0.137335 16.000000 -0.125170 92.000000 0.368154 167.000000 -0.042495
99189.000000 2.094638 306.000000 306.000000 171.000000 -0.019920 246.000000 0.003165 248.000000 0.002993 285.000000 -0.169517 14.000000 -0.135612 97.000000 0.346992 171.000000 -0.019920
99495.000000 2.016704 306.000000 310.000000 182.000000 -0.021692 253.000000 0.032242 283.000000 -0.125111 291.000000 -0.148449 17.000000 -0.119233 102.000000 0.327776 170.000000 -0.029168
99805.000000 1.906707 310.000000 304.000000 169.000000 0.016502 247.000000 0.013355 259.000000 -0.033041 285.000000 -0.159622 16.000000 -0.138856 98.000000 0.300594 138.000000 -0.059375
100402.000000 2.126489 293.000000 288.000000 165.000000 -0.005174 232.000000 0.019403 251.000000 -0.117432 272.000000 -0.170065 15.000000 -0.126083 94.000000 0.339733 165.000000 -0.005174
100690.000000 2.054103 288.000000 314.000000 168.000000 0.003292 252.000000 0.024844 263.000000 -0.014340 304.000000 -0.116021 13.000000 -0.093340 95.000000 0.321067 143.000000 -0.057696
102580.000000 1.901002 307.000000 305.000000 226.000000 -0.094092 249.000000 -0.000203 272.000000 -0.156975 288.000000 -0.163604 12.000000 -0.062509 94.000000 0.306678 168.000000 -0.006129
103847.000000 2.017613 319.000000 319.000000 232.000000 -0.089452 260.000000 0.016568 280.000000 -0.113903 301.000000 -0.161458 15.000000 -0.095551 100.000000 0.333828 101.000000 0.328907
104475.000000 1.942826 309.000000 315.000000 168.000000 0.015282 257.000000 0.014753 267.000000 -0.033210 295.000000 -0.158646 14.000000 -0.114964 94.000000 0.301957 149.000000 0.010296
104790.000000 2.084612 315.000000 306.000000 213.000000 -0.106233 249.000000 0.005789 260.000000 -0.023836 290.000000 -0.160029 15.000000 -0.105107 93.000000 0.340231 142.000000 -0.032888
105096.000000 2.087836 306.000000 320.000000 216.000000 -0.113448 259.000000 0.022133 269.000000 -0.031879 301.000000 -0.147616 14.000000 -0.102807 91.000000 0.349137 93.000000 0.323948
105758.000000 2.122852 342.000000 325.000000 244.000000 -0.105458 263.000000 0.010923 266.000000 0.000438 307.000000 -0.148530 13.000000 -0.036726 96.000000 0.353233 98.000000 0.333514
106083.000000 1.999887 325.000000 316.000000 172.000000 0.002116 252.000000 -0.003511 255.000000 -0.018777 297.000000 -0.149843 15.000000 -0.127085 95.000000 0.303657 149.000000 -0.011802
107653.000000 2.054750 317.000000 341.000000 252.000000 -0.103052 271.000000 0.026682 282.000000 -0.007190 328.000000 -0.337913 16.000000 -0.144640 102.000000 0.335527 172.000000 0.020608
108320.000000 1.981927 326.000000 299.000000 166.000000 -0.000911 239.000000 0.002726 242.000000 -0.022808 278.000000 -0.160847 14.000000 -0.058513 90.000000 0.312102 92.000000 0.292055
108619.000000 2.126911 299.000000 303.000000 216.000000 -0.092744 248.000000 0.000264 258.000000 -0.029014 286.000000 -0.166646 15.000000 -0.113137 91.000000 0.326506 92.000000 0.321334
108922.000000 2.086126 303.000000 308.000000 220.000000 -0.099456 249.000000 0.001785 258.000000 -0.050628 290.000000 -0.161300 14.000000 -0.120019 93.000000 0.342239 129.000000 -0.056674
109538.000000 1.952322 308.000000 311.000000 224.000000 -0.130881 252.000000 -0.010691 264.000000 -0.039295 294.000000 -0.162773 15.000000 -0.137789 101.000000 0.310407 143.000000 -0.039170
110172.000000 2.043087 323.000000 318.000000 171.000000 0.016896 259.000000 0.015176 287.000000 -0.178460 299.000000 -0.174242 16.000000 -0.111176 102.000000 0.353123 103.000000 0.353092
110792.000000 1.933780 302.000000 298.000000 210.000000 -0.091193 239.000000 0.003365 250.000000 -0.045649 278.000000 -0.170834 14.000000 -0.106878 95.000000 0.327117 132.000000 -0.038697
111389.000000 2.162004 299.000000 317.000000 174.000000 -0.032193 256.000000 0.024356 271.000000 -0.070237 298.000000 -0.158044 16.000000 -0.141274 92.000000 0.356360 94.000000 0.350984
112340.000000 1.952211 318.000000 319.000000 178.000000 -0.009687 258.000000 0.001738 285.000000 -0.162022 301.000000 -0.162853 14.000000 -0.094498 101.000000 0.322681 143.000000 -0.048007
112659.000000 2.119919 319.000000 303.000000 169.000000 -0.017962 250.000000 -0.000906 271.000000 -0.173427 284.000000 -0.159838 19.000000 -0.145710 95.000000 0.368573 139.000000 -0.041188
113258.000000 2.082138 296.000000 301.000000 213.000000 -0.111124 236.000000 -0.010327 238.000000 -0.026816 285.000000 -0.166908 14.000000 -0.127972 95.000000 0.318402 132.000000 -0.036410
113877.000000 2.119671 318.000000 327.000000 228.000000 -0.107921 256.000000 0.019150 259.000000 -0.010238 308.000000 -0.162884 17.000000 -0.121382 100.000000 0.356160 102.000000 0.350643
114859.000000 2.124007 332.000000 317.000000 169.000000 -0.011146 253.000000 0.010285 255.000000 -0.009370 299.000000 -0.152211 14.000000 -0.070539 97.000000 0.344918 140.000000 -0.051225
115477.000000 2.019103 301.000000 306.000000 221.000000 -0.105412 245.000000 0.000689 269.000000 -0.130705 289.000000 -0.138841 15.000000 -0.126211 96.000000 0.305344 141.000000 -0.032351
116095.000000 2.120440 312.000000 323.000000 235.000000 -0.094808 264.000000 0.022650 286.000000 -0.163900 305.000000 -0.158603 16.000000 -0.133339 103.000000 0.340656 139.000000 -0.092004
116735.000000 1.963291 317.000000 317.000000 224.000000 -0.099264 255.000000 0.023617 262.000000 -0.051633 299.000000 -0.160206 15.000000 -0.120706 97.000000 0.285986 138.000000 -0.058463
117052.000000 2.022055 317.000000 307.000000 225.000000 -0.100063 250.000000 0.004542 256.000000 -0.054878 288.000000 -0.167073 16.000000 -0.106330 102.000000 0.320302 151.000000 -0.106203
117961.000000 1.990911 303.000000 312.000000 220.000000 -0.104995 246.000000 0.011854 274.000000 -0.176265 294.000000 -0.147113 15.000000 -0.125343 96.000000 0.302773 134.000000 -0.027163
118273.000000 2.016537 312.000000 324.000000 232.000000 -0.105627 260.000000 0.020627 286.000000 -0.155485 304.000000 -0.177209 15.000000 -0.109906 98.000000 0.325363 135.000000 -0.076111
118597.000000 2.120968 324.000000 319.000000 233.000000 -0.096617 251.000000 0.030957 276.000000 -0.107224 299.000000 -0.143387 14.000000 -0.100630 97.000000 0.353589 130.000000 -0.065771
119838.000000 2.126928 297.000000 297.000000 217.000000 -0.102967 234.000000 -0.006335 249.000000 -0.041005 275.000000 -0.163952 12.000000 -0.063401 91.000000 0.328261 142.000000 -0.061442
121379.000000 2.035438 302.000000 300.000000 218.000000 -0.092320 242.000000 0.012288 272.000000 -0.152243 284.000000 -0.141176 13.000000 -0.070407 100.000000 0.291649 127.000000 -0.040846
121679.000000 1.941036 300.000000 293.000000 139.000000 -0.082537 178.000000 0.013560 213.000000 -0.086975 277.000000 -0.180734 16.000000 -0.151268 100.000000 0.309046 139.000000 -0.082537
122874.000000 1.953876 310.000000 314.000000 223.000000 -0.088197 250.000000 0.011205 258.000000 -0.054909 295.000000 -0.152197 15.000000 -0.092111 103.000000 0.287085 126.000000 -0.032101
123188.000000 2.083495 314.000000 303.000000 221.000000 -0.084436 239.000000 -0.001993 251.000000 -0.059596 284.000000 -0.163123 14.000000 -0.060345 101.000000 0.301508 130.000000 -0.051942
123491.000000 2.078918 303.000000 285.000000 131.000000 -0.106850 171.000000 0.013621 207.000000 -0.085268 269.000000 -0.165379 17.000000 -0.146411 93.000000 0.333606 131.000000 -0.106850
123776.000000 2.034702 285.000000 298.000000 217.000000 -0.104516 233.000000 -0.008839 268.000000 -0.163998 281.000000 -0.141694 15.000000 -0.131581 95.000000 0.310584 124.000000 -0.035001
124362.000000 2.079983 288.000000 285.000000 201.000000 -0.084091 225.000000 0.018136 246.000000 -0.148494 266.000000 -0.157539 15.000000 -0.124470 92.000000 0.336457 132.000000 -0.093168
124949.000000 2.106955 302.000000 307.000000 224.000000 -0.094405 248.000000 0.006878 278.000000 -0.144767 289.000000 -0.131615 16.000000 -0.144111 99.000000 0.316800 150.000000 -0.070969
125256.000000 1.833200 307.000000 306.000000 222.000000 -0.094700 242.000000 -0.001238 254.000000 -0.057869 287.000000 -0.179543 16.000000 -0.125422 99.000000 0.307745 151.000000 -0.053727
125854.000000 2.075780 292.000000 289.000000 207.000000 -0.094040 230.000000 -0.005403 248.000000 -0.122457 271.000000 -0.177693 17.000000 -0.130976 93.000000 0.318101 136.000000 -0.060781
126751.000000 2.073829 305.000000 312.000000 224.000000 -0.111972 248.000000 -0.003117 256.000000 -0.084434 291.000000 -0.159215 17.000000 -0.141609 92.000000 0.327584 129.000000 -0.053450
128029.000000 2.027696 315.000000 299.000000 218.000000 -0.101412 236.000000 -0.005958 251.000000 -0.044422 280.000000 -0.158013 13.000000 -0.076945 98.000000 0.293652 142.000000 -0.080472
128638.000000 2.053446 310.000000 313.000000 218.000000 -0.102052 244.000000 0.006460 257.000000 -0.054590 290.000000 -0.167931 16.000000 -0.124189 99.000000 0.312052 134.000000 -0.071080
129267.000000 2.078196 316.000000 319.000000 233.000000 -0.108021 258.000000 0.016101 266.000000 -0.079870 302.000000 -0.181942 17.000000 -0.133245 95.000000 0.327542 134.000000 -0.080047
129586.000000 1.998431 319.000000 316.000000 229.000000 -0.121879 255.000000 0.019329 263.000000 -0.035357 295.000000 -0.155530 16.000000 -0.114751 95.000000 0.320421 134.000000 -0.028107
130209.000000 2.064375 307.000000 291.000000 136.000000 -0.061490 180.000000 0.000584 217.000000 -0.104636 272.000000 -0.161154 13.000000 -0.115014 95.000000 0.311551 136.000000 -0.061490
130500.000000 2.037105 291.000000 293.000000 211.000000 -0.103292 229.000000 -0.006691 261.000000 -0.155860 274.000000 -0.164027 17.000000 -0.132831 91.000000 0.342774 120.000000 -0.020598
130793.000000 2.005251 293.000000 311.000000 229.000000 -0.117869 249.000000 0.007491 259.000000 -0.066773 295.000000 -0.177099 16.000000 -0.110707 99.000000 0.299293 132.000000 -0.060234
131104.000000 1.969078 311.000000 306.000000 152.000000 -0.079968 185.000000 -0.006267 222.000000 -0.117052 290.000000 -0.176203 15.000000 -0.114779 100.000000 0.305955 134.000000 -0.056629
131410.000000 2.161257 306.000000 305.000000 214.000000 -0.093307 244.000000 0.023714 252.000000 -0.063262 288.000000 -0.179483 16.000000 -0.140421 94.000000 0.323401 129.000000 -0.067805
132027.000000 2.057323 312.000000 311.000000 228.000000 -0.103526 251.000000 0.014591 287.000000 -0.154139 292.000000 -0.149294 15.000000 -0.129448 102.000000 0.318651 152.000000 -0.051018
132338.000000 2.033262 311.000000 293.000000 139.000000 -0.069843 178.000000 0.000564 215.000000 -0.110940 272.000000 -0.168147 13.000000 -0.053133 97.000000 0.302539 141.000000 -0.104169
132919.000000 2.150051 288.000000 299.000000 213.000000 -0.102883 235.000000 -0.005143 263.000000 -0.175174 280.000000 -0.174952 15.000000 -0.131407 97.000000 0.332192 127.000000 -0.036551
133517.000000 1.949591 299.000000 291.000000 142.000000 -0.068964 177.000000 0.027680 215.000000 -0.100185 269.000000 -0.184825 16.000000 -0.099311 101.000000 0.301188 142.000000 -0.068964
133808.000000 2.057419 291.000000 283.000000 134.000000 -0.090293 174.000000 0.015048 182.000000 -0.003839 265.000000 -0.167397 17.000000 -0.161657 103.000000 0.321650 134.000000 -0.090293
134651.000000 1.967630 282.000000 281.000000 130.000000 -0.095658 171.000000 0.017900 202.000000 -0.074453 261.000000 -0.148781 16.000000 -0.128982 93.000000 0.295238 130.000000 -0.095658
134932.000000 2.073960 281.000000 297.000000 217.000000 -0.107320 238.000000 0.000582 277.000000 -0.166584 279.000000 -0.151474 15.000000 -0.121589 96.000000 0.343539 143.000000 -0.101004
135899.000000 1.943076 342.000000 333.000000 241.000000 -0.103883 269.000000 0.033217 278.000000 -0.043335 315.000000 -0.134918 19.000000 -0.120106 101.000000 0.334261 138.000000 -0.072402
137894.000000 2.181188 351.000000 340.000000 229.000000 -0.116819 277.000000 0.038948 309.000000 -0.159454 325.000000 -0.164955 13.000000 -0.068719 103.000000 0.391487 145.000000 -0.074197
139191.000000 2.025892 316.000000 316.000000 234.000000 -0.093588 259.000000 0.003761 266.000000 -0.069609 300.000000 -0.135987 14.000000 -0.104028 102.000000 0.346745 133.000000 -0.051786
141115.000000 2.105720 308.000000 311.000000 228.000000 -0.120529 255.000000 0.007246 281.000000 -0.186625 293.000000 -0.166156 15.000000 -0.134611 92.000000 0.340939 128.000000 -0.038714
142376.000000 1.954668 326.000000 325.000000 241.000000 -0.098727 266.000000 0.019281 287.000000 -0.126737 307.000000 -0.142943 15.000000 -0.089596 105.000000 0.312616 143.000000 -0.058947
142701.000000 1.955285 325.000000 310.000000 152.000000 -0.065565 187.000000 -0.000721 230.000000 -0.119077 299.000000 -0.308808 13.000000 -0.057521 102.000000 0.312433 134.000000 -0.047617
143011.000000 1.893401 310.000000 302.000000 222.000000 -0.112180 241.000000 0.010405 251.000000 -0.064064 284.000000 -0.148074 14.000000 -0.087337 98.000000 0.300138 133.000000 -0.025691
143313.000000 2.013575 302.000000 301.000000 218.000000 -0.106209 241.000000 0.001565 253.000000 -0.021397 284.000000 -0.171148 16.000000 -0.128022 95.000000 0.321334 126.000000 -0.037913
143614.000000 2.067945 301.000000 307.000000 225.000000 -0.126882 244.000000 -0.001899 255.000000 -0.070127 287.000000 -0.144198 18.000000 -0.136708 96.000000 0.314455 129.000000 -0.053855
144529.000000 2.103055 308.000000 323.000000 235.000000 -0.111051 261.000000 0.021114 272.000000 -0.022476 305.000000 -0.189169 16.000000 -0.117306 103.000000 0.333622 140.000000 -0.052930
145452.000000 1.920316 294.000000 290.000000 136.000000 -0.074342 176.000000 0.010767 214.000000 -0.097414 272.000000 -0.161674 14.000000 -0.106377 95.000000 0.296566 136.000000 -0.074342
145742.000000 2.107654 290.000000 305.000000 215.000000 -0.114765 247.000000 0.015140 255.000000 -0.059938 286.000000 -0.177804 15.000000 -0.138349 97.000000 0.321614 128.000000 -0.049608
146994.000000 2.089537 321.000000 324.000000 236.000000 -0.118713 266.000000 0.010562 276.000000 -0.048356 302.000000 -0.161724 8.000000 -0.309085 105.000000 0.340548 145.000000 -0.065627
147619.000000 2.027728 301.000000 306.000000 220.000000 -0.121625 242.000000 0.001416 255.000000 -0.050810 286.000000 -0.147408 17.000000 -0.132507 97.000000 0.311315 127.000000 -0.017353
148232.000000 2.158641 307.000000 325.000000 238.000000 -0.128792 259.000000 0.029622 271.000000 -0.032714 310.000000 -0.177368 15.000000 -0.135731 97.000000 0.352195 130.000000 -0.078056
148557.000000 2.088937 325.000000 322.000000 236.000000 -0.119917 262.000000 0.006881 268.000000 -0.058511 303.000000 -0.166472 15.000000 -0.145937 97.000000 0.344517 133.000000 -0.048212
148879.000000 1.997194 322.000000 318.000000 230.000000 -0.097849 254.000000 0.027730 281.000000 -0.168383 300.000000 -0.162710 17.000000 -0.129624 98.000000 0.310561 137.000000 -0.056301
149525.000000 2.176271 328.000000 306.000000 228.000000 -0.136002 251.000000 -0.002133 258.000000 -0.081585 290.000000 -0.149545 18.000000 -0.137598 94.000000 0.350175 131.000000 -0.062052
149831.000000 1.998812 306.000000 299.000000 208.000000 -0.097647 236.000000 -0.004783 247.000000 -0.082729 282.000000 -0.162712 16.000000 -0.121720 94.000000 0.328199 122.000000 -0.038760
151399.000000 2.139719 312.000000 318.000000 234.000000 -0.114291 259.000000 0.022245 282.000000 -0.161955 300.000000 -0.160700 14.000000 -0.056159 103.000000 0.361033 135.000000 -0.051663
151717.000000 2.099375 318.000000 299.000000 216.000000 -0.101672 241.000000 -0.000639 272.000000 -0.143945 282.000000 -0.158679 14.000000 -0.054198 97.000000 0.347272 129.000000 -0.056771
152914.000000 2.125093 313.000000 330.000000 243.000000 -0.129575 269.000000 0.025016 294.000000 -0.168274 311.000000 -0.166079 20.000000 -0.165389 107.000000 0.359940 143.000000 -0.052102
153244.000000 2.056603 330.000000 319.000000 232.000000 -0.100940 253.000000 -0.006145 266.000000 -0.067492 302.000000 -0.161083 17.000000 -0.120891 100.000000 0.350517 138.000000 -0.056427
153563.000000 2.000044 319.000000 319.000000 232.000000 -0.096288 256.000000 0.027930 285.000000 -0.154719 303.000000 -0.170834 16.000000 -0.118308 96.000000 0.326442 137.000000 -0.039783
154492.000000 2.108107 301.000000 314.000000 225.000000 -0.109118 251.000000 0.026618 279.000000 -0.144087 295.000000 -0.140074 14.000000 -0.118101 95.000000 0.346691 130.000000 -0.047134
156989.000000 1.971272 297.000000 317.000000 231.000000 -0.094153 251.000000 0.012258 263.000000 -0.062725 300.000000 -0.161988 11.000000 -0.173948 101.000000 0.333416 134.000000 -0.071944
162023.000000 2.005724 330.000000 338.000000 241.000000 -0.114023 269.000000 0.016744 277.000000 -0.066595 320.000000 -0.160106 14.000000 -0.082706 106.000000 0.341396 137.000000 -0.053888
163906.000000 2.090521 307.000000 317.000000 236.000000 -0.107221 257.000000 0.010584 290.000000 -0.168147 301.000000 -0.153947 16.000000 -0.108867 101.000000 0.350173 149.000000 -0.067273
164223.000000 1.919486 317.000000 313.000000 223.000000 -0.070959 248.000000 0.006896 257.000000 -0.070739 292.000000 -0.156722 14.000000 -0.081893 102.000000 0.326474 155.000000 -0.083904
165118.000000 2.035678 289.000000 299.000000 213.000000 -0.118979 234.000000 -0.006738 247.000000 -0.040045 282.000000 -0.148335 15.000000 -0.147223 95.000000 0.349594 147.000000 -0.088119
165720.000000 2.042212 303.000000 309.000000 223.000000 -0.114831 249.000000 0.002725 275.000000 -0.163653 291.000000 -0.160565 16.000000 -0.131721 99.000000 0.352465 152.000000 -0.109201
166345.000000 2.092629 316.000000 317.000000 223.000000 -0.118279 250.000000 0.002115 261.000000 -0.037179 299.000000 -0.164548 15.000000 -0.101744 99.000000 0.353634 142.000000 -0.079123
169106.000000 1.871994 313.000000 304.000000 148.000000 -0.068449 183.000000 0.013245 206.000000 -0.057916 284.000000 -0.162246 15.000000 -0.124260 98.000000 0.311065 148.000000 -0.068449
170022.000000 1.917131 315.000000 327.000000 235.000000 -0.106115 263.000000 0.020846 272.000000 -0.050376 307.000000 -0.157916 15.000000 -0.111460 106.000000 0.297240 143.000000 -0.046332
170349.000000 2.016943 327.000000 317.000000 226.000000 -0.113400 254.000000 0.014657 261.000000 -0.054639 300.000000 -0.154716 15.000000 -0.087761 102.000000 0.305215 140.000000 -0.044983
171291.000000 1.913479 305.000000 301.000000 215.000000 -0.087667 241.000000 0.027538 248.000000 -0.046459 284.000000 -0.138906 15.000000 -0.131505 97.000000 0.270662 132.000000 -0.047195
171592.000000 2.064418 301.000000 296.000000 214.000000 -0.112822 234.000000 0.002962 245.000000 -0.057602 278.000000 -0.163170 14.000000 -0.105614 91.000000 0.319623 125.000000 -0.051239
174370.000000 2.119452 302.000000 327.000000 238.000000 -0.123701 262.000000 0.016176 270.000000 -0.044201 312.000000 -0.190502 15.000000 -0.148823 102.000000 0.325771 144.000000 -0.049639
174697.000000 2.035267 327.000000 317.000000 227.000000 -0.116287 249.000000 0.010598 262.000000 -0.061377 303.000000 -0.310377 14.000000 -0.094701 104.000000 0.337606 137.000000 -0.051222
175014.000000 2.229858 317.000000 307.000000 220.000000 -0.103215 245.000000 -0.002178 253.000000 -0.086975 290.000000 -0.178874 15.000000 -0.113776 100.000000 0.378747 132.000000 -0.060895
175321.000000 2.229856 307.000000 300.000000 216.000000 -0.131866 236.000000 -0.002995 253.000000 -0.077383 282.000000 -0.189984 15.000000 -0.109596 94.000000 0.351566 129.000000 -0.043872
175914.000000 2.141493 293.000000 298.000000 207.000000 -0.093874 238.000000 -0.012462 247.000000 -0.091600 282.000000 -0.182462 13.000000 -0.094415 94.000000 0.373184 147.000000 -0.060330
176212.000000 2.287008 298.000000 296.000000 215.000000 -0.106555 238.000000 -0.020645 271.000000 -0.177417 279.000000 -0.176462 15.000000 -0.147537 94.000000 0.366070 146.000000 -0.069939
176508.000000 2.166394 296.000000 311.000000 222.000000 -0.115551 245.000000 0.022568 274.000000 -0.166521 289.000000 -0.188856 14.000000 -0.134466 97.000000 0.337465 133.000000 -0.054529
177443.000000 2.264502 307.000000 296.000000 143.000000 -0.059951 178.000000 -0.002742 214.000000 -0.125032 276.000000 -0.176018 15.000000 -0.140687 95.000000 0.381270 143.000000 -0.059951
179213.000000 2.091067 309.000000 312.000000 229.000000 -0.124657 252.000000 -0.001694 273.000000 -0.159153 294.000000 -0.181253 19.000000 -0.151909 102.000000 0.332041 139.000000 -0.038527
179525.000000 2.108200 312.000000 296.000000 147.000000 -0.106927 180.000000 -0.001270 218.000000 -0.133951 278.000000 -0.179314 20.000000 -0.163476 101.000000 0.386681 147.000000 -0.106927
180425.000000 2.090018 303.000000 314.000000 226.000000 -0.104872 250.000000 0.021929 257.000000 -0.053682 296.000000 -0.175938 15.000000 -0.131612 95.000000 0.340187 134.000000 -0.069861
181379.000000 2.032371 320.000000 335.000000 236.000000 -0.131491 270.000000 0.011145 279.000000 -0.053589 318.000000 -0.149546 16.000000 -0.134857 101.000000 0.352489 148.000000 -0.064894
182028.000000 2.134339 314.000000 298.000000 221.000000 -0.119888 239.000000 -0.019732 252.000000 -0.067709 279.000000 -0.173008 13.000000 -0.090081 89.000000 0.384339 125.000000 -0.047697
182633.000000 1.977644 307.000000 316.000000 229.000000 -0.108027 250.000000 0.018072 262.000000 -0.029388 300.000000 -0.174422 14.000000 -0.094720 101.000000 0.323966 141.000000 -0.052620
183263.000000 2.162038 314.000000 317.000000 230.000000 -0.134494 256.000000 0.011902 265.000000 -0.031701 297.000000 -0.159273 14.000000 -0.096207 103.000000 0.351031 142.000000 -0.063828
185111.000000 2.082525 305.000000 324.000000 237.000000 -0.114449 262.000000 0.027244 292.000000 -0.173838 304.000000 -0.168554 14.000000 -0.101801 101.000000 0.332175 139.000000 -0.052870
185750.000000 2.036460 315.000000 313.000000 225.000000 -0.090183 249.000000 0.027527 260.000000 -0.038414 292.000000 -0.165217 15.000000 -0.123634 98.000000 0.321206 139.000000 -0.055328
186668.000000 2.120161 295.000000 306.000000 222.000000 -0.135669 242.000000 -0.007708 256.000000 -0.046941 288.000000 -0.165829 17.000000 -0.145827 93.000000 0.345422 128.000000 -0.036802
187606.000000 2.128639 324.000000 322.000000 235.000000 -0.111766 258.000000 0.026037 270.000000 -0.026753 301.000000 -0.153930 18.000000 -0.104840 104.000000 0.358791 138.000000 -0.059655
189142.000000 2.002129 291.000000 308.000000 228.000000 -0.105299 249.000000 -0.001662 257.000000 -0.063214 289.000000 -0.166675 14.000000 -0.110314 97.000000 0.309064 129.000000 -0.034356
190718.000000 2.040486 314.000000 308.000000 223.000000 -0.123950 248.000000 -0.000877 274.000000 -0.169875 286.000000 -0.162948 17.000000 -0.125296 99.000000 0.338012 132.000000 -0.066896
191975.000000 2.060863 324.000000 341.000000 226.000000 -0.120833 276.000000 0.033087 303.000000 -0.157697 322.000000 -0.158777 15.000000 -0.111128 103.000000 0.363517 141.000000 -0.064024
192316.000000 2.055423 341.000000 318.000000 232.000000 -0.123809 259.000000 0.001499 265.000000 -0.055508 299.000000 -0.158422 17.000000 -0.127022 97.000000 0.348353 133.000000 -0.044575
192634.000000 1.990672 318.000000 309.000000 213.000000 -0.104264 243.000000 -0.006708 258.000000 -0.041192 291.000000 -0.174139 15.000000 -0.120785 92.000000 0.332950 132.000000 -0.050360
194885.000000 1.978826 323.000000 306.000000 218.000000 -0.103543 239.000000 0.014890 250.000000 -0.068857 290.000000 -0.165063 14.000000 -0.098102 90.000000 0.316726 113.000000 -0.012239
196483.000000 2.166282 330.000000 334.000000 238.000000 -0.115424 270.000000 0.021928 278.000000 -0.050486 315.000000 -0.159532 16.000000 -0.118137 106.000000 0.400584 143.000000 -0.067116
197437.000000 1.968767 302.000000 313.000000 226.000000 -0.111049 250.000000 0.017445 263.000000 -0.034812 293.000000 -0.153431 14.000000 -0.123224 95.000000 0.356958 133.000000 -0.062147
199619.000000 2.046274 296.000000 304.000000 219.000000 -0.110470 241.000000 0.006095 250.000000 -0.074987 286.000000 -0.176162 14.000000 -0.100575 96.000000 0.331286 133.000000 -0.029653
200871.000000 2.107647 321.000000 316.000000 220.000000 -0.103837 250.000000 0.010893 262.000000 -0.024310 295.000000 -0.166002 17.000000 -0.125972 99.000000 0.341554 128.000000 -0.067758
201187.000000 2.055566 316.000000 315.000000 228.000000 -0.092523 250.000000 0.009546 261.000000 -0.059577 297.000000 -0.152836 15.000000 -0.106833 100.000000 0.308794 136.000000 -0.046582
201502.000000 2.084605 315.000000 298.000000 217.000000 -0.096740 235.000000 0.003903 253.000000 -0.063478 282.000000 -0.155748 17.000000 -0.130410 91.000000 0.344731 122.000000 -0.023872
201800.000000 2.110303 298.000000 301.000000 215.000000 -0.104636 233.000000 -0.003696 244.000000 -0.061473 284.000000 -0.149465 13.000000 -0.097109 88.000000 0.334689 125.000000 -0.042583
202422.000000 2.092244 321.000000 318.000000 233.000000 -0.104765 252.000000 0.013279 264.000000 -0.063397 300.000000 -0.143476 14.000000 -0.086314 97.000000 0.327291 134.000000 -0.050158
202740.000000 2.040615 318.000000 322.000000 232.000000 -0.110708 258.000000 0.012035 264.000000 -0.042871 302.000000 -0.155079 14.000000 -0.106237 96.000000 0.312333 138.000000 -0.037102
206145.000000 2.085566 307.000000 307.000000 220.000000 -0.106662 239.000000 -0.019844 240.000000 -0.035377 287.000000 -0.151381 15.000000 -0.130878 93.000000 0.347914 128.000000 -0.040627
206452.000000 2.010954 307.000000 313.000000 219.000000 -0.104291 242.000000 0.016775 253.000000 -0.052662 292.000000 -0.176455 17.000000 -0.130505 93.000000 0.338932 123.000000 -0.043418
208619.000000 2.170563 291.000000 299.000000 209.000000 -0.109752 236.000000 0.007036 269.000000 -0.183401 285.000000 -0.189463 14.000000 -0.095301 94.000000 0.376470 128.000000 -0.054687
208918.000000 2.067499 299.000000 325.000000 230.000000 -0.096625 260.000000 0.018844 288.000000 -0.191298 307.000000 -0.167803 14.000000 -0.060401 100.000000 0.354279 146.000000 -0.039920
209554.000000 2.208809 311.000000 302.000000 209.000000 -0.114492 237.000000 -0.009306 246.000000 -0.096234 283.000000 -0.161517 15.000000 -0.095407 94.000000 0.376333 127.000000 -0.058242
210736.000000 2.157228 295.000000 294.000000 140.000000 -0.080017 177.000000 0.009768 214.000000 -0.090748 277.000000 -0.170511 15.000000 -0.140561 94.000000 0.354607 140.000000 -0.080017
211030.000000 2.027906 294.000000 296.000000 207.000000 -0.091752 232.000000 0.017857 242.000000 -0.050406 277.000000 -0.170829 17.000000 -0.118742 95.000000 0.312993 141.000000 -0.106318
213358.000000 2.027099 294.000000 305.000000 218.000000 -0.081603 237.000000 0.022257 248.000000 -0.058401 286.000000 -0.170030 13.000000 -0.090909 99.000000 0.333496 150.000000 -0.104424
213973.000000 2.235157 310.000000 299.000000 147.000000 -0.141413 180.000000 -0.001350 219.000000 -0.124437 281.000000 -0.158714 13.000000 -0.056538 102.000000 0.373507 147.000000 -0.141413
215457.000000 2.036396 304.000000 310.000000 220.000000 -0.097791 244.000000 0.016237 256.000000 -0.033497 289.000000 -0.170269 14.000000 -0.142272 100.000000 0.336771 141.000000 -0.055813
216405.000000 2.013903 311.000000 299.000000 209.000000 -0.096064 232.000000 -0.005266 244.000000 -0.067039 284.000000 -0.192522 12.000000 -0.111709 95.000000 0.337632 124.000000 -0.037442
217000.000000 2.110925 296.000000 301.000000 219.000000 -0.112588 235.000000 -0.008558 276.000000 -0.181865 285.000000 -0.146130 5.000000 -0.064152 92.000000 0.330820 127.000000 -0.061678
218579.000000 2.027258 324.000000 297.000000 142.000000 -0.085938 183.000000 -0.000707 219.000000 -0.091693 281.000000 -0.171268 17.000000 -0.130284 100.000000 0.304009 143.000000 -0.086393
218876.000000 2.147554 297.000000 296.000000 209.000000 -0.115487 234.000000 -0.002806 246.000000 -0.047069 273.000000 -0.171678 13.000000 -0.098983 96.000000 0.337051 123.000000 -0.053009
221032.000000 2.004200 303.000000 286.000000 203.000000 -0.097635 227.000000 0.002177 235.000000 -0.080487 267.000000 -0.165489 15.000000 -0.121551 94.000000 0.311852 133.000000 -0.064906
221318.000000 2.168997 286.000000 299.000000 215.000000 -0.108748 235.000000 0.002102 246.000000 -0.062913 278.000000 -0.163496 14.000000 -0.131206 92.000000 0.326789 129.000000 -0.059783
222879.000000 2.069715 318.000000 305.000000 149.000000 -0.063513 185.000000 0.005310 225.000000 -0.123717 291.000000 -0.173028 14.000000 -0.107180 102.000000 0.299999 149.000000 -0.063513
223184.000000 1.999326 305.000000 296.000000 141.000000 -0.079766 180.000000 -0.005064 219.000000 -0.127038 281.000000 -0.165658 14.000000 -0.108088 97.000000 0.310835 142.000000 -0.075848
223480.000000 2.114326 296.000000 300.000000 212.000000 -0.106223 238.000000 0.000689 276.000000 -0.168716 283.000000 -0.172870 13.000000 -0.090222 95.000000 0.334589 143.000000 -0.079090
223780.000000 2.131141 300.000000 307.000000 220.000000 -0.101943 237.000000 0.008166 249.000000 -0.054280 291.000000 -0.167899 14.000000 -0.108813 100.000000 0.321834 128.000000 -0.051785
224414.000000 2.043618 327.000000 316.000000 226.000000 -0.116831 246.000000 0.001790 258.000000 -0.064150 295.000000 -0.165700 16.000000 -0.117182 101.000000 0.334841 135.000000 -0.062852
225348.000000 1.999090 311.000000 295.000000 207.000000 -0.076396 231.000000 0.000892 243.000000 -0.047431 276.000000 -0.167007 14.000000 -0.086946 94.000000 0.296442 139.000000 -0.057019
225933.000000 2.153967 290.000000 302.000000 221.000000 -0.107049 245.000000 0.003029 269.000000 -0.162097 287.000000 -0.153915 12.000000 -0.030939 96.000000 0.333638 128.000000 -0.070343
226235.000000 2.020487 302.000000 315.000000 229.000000 -0.112647 249.000000 0.013933 259.000000 -0.069986 294.000000 -0.165190 14.000000 -0.114686 99.000000 0.320141 139.000000 -0.063744
226860.000000 2.095520 310.000000 299.000000 204.000000 -0.079809 236.000000 0.004091 248.000000 -0.058698 280.000000 -0.152882 17.000000 -0.145640 99.000000 0.343810 138.000000 -0.088994
227451.000000 2.009418 292.000000 299.000000 147.000000 -0.078012 185.000000 0.005389 219.000000 -0.105566 283.000000 -0.154109 14.000000 -0.110078 101.000000 0.321929 147.000000 -0.078012
227750.000000 1.954073 299.000000 285.000000 131.000000 -0.084686 174.000000 -0.004406 210.000000 -0.089029 267.000000 -0.163135 15.000000 -0.136882 95.000000 0.294624 131.000000 -0.084686
228321.000000 2.066236 286.000000 309.000000 224.000000 -0.104531 246.000000 0.009105 274.000000 -0.166037 289.000000 -0.161366 14.000000 -0.085393 101.000000 0.341760 136.000000 -0.057285
228630.000000 2.089025 309.000000 322.000000 228.000000 -0.113076 257.000000 0.012100 264.000000 -0.066709 305.000000 -0.174360 16.000000 -0.120693 104.000000 0.338699 138.000000 -0.093921
229561.000000 2.115131 294.000000 302.000000 220.000000 -0.102345 242.000000 0.018375 249.000000 -0.047753 281.000000 -0.172314 15.000000 -0.126719 93.000000 0.354844 133.000000 -0.050078
230163.000000 2.061785 300.000000 295.000000 142.000000 -0.101333 228.000000 0.002022 241.000000 -0.062759 273.000000 -0.174030 15.000000 -0.127571 96.000000 0.334312 145.000000 -0.075095
230458.000000 1.925908 295.000000 304.000000 214.000000 -0.091578 240.000000 0.015267 247.000000 -0.059544 284.000000 -0.175812 15.000000 -0.137070 96.000000 0.304141 149.000000 -0.077943
231963.000000 2.131017 288.000000 302.000000 219.000000 -0.125204 240.000000 0.006989 248.000000 -0.077132 284.000000 -0.169325 14.000000 -0.120160 97.000000 0.353933 132.000000 -0.050894
232563.000000 2.037475 298.000000 312.000000 223.000000 -0.098023 246.000000 0.019799 255.000000 -0.069010 294.000000 -0.148760 14.000000 -0.111441 96.000000 0.331944 133.000000 -0.040113
233201.000000 2.098886 326.000000 325.000000 229.000000 -0.113711 257.000000 0.026101 265.000000 -0.046267 304.000000 -0.151389 14.000000 -0.105660 100.000000 0.349732 138.000000 -0.071896
236643.000000 1.943288 297.000000 312.000000 231.000000 -0.117871 253.000000 0.009984 266.000000 -0.044703 293.000000 -0.159595 13.000000 -0.073105 102.000000 0.308261 135.000000 -0.060833
236955.000000 2.146422 312.000000 313.000000 233.000000 -0.118810 254.000000 -0.000093 265.000000 -0.032491 292.000000 -0.168778 15.000000 -0.112701 102.000000 0.352975 137.000000 -0.072510
238202.000000 2.081783 307.000000 292.000000 210.000000 -0.094590 230.000000 -0.000812 240.000000 -0.081111 273.000000 -0.159684 16.000000 -0.130680 93.000000 0.362663 136.000000 -0.083024
240938.000000 2.093178 293.000000 310.000000 219.000000 -0.092887 244.000000 0.002099 252.000000 -0.051851 288.000000 -0.166240 20.000000 -0.166636 93.000000 0.336155 130.000000 -0.046129
241570.000000 1.956972 322.000000 319.000000 229.000000 -0.102824 258.000000 0.008759 282.000000 -0.152635 298.000000 -0.162791 17.000000 -0.118407 102.000000 0.346990 139.000000 -0.047961
241889.000000 2.057162 319.000000 322.000000 232.000000 -0.115498 257.000000 0.013404 269.000000 -0.024213 301.000000 -0.152864 14.000000 -0.087636 101.000000 0.345356 139.000000 -0.062539
242516.000000 1.878808 305.000000 303.000000 220.000000 -0.110693 243.000000 0.016065 256.000000 -0.063670 284.000000 -0.137806 16.000000 -0.107088 92.000000 0.283165 129.000000 -0.034091
243109.000000 2.027710 290.000000 294.000000 208.000000 -0.081807 227.000000 -0.001241 232.000000 -0.005049 277.000000 -0.157480 17.000000 -0.124532 94.000000 0.331646 141.000000 -0.058402
243403.000000 1.915703 294.000000 322.000000 231.000000 -0.093650 255.000000 0.016930 264.000000 -0.042239 301.000000 -0.174370 16.000000 -0.110503 100.000000 0.314264 136.000000 -0.036835
244040.000000 2.034708 315.000000 304.000000 217.000000 -0.102759 243.000000 -0.002558 250.000000 -0.067213 284.000000 -0.149580 15.000000 -0.122830 94.000000 0.328497 127.000000 -0.046832
245256.000000 2.078539 302.000000 304.000000 223.000000 -0.110705 244.000000 -0.004638 257.000000 -0.055719 288.000000 -0.147301 14.000000 -0.131290 94.000000 0.341642 133.000000 -0.052115
245560.000000 1.987541 304.000000 322.000000 229.000000 -0.099461 259.000000 0.016134 265.000000 -0.022880 304.000000 -0.164560 14.000000 -0.097053 98.000000 0.333399 135.000000 -0.054469
247122.000000 1.989136 297.000000 302.000000 218.000000 -0.106691 241.000000 0.003278 252.000000 -0.028069 286.000000 -0.165232 13.000000 -0.071836 95.000000 0.322145 125.000000 -0.032273
248360.000000 1.934910 330.000000 315.000000 223.000000 -0.125515 255.000000 0.003526 260.000000 -0.070377 295.000000 -0.186521 16.000000 -0.135546 93.000000 0.316769 131.000000 -0.041895
248675.000000 2.119157 315.000000 304.000000 214.000000 -0.106158 240.000000 0.005076 262.000000 -0.137542 287.000000 -0.160472 15.000000 -0.134729 92.000000 0.350630 130.000000 -0.060593
248979.000000 2.118763 304.000000 304.000000 222.000000 -0.135583 244.000000 -0.024690 251.000000 -0.094752 286.000000 -0.150233 20.000000 -0.145577 99.000000 0.344879 131.000000 -0.062460
249595.000000 2.070567 312.000000 321.000000 228.000000 -0.112240 251.000000 0.022975 284.000000 -0.179815 303.000000 -0.162213 15.000000 -0.115358 102.000000 0.336378 137.000000 -0.035421
250236.000000 1.966496 320.000000 339.000000 235.000000 -0.113317 271.000000 0.031666 299.000000 -0.165528 317.000000 -0.157833 14.000000 -0.114979 104.000000 0.306456 140.000000 -0.052321
252128.000000 2.166803 315.000000 322.000000 230.000000 -0.119184 260.000000 0.006063 267.000000 -0.054328 301.000000 -0.155235 14.000000 -0.111754 100.000000 0.356836 133.000000 -0.067711
252777.000000 2.014231 327.000000 324.000000 239.000000 -0.114202 262.000000 0.018622 270.000000 -0.071818 309.000000 -0.173011 16.000000 -0.113292 105.000000 0.348969 144.000000 -0.064607
254009.000000 2.127182 304.000000 315.000000 228.000000 -0.110610 247.000000 0.010922 260.000000 -0.048606 295.000000 -0.147287 12.000000 -0.028099 97.000000 0.328934 133.000000 -0.061001
254637.000000 2.053388 313.000000 315.000000 227.000000 -0.122221 249.000000 0.005380 260.000000 -0.071218 297.000000 -0.150373 14.000000 -0.087365 100.000000 0.311662 130.000000 -0.025737
254952.000000 2.003042 315.000000 323.000000 238.000000 -0.120410 264.000000 0.005406 270.000000 -0.057839 304.000000 -0.168857 14.000000 -0.068700 104.000000 0.321285 146.000000 -0.051582
256163.000000 1.970815 297.000000 315.000000 221.000000 -0.125575 247.000000 0.003969 257.000000 -0.066518 295.000000 -0.154575 15.000000 -0.120377 100.000000 0.316740 138.000000 -0.037539
256478.000000 2.071461 315.000000 320.000000 232.000000 -0.109155 257.000000 0.014776 264.000000 -0.054487 301.000000 -0.160471 17.000000 -0.122536 106.000000 0.335691 143.000000 -0.041704
257440.000000 2.036112 323.000000 310.000000 225.000000 -0.094855 249.000000 -0.001281 256.000000 -0.060639 290.000000 -0.157472 17.000000 -0.124846 99.000000 0.332475 131.000000 -0.039920
258996.000000 2.078384 325.000000 317.000000 232.000000 -0.136244 254.000000 -0.001020 265.000000 -0.051365 299.000000 -0.169763 3.000000 1.383572 97.000000 0.320343 136.000000 -0.066128
259313.000000 1.955068 317.000000 309.000000 220.000000 -0.091265 241.000000 0.005020 276.000000 -0.177114 293.000000 -0.155419 14.000000 -0.083413 97.000000 0.311646 134.000000 -0.010548
259622.000000 1.845679 309.000000 311.000000 229.000000 -0.110672 251.000000 -0.000780 259.000000 -0.061831 295.000000 -0.160968 15.000000 -0.103225 102.000000 0.319440 136.000000 -0.051067
259933.000000 2.028185 311.000000 297.000000 217.000000 -0.113765 241.000000 -0.000048 247.000000 -0.065095 279.000000 -0.168136 14.000000 -0.097096 96.000000 0.334910 143.000000 -0.081190
261159.000000 2.063805 323.000000 318.000000 227.000000 -0.117462 250.000000 0.011755 278.000000 -0.139091 297.000000 -0.146302 18.000000 -0.130505 107.000000 0.344374 135.000000 -0.055456
261785.000000 1.963470 308.000000 311.000000 227.000000 -0.091224 248.000000 0.009637 271.000000 -0.143467 291.000000 -0.135863 15.000000 -0.107581 99.000000 0.303686 135.000000 -0.023401
262388.000000 2.137120 292.000000 293.000000 210.000000 -0.085515 232.000000 0.004313 262.000000 -0.167664 276.000000 -0.138307 14.000000 -0.104527 95.000000 0.347428 136.000000 -0.072526
265147.000000 2.149123 309.000000 325.000000 227.000000 -0.130100 253.000000 0.019950 264.000000 -0.048199 303.000000 -0.146427 16.000000 -0.141678 103.000000 0.330092 143.000000 -0.066206
266120.000000 2.061458 315.000000 299.000000 205.000000 -0.089249 234.000000 0.003464 275.000000 -0.176002 283.000000 -0.149169 14.000000 -0.096740 97.000000 0.327902 128.000000 -0.051615
266419.000000 2.107444 299.000000 315.000000 224.000000 -0.110214 253.000000 -0.000966 262.000000 -0.043991 297.000000 -0.164060 14.000000 -0.105550 98.000000 0.323759 133.000000 -0.038763
267969.000000 1.978024 319.000000 313.000000 230.000000 -0.099344 252.000000 0.006973 280.000000 -0.164516 294.000000 -0.153044 15.000000 -0.108621 107.000000 0.283906 136.000000 -0.042960
269172.000000 2.009048 299.000000 296.000000 143.000000 -0.082116 178.000000 0.016129 216.000000 -0.104434 277.000000 -0.154591 18.000000 -0.139729 99.000000 0.298732 143.000000 -0.082116
269468.000000 2.130272 296.000000 311.000000 221.000000 -0.092010 246.000000 0.021502 261.000000 -0.070082 292.000000 -0.176616 17.000000 -0.126311 102.000000 0.324987 135.000000 -0.055265
270411.000000 2.001725 316.000000 294.000000 207.000000 -0.112337 228.000000 0.006645 240.000000 -0.050330 276.000000 -0.150693 15.000000 -0.139088 95.000000 0.316039 138.000000 -0.046690
272226.000000 2.139481 313.000000 315.000000 228.000000 -0.128576 247.000000 -0.007681 258.000000 -0.088669 294.000000 -0.171568 16.000000 -0.139155 99.000000 0.353792 139.000000 -0.066315
273441.000000 2.154670 303.000000 316.000000 228.000000 -0.111188 253.000000 0.001476 274.000000 -0.150248 298.000000 -0.173542 15.000000 -0.124000 102.000000 0.333243 141.000000 -0.060815
274396.000000 2.115753 325.000000 321.000000 229.000000 -0.101412 250.000000 0.010752 263.000000 -0.053529 302.000000 -0.168780 15.000000 -0.119623 102.000000 0.357603 135.000000 -0.053560
274717.000000 2.097679 321.000000 315.000000 227.000000 -0.119030 255.000000 0.001692 281.000000 -0.176881 296.000000 -0.142803 13.000000 -0.076428 93.000000 0.334331 129.000000 -0.038228
275032.000000 2.039911 315.000000 300.000000 217.000000 -0.113826 238.000000 0.006235 247.000000 -0.058044 283.000000 -0.152730 14.000000 -0.115998 95.000000 0.325581 128.000000 -0.044638
276292.000000 2.049468 330.000000 306.000000 220.000000 -0.105411 239.000000 0.004372 274.000000 -0.185081 287.000000 -0.162056 15.000000 -0.141487 97.000000 0.339017 132.000000 -0.041034
276598.000000 2.124180 306.000000 306.000000 152.000000 -0.107727 185.000000 -0.009703 223.000000 -0.114674 285.000000 -0.176723 14.000000 -0.079925 101.000000 0.351224 137.000000 -0.056271
276904.000000 2.072903 306.000000 302.000000 222.000000 -0.106538 239.000000 -0.014218 249.000000 -0.089483 285.000000 -0.175708 17.000000 -0.137224 102.000000 0.340202 130.000000 -0.031586
277490.000000 1.925658 284.000000 282.000000 204.000000 -0.090126 224.000000 0.004388 246.000000 -0.166707 264.000000 -0.177679 14.000000 -0.118920 96.000000 0.336378 132.000000 -0.095391
277772.000000 2.115316 282.000000 307.000000 219.000000 -0.112723 242.000000 0.017727 254.000000 -0.023339 289.000000 -0.178526 14.000000 -0.109103 92.000000 0.362996 149.000000 -0.086613
279033.000000 2.140564 316.000000 310.000000 224.000000 -0.110834 247.000000 0.006881 260.000000 -0.045015 293.000000 -0.162746 13.000000 -0.053997 90.000000 0.394798 127.000000 -0.064485
279658.000000 2.142997 315.000000 310.000000 226.000000 -0.131359 250.000000 -0.010750 255.000000 -0.078023 292.000000 -0.141205 15.000000 -0.128051 90.000000 0.400126 135.000000 -0.073494
282242.000000 2.116309 316.000000 327.000000 240.000000 -0.128374 261.000000 0.024750 273.000000 -0.011191 306.000000 -0.162414 15.000000 -0.121106 97.000000 0.370866 136.000000 -0.044452
282910.000000 1.848355 341.000000 322.000000 242.000000 -0.106378 264.000000 0.018525 279.000000 -0.089986 304.000000 -0.175455 15.000000 -0.130439 102.000000 0.304230 138.000000 -0.039922
283232.000000 2.057180 322.000000 319.000000 228.000000 -0.121820 255.000000 0.007586 288.000000 -0.175206 303.000000 -0.170362 15.000000 -0.120296 98.000000 0.342684 132.000000 -0.056553
285793.000000 2.038258 306.000000 309.000000 221.000000 -0.113907 243.000000 -0.012401 266.000000 -0.115081 289.000000 -0.160128 19.000000 -0.155647 99.000000 0.346158 136.000000 -0.048009
286102.000000 2.079070 309.000000 320.000000 220.000000 -0.119267 258.000000 0.009464 264.000000 -0.044877 300.000000 -0.157148 17.000000 -0.121009 97.000000 0.336989 137.000000 -0.041832
287720.000000 2.009793 316.000000 307.000000 227.000000 -0.121631 253.000000 -0.012006 274.000000 -0.158949 288.000000 -0.153228 17.000000 -0.142857 92.000000 0.330216 130.000000 -0.041613
289305.000000 1.967538 327.000000 340.000000 241.000000 -0.110474 266.000000 0.018557 281.000000 -0.044577 321.000000 -0.174296 15.000000 -0.108215 103.000000 0.320344 139.000000 -0.051800
289962.000000 2.133496 317.000000 301.000000 214.000000 -0.099544 243.000000 0.004654 250.000000 -0.056930 283.000000 -0.146477 16.000000 -0.126236 94.000000 0.377903 129.000000 -0.046082
290263.000000 2.102880 301.000000 307.000000 226.000000 -0.105911 250.000000 -0.002118 262.000000 -0.033716 291.000000 -0.152260 20.000000 -0.150101 93.000000 0.352163 130.000000 -0.038822
290570.000000 2.022488 307.000000 308.000000 223.000000 -0.108544 248.000000 -0.005267 257.000000 -0.070424 290.000000 -0.147712 14.000000 -0.121841 91.000000 0.334606 132.000000 -0.034371
292763.000000 2.052208 302.000000 315.000000 227.000000 -0.123339 246.000000 0.002679 279.000000 -0.161865 296.000000 -0.165313 14.000000 -0.099986 95.000000 0.364377 133.000000 -0.049278
293731.000000 2.189620 323.000000 319.000000 221.000000 -0.127213 255.000000 0.022836 263.000000 -0.051647 301.000000 -0.164769 15.000000 -0.126852 98.000000 0.371431 136.000000 -0.058260
294959.000000 2.133717 291.000000 304.000000 221.000000 -0.112980 244.000000 0.003022 251.000000 -0.054078 285.000000 -0.172492 18.000000 -0.142081 100.000000 0.346790 142.000000 -0.038759
295589.000000 2.040377 326.000000 319.000000 227.000000 -0.090268 257.000000 0.018101 264.000000 -0.051743 298.000000 -0.135785 15.000000 -0.119184 106.000000 0.318891 141.000000 -0.036848
296533.000000 2.178906 316.000000 303.000000 218.000000 -0.098650 243.000000 -0.001173 251.000000 -0.085829 284.000000 -0.151095 15.000000 -0.111830 97.000000 0.368558 130.000000 -0.047664
296836.000000 2.170973 303.000000 297.000000 213.000000 -0.108743 232.000000 -0.011375 244.000000 -0.074684 278.000000 -0.157066 16.000000 -0.134075 95.000000 0.350440 136.000000 -0.046896
297758.000000 2.148799 317.000000 329.000000 244.000000 -0.119467 264.000000 0.023211 277.000000 -0.029437 311.000000 -0.171237 14.000000 -0.095559 102.000000 0.356238 144.000000 -0.064294
298087.000000 2.204785 329.000000 321.000000 238.000000 -0.136693 261.000000 0.007380 289.000000 -0.156724 305.000000 -0.167896 15.000000 -0.099761 103.000000 0.350299 138.000000 -0.068429
299326.000000 2.098335 299.000000 317.000000 227.000000 -0.103106 245.000000 0.012414 260.000000 -0.057069 298.000000 -0.163637 14.000000 -0.122857 101.000000 0.345316 131.000000 -0.046566
300302.000000 2.130645 331.000000 316.000000 232.000000 -0.121067 255.000000 0.006162 262.000000 -0.084011 299.000000 -0.159494 13.000000 -0.041753 98.000000 0.347917 137.000000 -0.061693
300618.000000 2.057372 316.000000 307.000000 221.000000 -0.101222 242.000000 -0.004093 253.000000 -0.064111 288.000000 -0.157100 16.000000 -0.130449 99.000000 0.317228 131.000000 -0.059025
302165.000000 2.062840 322.000000 333.000000 241.000000 -0.126141 268.000000 0.032416 274.000000 -0.032348 314.000000 -0.159478 16.000000 -0.108352 106.000000 0.344902 147.000000 -0.042463
302498.000000 2.132277 333.000000 316.000000 232.000000 -0.113804 253.000000 0.006898 282.000000 -0.148886 298.000000 -0.167334 16.000000 -0.116220 102.000000 0.344734 137.000000 -0.046831
303434.000000 2.179498 317.000000 307.000000 222.000000 -0.112902 240.000000 -0.015645 252.000000 -0.060739 288.000000 -0.136992 14.000000 -0.089862 96.000000 0.362411 122.000000 -0.033009
304051.000000 2.206166 310.000000 323.000000 232.000000 -0.117722 264.000000 0.010300 288.000000 -0.166501 305.000000 -0.173570 15.000000 -0.120685 97.000000 0.362680 141.000000 -0.052884
305026.000000 2.123869 321.000000 304.000000 226.000000 -0.096475 245.000000 -0.010093 253.000000 -0.083698 285.000000 -0.164547 15.000000 -0.098105 95.000000 0.364515 132.000000 -0.046099
305330.000000 2.118902 304.000000 314.000000 228.000000 -0.116555 246.000000 0.024623 259.000000 -0.054171 297.000000 -0.174910 12.000000 -0.051178 97.000000 0.375877 131.000000 -0.054593
305644.000000 2.059793 314.000000 321.000000 231.000000 -0.104797 257.000000 0.004543 264.000000 -0.055301 301.000000 -0.160019 17.000000 -0.125910 99.000000 0.347652 134.000000 -0.049545
307882.000000 1.993161 302.000000 315.000000 230.000000 -0.115390 256.000000 0.029439 283.000000 -0.173821 298.000000 -0.154884 13.000000 -0.069407 101.000000 0.365596 117.000000 0.092683
310725.000000 2.109173 325.000000 328.000000 238.000000 -0.126753 263.000000 0.021898 270.000000 -0.059231 312.000000 -0.170674 14.000000 -0.129808 101.000000 0.372835 143.000000 -0.052370
311703.000000 2.094295 322.000000 318.000000 225.000000 -0.139470 256.000000 0.001079 286.000000 -0.154454 297.000000 -0.172181 16.000000 -0.116176 94.000000 0.359214 131.000000 -0.051681
315305.000000 2.154042 335.000000 326.000000 237.000000 -0.122678 261.000000 0.015283 271.000000 -0.045893 306.000000 -0.163229 15.000000 -0.115489 97.000000 0.383179 135.000000 -0.067181
315631.000000 2.051612 326.000000 325.000000 221.000000 -0.102919 264.000000 0.024183 292.000000 -0.159248 303.000000 -0.164342 17.000000 -0.129800 102.000000 0.342036 143.000000 -0.038978
316272.000000 2.161846 316.000000 305.000000 221.000000 -0.112299 240.000000 0.000366 251.000000 -0.079762 287.000000 -0.168163 14.000000 -0.077231 97.000000 0.383950 137.000000 -0.036265
318549.000000 2.077491 327.000000 321.000000 223.000000 -0.135993 249.000000 0.004635 282.000000 -0.169690 303.000000 -0.129802 16.000000 -0.127637 99.000000 0.386914 131.000000 -0.071046
319854.000000 2.095378 326.000000 319.000000 235.000000 -0.111334 258.000000 0.015481 276.000000 -0.097291 300.000000 -0.148808 15.000000 -0.139793 96.000000 0.360694 129.000000 -0.034668
320481.000000 2.094941 308.000000 316.000000 228.000000 -0.122995 254.000000 0.011846 280.000000 -0.173937 297.000000 -0.163873 16.000000 -0.125294 93.000000 0.366913 132.000000 -0.063118
321115.000000 2.095499 318.000000 323.000000 228.000000 -0.102354 258.000000 0.024704 287.000000 -0.160283 305.000000 -0.151130 18.000000 -0.143496 101.000000 0.333060 136.000000 -0.037949
321780.000000 2.151062 342.000000 332.000000 242.000000 -0.099827 263.000000 0.018733 298.000000 -0.162553 312.000000 -0.156645 15.000000 -0.108437 102.000000 0.369732 140.000000 -0.063855
322420.000000 2.068648 308.000000 310.000000 232.000000 -0.118483 248.000000 0.006207 276.000000 -0.144092 293.000000 -0.168138 15.000000 -0.132494 97.000000 0.340836 128.000000 -0.028683
322730.000000 1.966393 310.000000 310.000000 219.000000 -0.104328 251.000000 0.025769 257.000000 -0.044137 293.000000 -0.149250 13.000000 -0.113701 94.000000 0.334029 133.000000 -0.056459
323354.000000 2.186694 314.000000 327.000000 238.000000 -0.099564 264.000000 0.012490 287.000000 -0.135677 307.000000 -0.163968 19.000000 -0.159715 101.000000 0.365444 140.000000 -0.055236
325262.000000 1.915497 304.000000 304.000000 219.000000 -0.091852 245.000000 0.008304 253.000000 -0.057244 287.000000 -0.155396 14.000000 -0.116978 99.000000 0.321626 149.000000 -0.076362
327043.000000 2.156076 285.000000 295.000000 219.000000 -0.115690 239.000000 -0.001302 249.000000 -0.059061 276.000000 -0.159135 13.000000 -0.120522 94.000000 0.349513 142.000000 -0.090763
327650.000000 2.099108 312.000000 328.000000 242.000000 -0.107289 262.000000 0.034090 296.000000 -0.147226 307.000000 -0.158198 17.000000 -0.132553 105.000000 0.343482 144.000000 -0.062772
328298.000000 2.034685 320.000000 337.000000 232.000000 -0.097667 268.000000 0.029308 277.000000 -0.034218 317.000000 -0.170518 18.000000 -0.144988 100.000000 0.370985 142.000000 -0.052821
329581.000000 1.870272 313.000000 322.000000 224.000000 -0.130610 256.000000 0.024793 290.000000 -0.156447 303.000000 -0.170100 13.000000 -0.100904 95.000000 0.339497 131.000000 -0.040330
329903.000000 2.083365 322.000000 338.000000 243.000000 -0.111349 277.000000 0.047197 304.000000 -0.168869 318.000000 -0.142083 16.000000 -0.133998 102.000000 0.347434 141.000000 -0.076176
330241.000000 2.078059 338.000000 325.000000 239.000000 -0.101282 261.000000 0.015159 273.000000 -0.057162 307.000000 -0.150344 15.000000 -0.120140 106.000000 0.336798 145.000000 -0.076367
332717.000000 2.107474 319.000000 316.000000 229.000000 -0.100440 254.000000 0.020142 281.000000 -0.153872 298.000000 -0.168999 15.000000 -0.123873 98.000000 0.342071 132.000000 -0.052038
333961.000000 2.061578 303.000000 318.000000 230.000000 -0.117963 257.000000 0.021522 278.000000 -0.147274 298.000000 -0.159752 15.000000 -0.113532 99.000000 0.348875 138.000000 -0.052977
334612.000000 2.022840 333.000000 319.000000 236.000000 -0.074561 259.000000 0.027460 275.000000 -0.087932 301.000000 -0.143916 14.000000 -0.088633 103.000000 0.315375 141.000000 -0.052336
334931.000000 1.875288 319.000000 301.000000 146.000000 -0.067523 181.000000 0.004952 221.000000 -0.089061 283.000000 -0.142382 14.000000 -0.099885 102.000000 0.285846 146.000000 -0.067523
335543.000000 2.033384 311.000000 300.000000 220.000000 -0.098811 241.000000 0.006847 249.000000 -0.066334 280.000000 -0.145582 15.000000 -0.131286 97.000000 0.346991 144.000000 -0.058136
337434.000000 1.840736 314.000000 310.000000 226.000000 -0.109171 250.000000 0.017118 257.000000 -0.047928 293.000000 -0.159952 15.000000 -0.137569 96.000000 0.312263 134.000000 -0.058779
338057.000000 2.205097 313.000000 311.000000 223.000000 -0.121737 252.000000 -0.001533 274.000000 -0.173038 295.000000 -0.154984 14.000000 -0.119276 99.000000 0.350059 132.000000 -0.041508
339698.000000 2.024575 329.000000 319.000000 235.000000 -0.114232 256.000000 0.029028 289.000000 -0.170064 302.000000 -0.155456 14.000000 -0.128624 93.000000 0.321748 128.000000 -0.022777
340017.000000 2.161409 319.000000 332.000000 241.000000 -0.138132 271.000000 0.018968 294.000000 -0.157585 312.000000 -0.157492 15.000000 -0.113262 98.000000 0.357694 137.000000 -0.063339
341351.000000 2.343703 337.000000 339.000000 253.000000 -0.097241 283.000000 0.027852 317.000000 -0.145018 323.000000 -0.131584 15.000000 -0.106390 103.000000 0.350453 138.000000 -0.056774
343967.000000 2.186331 328.000000 311.000000 232.000000 -0.139451 252.000000 0.007536 260.000000 -0.053388 289.000000 -0.144719 14.000000 -0.118165 96.000000 0.347090 133.000000 -0.031205
344588.000000 2.182836 310.000000 315.000000 236.000000 -0.106900 256.000000 0.006300 269.000000 -0.037446 297.000000 -0.166332 19.000000 -0.155124 100.000000 0.365316 139.000000 -0.074499
345547.000000 2.001557 328.000000 319.000000 228.000000 -0.120533 256.000000 0.013289 265.000000 -0.056976 301.000000 -0.180189 16.000000 -0.116941 100.000000 0.347913 129.000000 -0.040674
346181.000000 2.187069 315.000000 301.000000 220.000000 -0.118073 241.000000 -0.005533 249.000000 -0.094860 283.000000 -0.155522 12.000000 -0.062068 91.000000 0.388437 125.000000 -0.039264
346778.000000 2.000154 296.000000 315.000000 231.000000 -0.089453 255.000000 0.020640 264.000000 -0.057133 297.000000 -0.161723 15.000000 -0.141129 99.000000 0.324909 135.000000 -0.049170
347093.000000 2.170664 315.000000 325.000000 239.000000 -0.118496 264.000000 0.019275 271.000000 -0.047027 305.000000 -0.160893 14.000000 -0.095827 98.000000 0.383355 137.000000 -0.039796
348076.000000 2.067292 334.000000 336.000000 248.000000 -0.098789 271.000000 0.034848 298.000000 -0.170310 318.000000 -0.157883 16.000000 -0.148226 104.000000 0.373103 139.000000 -0.043481
348733.000000 2.082338 321.000000 319.000000 224.000000 -0.108588 255.000000 0.023746 261.000000 -0.038074 300.000000 -0.165646 15.000000 -0.141549 94.000000 0.371452 124.000000 -0.032326
349726.000000 2.100630 334.000000 333.000000 236.000000 -0.119687 265.000000 0.021425 288.000000 -0.102634 314.000000 -0.165205 13.000000 -0.056657 98.000000 0.360635 136.000000 -0.081313
350382.000000 1.952934 323.000000 316.000000 228.000000 -0.113921 256.000000 0.014592 262.000000 -0.051772 295.000000 -0.162024 15.000000 -0.120594 100.000000 0.316329 136.000000 -0.037089
350698.000000 2.175235 316.000000 306.000000 224.000000 -0.112175 246.000000 -0.008791 267.000000 -0.138526 299.000000 0.004447 14.000000 -0.088385 96.000000 0.370189 128.000000 -0.042759
352273.000000 2.130737 313.000000 312.000000 232.000000 -0.109451 255.000000 0.006958 278.000000 -0.164908 295.000000 -0.163717 16.000000 -0.105580 104.000000 0.348747 136.000000 -0.044371
352891.000000 2.073323 306.000000 302.000000 219.000000 -0.118178 238.000000 -0.008537 261.000000 -0.133396 282.000000 -0.176764 14.000000 -0.105958 99.000000 0.353227 148.000000 -0.093435
353193.000000 2.208311 302.000000 301.000000 220.000000 -0.124249 242.000000 -0.008968 253.000000 -0.041208 279.000000 -0.167068 17.000000 -0.161627 98.000000 0.344326 132.000000 -0.054312
353494.000000 2.125302 301.000000 320.000000 218.000000 -0.102556 248.000000 0.021910 252.000000 0.012678 303.000000 -0.181613 16.000000 -0.150577 102.000000 0.320861 137.000000 -0.022289
353814.000000 2.068689 320.000000 330.000000 236.000000 -0.117662 264.000000 0.009324 271.000000 -0.065301 306.000000 -0.180408 15.000000 -0.096061 107.000000 0.341471 142.000000 -0.042445
356337.000000 2.294511 331.000000 322.000000 239.000000 -0.109888 260.000000 0.007007 268.000000 -0.068290 303.000000 -0.157740 16.000000 -0.137557 102.000000 0.355974 138.000000 -0.056536
356969.000000 2.006380 310.000000 301.000000 217.000000 -0.101835 239.000000 0.016753 268.000000 -0.160598 284.000000 -0.177195 13.000000 -0.086879 101.000000 0.310646 129.000000 -0.033572
357890.000000 2.088619 306.000000 316.000000 226.000000 -0.113526 247.000000 0.021443 280.000000 -0.175875 298.000000 -0.162412 13.000000 -0.070018 97.000000 0.330909 130.000000 -0.029496
358545.000000 2.142647 339.000000 319.000000 234.000000 -0.101272 252.000000 0.015063 275.000000 -0.087883 302.000000 -0.153400 14.000000 -0.092758 103.000000 0.340693 138.000000 -0.029827
358864.000000 2.127759 319.000000 311.000000 229.000000 -0.117066 252.000000 0.002213 262.000000 -0.031644 292.000000 -0.158587 15.000000 -0.135049 95.000000 0.358646 129.000000 -0.047103
359477.000000 1.951978 302.000000 309.000000 224.000000 -0.127744 244.000000 0.022414 278.000000 -0.188467 291.000000 -0.171931 13.000000 -0.098336 94.000000 0.311067 131.000000 -0.028839
360099.000000 2.093121 313.000000 317.000000 224.000000 -0.110418 251.000000 0.011572 292.000000 -0.162756 300.000000 -0.143902 14.000000 -0.118118 102.000000 0.330719 133.000000 -0.027149
360416.000000 2.004278 317.000000 337.000000 244.000000 -0.120992 267.000000 0.038353 276.000000 -0.032273 320.000000 -0.152915 14.000000 -0.072590 103.000000 0.293856 142.000000 -0.054103
362015.000000 2.080000 309.000000 330.000000 243.000000 -0.102849 268.000000 0.013323 296.000000 -0.168480 312.000000 -0.163637 15.000000 -0.118322 101.000000 0.322740 139.000000 -0.045753
