40701.000000 2.404765 255.000000 301.000000 88.000000 -1.413154 189.000000 0.329638 228.000000 0.190529 297.000000 0.376360 25.000000 -0.403480 171.000000 0.322052 175.000000 0.297319
57864.000000 2.364062 202.000000 306.000000 135.000000 -0.056571 186.000000 0.381787 221.000000 0.250421 294.000000 0.070735 24.000000 -0.029025 181.000000 0.358480 221.000000 0.250421
67358.000000 1.328669 558.000000 255.000000 174.000000 0.140374 214.000000 0.265141 221.000000 0.237493 240.000000 0.217180 14.000000 -0.030673 152.000000 0.048962 179.000000 0.150296
67613.000000 1.400173 255.000000 189.000000 100.000000 -0.826721 168.000000 0.572351 163.000000 0.415047 170.000000 0.709028 14.000000 -0.001754 24.000000 0.014547 38.000000 -0.095218
74611.000000 2.259185 217.000000 335.000000 92.000000 -1.452654 203.000000 0.312447 246.000000 0.135863 326.000000 1.094891 11.000000 0.555000 178.000000 0.366363 195.000000 0.285674
75241.000000 1.719765 295.000000 288.000000 211.000000 0.070598 244.000000 0.167901 254.000000 0.107870 276.000000 0.085172 15.000000 0.428716 20.000000 0.325096 26.000000 0.187792
75720.000000 2.089578 191.000000 298.000000 73.000000 -1.212409 186.000000 0.442524 279.000000 -0.032959 286.000000 -0.025138 30.000000 -0.142772 174.000000 0.402243 279.000000 -0.032959
85099.000000 2.194028 603.000000 207.000000 108.000000 -0.986600 186.000000 1.172477 182.000000 0.827085 189.000000 1.380580 14.000000 0.606096 20.000000 0.480359 109.000000 -0.993309
85888.000000 2.483745 259.000000 308.000000 88.000000 -1.482817 186.000000 0.338840 241.000000 0.200251 288.000000 0.098103 10.000000 0.311206 181.000000 0.316740 241.000000 0.200251
86196.000000 2.371895 308.000000 289.000000 102.000000 -0.832686 184.000000 0.251658 217.000000 0.081597 279.000000 -0.058557 17.000000 0.521471 20.000000 0.408602 37.000000 0.074087
94787.000000 1.442025 285.000000 283.000000 198.000000 0.105186 227.000000 0.181283 254.000000 0.087099 262.000000 0.119984 17.000000 0.002056 167.000000 0.127975 201.000000 0.106267
95070.000000 1.470674 283.000000 292.000000 245.000000 0.060299 268.000000 0.098637 274.000000 0.129030 275.000000 0.137714 15.000000 -0.025234 173.000000 0.053810 192.000000 0.011162
95628.000000 1.538732 266.000000 182.000000 100.000000 -0.603199 148.000000 0.127866 135.000000 0.082507 142.000000 0.111018 15.000000 0.006506 22.000000 -0.032084 36.000000 -0.083447
106308.000000 2.451676 246.000000 311.000000 83.000000 -1.336947 196.000000 0.378892 275.000000 -0.013134 298.000000 -0.068776 9.000000 0.236220 183.000000 0.336118 275.000000 -0.013134
114183.000000 2.394876 299.000000 285.000000 179.000000 0.053887 204.000000 0.085470 231.000000 -0.009533 273.000000 0.013445 16.000000 0.479031 20.000000 0.352604 96.000000 -0.753341
125852.000000 2.082698 213.000000 338.000000 87.000000 -1.527728 203.000000 0.376225 211.000000 0.344031 328.000000 -0.046678 29.000000 -0.228794 174.000000 0.413812 194.000000 0.331601
134929.000000 2.435206 860.000000 328.000000 183.000000 0.347149 221.000000 0.500442 292.000000 0.030725 317.000000 -0.024999 18.000000 -0.132146 194.000000 0.425928 292.000000 0.030725
147685.000000 2.659640 203.000000 331.000000 73.000000 -0.998324 208.000000 0.269526 254.000000 0.091661 315.000000 0.011289 28.000000 -0.120626 172.000000 0.325529 204.000000 0.240451
149396.000000 2.031474 249.000000 165.000000 79.000000 -1.511959 144.000000 1.209292 140.000000 0.778430 147.000000 1.604323 10.000000 -0.020533 20.000000 -0.495627 29.000000 -0.567414
157957.000000 1.559577 272.000000 281.000000 211.000000 0.130783 237.000000 0.217240 259.000000 0.163964 262.000000 0.175124 17.000000 -0.029324 167.000000 0.131962 183.000000 0.154531
158238.000000 1.651394 281.000000 314.000000 189.000000 0.059875 226.000000 0.097589 241.000000 0.029656 301.000000 0.044610 15.000000 -0.014593 167.000000 0.113385 189.000000 0.059875
159714.000000 2.311442 231.000000 297.000000 79.000000 -1.484999 202.000000 0.487211 267.000000 0.142760 286.000000 0.058026 24.000000 -0.391083 177.000000 0.460580 267.000000 0.142760
165794.000000 1.476895 283.000000 292.000000 203.000000 0.121178 236.000000 0.211929 245.000000 0.140174 276.000000 0.182070 16.000000 0.004061 170.000000 0.138858 175.000000 0.120597
166365.000000 1.462151 279.000000 302.000000 230.000000 0.097309 258.000000 0.148766 265.000000 0.133028 285.000000 0.104282 14.000000 0.011995 180.000000 0.126167 192.000000 0.053988
166885.000000 2.363400 218.000000 631.000000 344.000000 -1.241062 435.000000 0.569533 478.000000 -0.031085 620.000000 -0.098382 16.000000 0.052379 310.000000 1.436853 344.000000 -1.241062
169540.000000 2.310064 872.000000 331.000000 98.000000 -1.467302 216.000000 0.298279 300.000000 -0.022819 315.000000 -0.011269 11.000000 0.270426 179.000000 0.325770 207.000000 0.256461
171045.000000 1.532289 282.000000 311.000000 175.000000 0.044922 205.000000 0.097258 225.000000 0.036662 298.000000 0.117823 13.000000 -0.064841 185.000000 0.074264 196.000000 0.065282
171654.000000 1.445266 298.000000 302.000000 209.000000 0.081193 249.000000 0.210283 262.000000 0.123856 288.000000 0.161769 14.000000 -0.063997 176.000000 0.140241 187.000000 0.133341
184002.000000 1.721207 253.000000 311.000000 179.000000 0.258107 199.000000 0.343512 266.000000 0.023150 300.000000 -0.107523 10.000000 -0.218668 169.000000 0.279582 179.000000 0.258107
197564.000000 2.192194 277.000000 318.000000 95.000000 -1.342183 209.000000 0.383900 241.000000 0.245423 302.000000 0.167555 19.000000 -0.204796 184.000000 0.338115 241.000000 0.245423
197882.000000 1.416865 318.000000 302.000000 245.000000 0.076162 275.000000 0.151052 274.000000 0.142243 281.000000 0.119813 15.000000 -0.060658 179.000000 0.086162 201.000000 -0.002007
198461.000000 1.377195 277.000000 301.000000 150.000000 -0.034346 189.000000 0.198165 209.000000 0.094938 286.000000 -0.090031 16.000000 -0.019357 176.000000 0.192521 209.000000 0.094938
202118.000000 2.236082 337.000000 302.000000 232.000000 0.083608 257.000000 0.114329 274.000000 0.083340 281.000000 0.075942 20.000000 0.420081 20.000000 0.420081 30.000000 0.259831
215239.000000 2.267054 306.000000 307.000000 92.000000 -1.482574 192.000000 0.460546 278.000000 0.039797 293.000000 0.058636 9.000000 1.306067 20.000000 0.438764 93.000000 -1.507810
254097.000000 2.298324 249.000000 323.000000 84.000000 -1.313325 194.000000 0.305672 271.000000 0.006615 310.000000 0.021035 16.000000 -0.124623 168.000000 0.309464 181.000000 0.295139
266867.000000 2.153605 273.000000 318.000000 92.000000 -1.436337 196.000000 0.222742 261.000000 -0.017869 302.000000 0.017601 21.000000 -0.278526 172.000000 0.275314 185.000000 0.164435
277671.000000 2.295173 270.000000 325.000000 94.000000 -1.464185 215.000000 0.461143 250.000000 0.240344 313.000000 -0.043996 10.000000 0.275345 192.000000 0.421818 250.000000 0.240344
282736.000000 2.421174 247.000000 295.000000 81.000000 -1.540962 184.000000 0.420074 263.000000 -0.271680 282.000000 -0.306695 10.000000 0.144434 172.000000 0.364243 263.000000 -0.271680
284197.000000 2.256320 257.000000 319.000000 83.000000 -1.715955 193.000000 0.261596 254.000000 0.097522 293.000000 0.112617 18.000000 -0.024778 187.000000 0.267019 254.000000 0.097522
284781.000000 1.829042 265.000000 284.000000 204.000000 0.131381 227.000000 0.212211 233.000000 0.191709 266.000000 0.168324 14.000000 -0.039452 167.000000 0.132463 184.000000 0.142635
285065.000000 1.598433 284.000000 265.000000 220.000000 0.236486 244.000000 0.289512 245.000000 0.272788 247.000000 0.243854 14.000000 -0.030204 154.000000 0.158837 174.000000 0.151377
285330.000000 1.727442 265.000000 300.000000 235.000000 0.147948 260.000000 0.293432 276.000000 0.230313 282.000000 0.220643 15.000000 -0.044925 165.000000 0.172667 188.000000 0.093046
285630.000000 1.519280 300.000000 253.000000 196.000000 0.190252 213.000000 0.273386 229.000000 0.230910 233.000000 0.218496 15.000000 0.042147 20.000000 0.054215 34.000000 0.010842
286148.000000 1.584454 265.000000 289.000000 234.000000 0.198604 253.000000 0.224057 268.000000 0.171205 273.000000 0.162114 15.000000 -0.033902 168.000000 0.172933 190.000000 0.098042
286696.000000 1.681144 259.000000 263.000000 210.000000 0.250642 234.000000 0.311941 244.000000 0.299370 250.000000 0.305169 15.000000 0.002051 154.000000 0.215685 181.000000 0.204575
286959.000000 1.612756 263.000000 186.000000 97.000000 -0.830486 165.000000 1.037304 161.000000 0.696739 168.000000 1.354546 13.000000 -0.043435 20.000000 -0.057572 36.000000 -0.223670
287419.000000 1.573402 274.000000 277.000000 101.000000 -0.761253 169.000000 0.266023 199.000000 0.034753 260.000000 0.131960 13.000000 0.080689 164.000000 0.299376 199.000000 0.034753
288487.000000 1.605249 273.000000 302.000000 209.000000 -0.093119 241.000000 0.104953 264.000000 -0.008181 285.000000 0.125156 16.000000 -0.100659 145.000000 0.042946 167.000000 -0.109421
288789.000000 1.711159 302.000000 252.000000 203.000000 0.213997 222.000000 0.297071 234.000000 0.241631 235.000000 0.206364 8.000000 1.251535 20.000000 0.707757 107.000000 -0.988293
289041.000000 1.773244 252.000000 245.000000 180.000000 0.196349 210.000000 0.283824 226.000000 0.264404 227.000000 0.253996 14.000000 0.033540 145.000000 0.063889 180.000000 0.196349
289286.000000 1.770517 245.000000 291.000000 144.000000 0.030845 175.000000 0.195749 184.000000 0.137693 279.000000 -0.100157 14.000000 -0.029529 170.000000 0.188931 184.000000 0.137693
290750.000000 1.696537 261.000000 276.000000 104.000000 -0.702476 169.000000 0.169358 192.000000 0.071898 260.000000 0.007914 14.000000 -0.106349 163.000000 0.106240 192.000000 0.071898
291268.000000 1.556287 242.000000 292.000000 210.000000 0.093698 244.000000 0.166616 258.000000 0.089829 276.000000 0.126709 14.000000 0.114452 167.000000 0.168919 185.000000 0.059861
291560.000000 1.340018 292.000000 302.000000 253.000000 0.060719 270.000000 0.148822 282.000000 0.069481 283.000000 0.070265 14.000000 -0.092177 163.000000 0.194309 180.000000 0.121644
291862.000000 1.625941 302.000000 271.000000 199.000000 0.178870 226.000000 0.341926 245.000000 0.249403 252.000000 0.202805 19.000000 0.364155 20.000000 0.340550 107.000000 -0.959370
292375.000000 1.717272 242.000000 267.000000 219.000000 0.135831 242.000000 0.269357 250.000000 0.223166 252.000000 0.238825 13.000000 -0.068071 159.000000 0.087429 180.000000 0.113369
292642.000000 1.794076 267.000000 249.000000 200.000000 0.220204 227.000000 0.319781 228.000000 0.283386 233.000000 0.241615 15.000000 -0.085580 148.000000 0.023056 174.000000 0.208622
293466.000000 1.770266 273.000000 274.000000 195.000000 0.149591 230.000000 0.287036 251.000000 0.221128 256.000000 0.186035 14.000000 -0.105345 159.000000 0.169199 195.000000 0.149591
294608.000000 1.806944 297.000000 203.000000 113.000000 -0.950358 182.000000 1.268434 187.000000 1.688763 194.000000 2.262257 17.000000 0.009671 20.000000 0.005126 41.000000 -0.150014
294811.000000 2.679326 203.000000 336.000000 184.000000 0.221933 206.000000 0.250239 258.000000 0.033576 317.000000 -0.023966 18.000000 0.016912 170.000000 0.437855 185.000000 0.202779
298119.000000 1.930957 257.000000 181.000000 92.000000 -0.900536 160.000000 1.167740 158.000000 0.907709 165.000000 1.681894 9.000000 -0.408918 20.000000 -0.136254 35.000000 -0.299107
299415.000000 1.947996 272.000000 252.000000 191.000000 0.234560 215.000000 0.347710 229.000000 0.241629 229.000000 0.241629 17.000000 -0.022381 150.000000 0.086365 194.000000 0.231598
299667.000000 1.893495 252.000000 305.000000 264.000000 0.054264 283.000000 0.116756 288.000000 0.116333 288.000000 0.116333 17.000000 -0.009405 168.000000 0.125555 178.000000 0.032105
300237.000000 1.831363 265.000000 249.000000 172.000000 0.218620 215.000000 0.327726 227.000000 0.284498 229.000000 0.302852 14.000000 -0.060251 145.000000 0.089969 172.000000 0.218620
301002.000000 2.201928 329.000000 236.000000 187.000000 0.420675 215.000000 1.558841 210.000000 1.181788 217.000000 1.712619 11.000000 0.583214 20.000000 0.558291 51.000000 -0.010111
302980.000000 1.803307 261.000000 323.000000 104.000000 -0.750424 194.000000 0.198684 206.000000 0.025723 304.000000 0.112148 15.000000 -0.080658 192.000000 0.179875 206.000000 0.025723
303575.000000 1.641958 272.000000 269.000000 204.000000 0.117160 231.000000 0.190654 250.000000 0.176941 251.000000 0.180123 15.000000 -0.024922 160.000000 0.059794 204.000000 0.117160
303844.000000 1.759245 269.000000 198.000000 156.000000 0.190470 177.000000 1.071004 174.000000 0.743261 181.000000 1.437978 17.000000 -0.012933 22.000000 -0.049829 36.000000 -0.174922
304042.000000 2.832197 198.000000 306.000000 77.000000 -1.378104 184.000000 0.289531 217.000000 0.154435 285.000000 -0.001770 17.000000 0.043262 172.000000 0.288559 217.000000 0.154435
306666.000000 1.862588 266.000000 182.000000 95.000000 -0.760124 161.000000 1.017476 132.000000 0.041677 139.000000 0.106472 14.000000 -0.108069 20.000000 -0.188917 29.000000 -0.293699
307427.000000 1.871335 259.000000 305.000000 243.000000 0.164906 268.000000 0.188620 285.000000 0.169812 285.000000 0.169812 15.000000 -0.003995 182.000000 0.113286 206.000000 0.120702
307732.000000 1.846521 305.000000 269.000000 213.000000 0.234138 245.000000 0.277602 254.000000 0.242963 263.000000 0.702084 17.000000 0.005815 160.000000 0.090318 213.000000 0.234138
308001.000000 1.910330 269.000000 319.000000 176.000000 0.046807 192.000000 0.078702 198.000000 0.062073 302.000000 0.068620 8.000000 0.008012 167.000000 0.092700 176.000000 0.046807
308614.000000 2.594011 294.000000 289.000000 96.000000 -0.999429 191.000000 0.174749 199.000000 0.130219 279.000000 -0.068839 13.000000 0.553540 20.000000 0.345484 31.000000 0.133335
311505.000000 2.548007 546.000000 320.000000 175.000000 0.426489 203.000000 0.545642 281.000000 0.043010 309.000000 -0.037945 17.000000 -0.093200 186.000000 0.479592 281.000000 0.043010
312130.000000 2.373558 305.000000 320.000000 69.000000 -1.459496 197.000000 0.482935 275.000000 0.060456 310.000000 -0.015578 24.000000 -0.343933 191.000000 0.492026 275.000000 0.060456
316936.000000 1.921039 274.000000 315.000000 253.000000 0.091440 293.000000 0.137320 295.000000 0.127163 302.000000 1.412147 16.000000 -0.008729 173.000000 0.113600 183.000000 0.067943
318385.000000 1.711788 272.000000 291.000000 204.000000 0.173059 243.000000 0.288980 252.000000 0.192726 274.000000 0.164873 18.000000 0.036003 171.000000 0.135975 204.000000 0.173059
318676.000000 1.694088 291.000000 301.000000 226.000000 0.133214 251.000000 0.214703 271.000000 0.117180 280.000000 0.137854 16.000000 -0.076567 168.000000 0.193292 188.000000 0.139531
320322.000000 1.536912 291.000000 203.000000 107.000000 -0.874846 182.000000 0.897445 179.000000 0.687287 186.000000 1.101992 14.000000 -0.095234 21.000000 -0.008386 34.000000 -0.049280
320525.000000 2.170016 203.000000 328.000000 175.000000 0.286536 198.000000 0.294247 227.000000 0.182380 314.000000 0.168399 18.000000 0.002508 166.000000 0.349341 176.000000 0.272899
322612.000000 2.183824 261.000000 345.000000 80.000000 -1.551459 207.000000 0.337131 223.000000 0.231724 316.000000 0.108244 26.000000 -0.393495 179.000000 0.448086 223.000000 0.231724
322957.000000 1.610595 345.000000 321.000000 205.000000 0.061163 223.000000 0.135456 249.000000 -0.011881 308.000000 -0.004686 18.000000 -0.023010 171.000000 0.177214 207.000000 0.097324
323558.000000 1.595910 280.000000 299.000000 101.000000 -0.815033 194.000000 0.425204 221.000000 0.236256 286.000000 -0.052711 14.000000 0.025737 177.000000 0.285674 221.000000 0.236256
325839.000000 1.598887 291.000000 296.000000 159.000000 0.067960 180.000000 0.151989 208.000000 0.026112 285.000000 0.061411 13.000000 -0.035376 174.000000 0.157694 208.000000 0.026112
326677.000000 1.481631 258.000000 238.000000 192.000000 0.260705 217.000000 0.330440 211.000000 0.281648 218.000000 0.334373 13.000000 -0.105249 27.000000 0.031740 37.000000 -0.068434
326915.000000 1.610737 238.000000 303.000000 246.000000 0.096738 280.000000 0.213228 287.000000 0.168761 287.000000 0.168761 15.000000 0.079404 179.000000 0.190079 193.000000 0.102085
327501.000000 1.486161 283.000000 260.000000 206.000000 0.233997 234.000000 0.278809 234.000000 0.278809 241.000000 0.263464 15.000000 -0.016001 150.000000 0.098449 170.000000 0.128716
327761.000000 1.473463 260.000000 302.000000 205.000000 0.056424 238.000000 0.153996 249.000000 0.084279 285.000000 0.125785 16.000000 0.032177 178.000000 0.149447 205.000000 0.056424
328311.000000 1.555580 248.000000 212.000000 167.000000 0.410564 191.000000 0.999170 185.000000 0.575204 192.000000 1.084484 13.000000 0.062225 24.000000 0.030924 33.000000 -0.078448
328523.000000 2.209937 212.000000 320.000000 86.000000 -1.609608 192.000000 0.326533 212.000000 0.251313 306.000000 0.104074 10.000000 0.416177 172.000000 0.410013 212.000000 0.251313
328843.000000 1.881771 320.000000 256.000000 217.000000 0.194574 235.000000 0.287160 236.000000 0.311314 240.000000 0.271736 14.000000 0.564889 20.000000 0.449309 103.000000 -1.005065
329099.000000 1.476235 256.000000 314.000000 181.000000 0.134000 203.000000 0.198136 229.000000 0.066114 297.000000 0.134472 16.000000 0.056534 172.000000 0.263951 185.000000 0.163875
330285.000000 1.393667 266.000000 175.000000 93.000000 -0.761723 154.000000 0.611508 147.000000 0.413654 154.000000 0.611508 14.000000 -0.040391 24.000000 -0.111707 39.000000 -0.174575
332199.000000 2.051692 199.000000 283.000000 83.000000 -1.661945 187.000000 0.465786 209.000000 0.357557 265.000000 0.187055 10.000000 0.461564 168.000000 0.374014 179.000000 0.374627
333034.000000 1.316759 259.000000 255.000000 178.000000 0.164653 210.000000 0.259906 227.000000 0.245253 229.000000 0.209344 15.000000 0.008907 151.000000 0.114794 181.000000 0.163916
333591.000000 1.350547 302.000000 332.000000 114.000000 -0.789786 210.000000 0.142899 227.000000 0.109451 318.000000 0.068811 16.000000 -0.020503 169.000000 0.216220 201.000000 0.082194
334492.000000 1.338087 278.000000 253.000000 194.000000 0.213933 215.000000 0.249466 231.000000 0.235596 236.000000 0.216646 14.000000 -0.050297 150.000000 0.118351 180.000000 0.208180
335512.000000 1.218087 278.000000 245.000000 143.000000 0.044888 215.000000 0.250941 224.000000 0.218998 228.000000 0.254311 15.000000 -0.034468 144.000000 0.050264 221.000000 0.246834
335757.000000 1.443276 245.000000 260.000000 208.000000 0.203168 235.000000 0.268778 243.000000 0.206599 243.000000 0.206599 14.000000 0.007289 151.000000 0.132398 209.000000 0.206287
336561.000000 1.279139 272.000000 233.000000 97.000000 -0.877819 187.000000 0.294862 189.000000 0.271994 214.000000 0.225988 14.000000 0.003700 138.000000 0.070990 174.000000 0.248529
337275.000000 1.470172 237.000000 309.000000 264.000000 0.007477 288.000000 0.111692 292.000000 0.172351 299.000000 1.013056 14.000000 0.022211 162.000000 0.156600 201.000000 0.052790
337852.000000 1.536287 268.000000 215.000000 107.000000 -0.852319 194.000000 0.939219 191.000000 0.842948 198.000000 1.094563 14.000000 0.017885 20.000000 -0.003306 42.000000 -0.044043
338853.000000 1.590394 236.000000 295.000000 210.000000 0.104060 240.000000 0.216331 261.000000 0.130361 278.000000 0.125439 13.000000 -0.000671 168.000000 0.120646 181.000000 0.100661
340696.000000 1.239985 249.000000 267.000000 188.000000 0.170005 222.000000 0.353389 244.000000 0.202135 246.000000 0.218938 16.000000 0.092574 155.000000 0.094614 188.000000 0.170005
342411.000000 1.567587 279.000000 281.000000 200.000000 0.116712 222.000000 0.275002 255.000000 0.209093 262.000000 0.230175 14.000000 -0.059091 167.000000 0.179627 183.000000 0.124674
342959.000000 1.519313 267.000000 288.000000 203.000000 0.125861 238.000000 0.259248 242.000000 0.214107 272.000000 0.237319 13.000000 -0.118806 167.000000 0.195881 185.000000 0.178825
343500.000000 1.514344 253.000000 302.000000 217.000000 0.030297 243.000000 0.119138 266.000000 0.057460 291.000000 1.287538 15.000000 0.077697 147.000000 0.084351 178.000000 -0.007372
344067.000000 1.496522 265.000000 347.000000 281.000000 -0.054545 324.000000 0.100002 315.000000 0.047995 322.000000 0.062713 15.000000 -0.024606 191.000000 0.192460 219.000000 0.017445
345196.000000 2.263730 193.000000 303.000000 67.000000 -1.393243 184.000000 0.322995 225.000000 0.198354 291.000000 0.079245 27.000000 -0.206583 172.000000 0.363685 183.000000 0.314751
346941.000000 2.417758 203.000000 166.000000 78.000000 -1.349782 136.000000 0.060298 131.000000 0.014656 138.000000 0.046927 26.000000 -0.157775 20.000000 -0.057838 82.000000 -1.426677
348194.000000 1.563998 261.000000 270.000000 215.000000 0.191928 235.000000 0.297711 248.000000 0.262242 254.000000 0.279751 14.000000 -0.017225 161.000000 0.132492 179.000000 0.140174
349024.000000 1.576836 282.000000 300.000000 215.000000 0.146831 245.000000 0.192176 274.000000 0.134214 280.000000 0.134857 15.000000 -0.045079 179.000000 0.175795 215.000000 0.146831
349324.000000 1.629701 300.000000 247.000000 197.000000 0.233983 226.000000 0.266584 222.000000 0.245597 229.000000 0.202900 16.000000 -0.034842 147.000000 0.105848 164.000000 0.148246
349805.000000 1.576975 234.000000 287.000000 134.000000 -0.013039 177.000000 0.258791 193.000000 0.174419 277.000000 -0.134186 15.000000 0.057100 171.000000 0.251081 193.000000 0.174419
351017.000000 1.380833 300.000000 259.000000 178.000000 0.182950 220.000000 0.329264 237.000000 0.326222 242.000000 0.293401 14.000000 -0.151674 23.000000 0.068058 34.000000 -0.087070
352389.000000 1.510204 253.000000 197.000000 100.000000 -0.795657 176.000000 1.165315 159.000000 0.340643 166.000000 0.490362 17.000000 0.010002 21.000000 -0.021817 104.000000 -0.787460
353151.000000 1.575174 252.000000 262.000000 190.000000 0.270456 210.000000 0.349719 235.000000 0.286114 243.000000 0.256034 14.000000 -0.023384 155.000000 0.216521 184.000000 0.275440
353673.000000 1.668540 260.000000 260.000000 210.000000 0.132729 233.000000 0.206535 242.000000 0.169607 246.000000 0.197101 14.000000 -0.041193 155.000000 0.028950 169.000000 0.056239
353933.000000 1.609859 260.000000 249.000000 209.000000 0.219341 225.000000 0.264232 229.000000 0.232492 231.000000 0.268887 15.000000 -0.010297 148.000000 0.059043 186.000000 0.174153
354182.000000 1.655172 249.000000 236.000000 146.000000 0.061821 186.000000 0.218780 195.000000 0.167430 220.000000 0.190110 13.000000 0.007429 140.000000 0.084688 147.000000 0.037212
354418.000000 1.549891 236.000000 262.000000 202.000000 0.171428 233.000000 0.263012 241.000000 0.195882 242.000000 0.190161 13.000000 0.026286 22.000000 0.085125 35.000000 0.000549
354680.000000 1.614157 262.000000 248.000000 174.000000 0.156346 210.000000 0.224151 215.000000 0.182426 232.000000 0.195577 16.000000 -0.000377 145.000000 0.005955 174.000000 0.156346
354928.000000 1.729731 248.000000 281.000000 198.000000 0.068714 227.000000 0.182335 239.000000 0.163465 263.000000 0.156492 12.000000 0.028038 167.000000 0.111191 198.000000 0.068714
355209.000000 1.656759 281.000000 343.000000 104.000000 -0.734496 209.000000 0.096856 226.000000 0.007167 331.000000 0.090770 17.000000 0.001351 179.000000 0.180930 226.000000 0.007167
356153.000000 2.550848 295.000000 242.000000 97.000000 -0.775845 195.000000 0.223357 211.000000 0.141552 227.000000 0.150471 14.000000 0.546068 20.000000 0.374092 28.000000 0.090488
356628.000000 1.738795 233.000000 241.000000 185.000000 0.162934 206.000000 0.217024 220.000000 0.163746 226.000000 0.185142 13.000000 -0.071126 20.000000 0.033796 29.000000 -0.062081
356869.000000 1.728088 241.000000 260.000000 205.000000 0.141006 230.000000 0.237667 239.000000 0.202620 240.000000 0.211617 14.000000 -0.035735 155.000000 0.039610 179.000000 0.130035
357387.000000 1.774421 258.000000 292.000000 224.000000 0.120467 245.000000 0.214072 255.000000 0.156689 274.000000 0.127553 14.000000 -0.038073 167.000000 0.162395 181.000000 0.110059
357679.000000 1.675734 292.000000 263.000000 192.000000 0.126442 223.000000 0.260190 229.000000 0.231318 249.000000 0.203450 14.000000 -0.010630 156.000000 0.074248 176.000000 0.150925
358166.000000 1.820689 224.000000 229.000000 92.000000 -0.650032 163.000000 0.222304 186.000000 0.151427 212.000000 0.202508 14.000000 0.030831 24.000000 0.065800 33.000000 -0.026207
358395.000000 1.767147 229.000000 297.000000 219.000000 -0.036270 270.000000 0.123541 277.000000 0.065438 279.000000 0.079749 18.000000 0.023293 167.000000 0.041362 184.000000 0.008431
358692.000000 2.404420 297.000000 246.000000 174.000000 0.092211 224.000000 0.250330 219.000000 0.236663 226.000000 0.224531 16.000000 0.515516 20.000000 0.401001 102.000000 -0.827180
358938.000000 1.820972 246.000000 186.000000 97.000000 -0.761631 165.000000 1.027978 158.000000 0.380282 165.000000 1.027978 15.000000 0.039811 20.000000 0.001629 34.000000 -0.186694
359416.000000 1.730703 292.000000 215.000000 103.000000 -0.849985 194.000000 1.388746 165.000000 0.252397 172.000000 0.326709 15.000000 0.026455 22.000000 0.069841 57.000000 -0.246209
359631.000000 2.872868 215.000000 358.000000 187.000000 0.283780 221.000000 0.269643 263.000000 0.021364 343.000000 0.154388 24.000000 -0.108762 179.000000 0.330349 187.000000 0.283780
359989.000000 2.476819 358.000000 302.000000 105.000000 -0.843982 212.000000 0.095531 253.000000 0.018744 289.000000 0.036534 11.000000 0.528277 20.000000 0.477352 105.000000 -0.843982
360820.000000 1.753686 257.000000 222.000000 98.000000 -0.796584 178.000000 0.247742 186.000000 0.208039 209.000000 0.253979 14.000000 -0.049043 28.000000 -0.025706 31.000000 -0.071882
361042.000000 1.784452 222.000000 249.000000 187.000000 0.069077 209.000000 0.160754 229.000000 0.070722 234.000000 0.086850 14.000000 0.095472 22.000000 0.127824 39.000000 0.000772
361291.000000 1.685172 249.000000 271.000000 99.000000 -0.648185 169.000000 0.157617 196.000000 0.075940 254.000000 0.189751 13.000000 -0.122290 161.000000 0.121895 196.000000 0.075940
361562.000000 1.791005 271.000000 348.000000 229.000000 0.089351 257.000000 0.153901 286.000000 0.050754 331.000000 0.111506 17.000000 -0.034044 186.000000 0.133084 210.000000 0.078333
361910.000000 1.667682 348.000000 198.000000 102.000000 -0.718668 177.000000 1.050111 178.000000 1.145612 185.000000 1.742823 19.000000 -0.034576 20.000000 -0.037366 45.000000 -0.250816
362634.000000 1.765503 238.000000 290.000000 199.000000 0.105269 230.000000 0.193168 235.000000 0.164735 275.000000 0.137150 13.000000 -0.077553 169.000000 0.117025 174.000000 0.068735
362924.000000 1.704749 290.000000 245.000000 96.000000 -0.755051 200.000000 0.199563 208.000000 0.147981 227.000000 0.173214 13.000000 -0.032431 145.000000 0.038449 195.000000 0.149767
363404.000000 1.845894 235.000000 233.000000 93.000000 -0.675874 186.000000 0.203180 195.000000 0.128134 214.000000 0.176692 14.000000 0.040551 20.000000 0.011836 36.000000 -0.020279
363637.000000 1.719671 233.000000 307.000000 179.000000 0.098161 205.000000 0.156473 227.000000 0.120299 291.000000 0.120472 18.000000 0.035956 182.000000 0.119306 195.000000 0.098306
363944.000000 1.584030 307.000000 294.000000 207.000000 0.101912 240.000000 0.174468 247.000000 0.162556 272.000000 0.105409 14.000000 -0.086330 175.000000 0.124418 207.000000 0.101912
364238.000000 1.711677 294.000000 205.000000 103.000000 -0.718635 184.000000 1.046065 177.000000 0.444216 184.000000 1.046065 20.000000 0.003762 25.000000 0.005142 61.000000 -0.296519
365033.000000 1.693587 265.000000 231.000000 171.000000 0.231440 206.000000 0.310374 213.000000 0.269058 213.000000 0.269058 13.000000 -0.094703 38.000000 -0.004684 96.000000 -0.754277
365264.000000 1.829420 231.000000 238.000000 174.000000 0.149858 203.000000 0.207525 218.000000 0.173686 223.000000 0.160019 16.000000 0.068135 20.000000 0.040094 31.000000 -0.028227
365743.000000 1.862775 241.000000 211.000000 172.000000 0.208634 190.000000 0.705563 185.000000 0.476864 192.000000 0.806614 14.000000 -0.037117 20.000000 0.024451 34.000000 -0.094530
366266.000000 1.691206 312.000000 290.000000 198.000000 0.144530 226.000000 0.212400 244.000000 0.163185 275.000000 0.154782 13.000000 -0.035173 168.000000 0.209061 185.000000 0.135800
