243.000000 2.054684 243.000000 449.000000 410.000000 -0.053417 428.000000 0.167869 422.000000 -0.065753 429.000000 0.242822 25.000000 -0.181600 149.000000 0.060672 161.000000 0.025986
1552.000000 2.141080 434.000000 436.000000 382.000000 -0.008561 415.000000 0.083165 415.000000 0.083165 422.000000 0.138321 24.000000 -0.195845 146.000000 0.084402 178.000000 -0.066849
3307.000000 2.209186 423.000000 436.000000 362.000000 -0.022800 415.000000 0.128039 409.000000 -0.034341 416.000000 0.222554 23.000000 -0.185110 134.000000 0.052039 158.000000 -0.048999
5457.000000 1.939843 864.000000 421.000000 366.000000 -0.010029 400.000000 0.224971 397.000000 0.010347 404.000000 0.304705 19.000000 -0.173462 144.000000 0.105902 177.000000 -0.052323
5878.000000 2.192980 421.000000 448.000000 406.000000 -0.047570 427.000000 0.313557 422.000000 -0.020455 429.000000 0.347978 22.000000 -0.202791 136.000000 0.056502 159.000000 -0.069895
6756.000000 2.094373 430.000000 443.000000 402.000000 -0.058887 422.000000 0.270989 417.000000 -0.062962 424.000000 0.330708 19.000000 -0.175519 140.000000 0.063039 159.000000 -0.040583
7633.000000 2.054373 434.000000 439.000000 391.000000 0.042323 418.000000 0.219152 413.000000 -0.095265 420.000000 0.339089 19.000000 -0.235568 141.000000 0.068557 158.000000 -0.041584
8072.000000 2.202304 439.000000 427.000000 371.000000 -0.024072 406.000000 0.118776 404.000000 -0.045753 411.000000 0.376957 20.000000 -0.241879 136.000000 0.064188 164.000000 -0.068507
8936.000000 2.252258 437.000000 419.000000 382.000000 -0.046397 398.000000 0.056396 394.000000 -0.076991 401.000000 0.355205 20.000000 -0.290298 135.000000 0.076381 157.000000 -0.088291
10220.000000 1.989893 428.000000 440.000000 382.000000 -0.024139 419.000000 0.176801 411.000000 -0.042431 418.000000 0.061926 23.000000 -0.177286 145.000000 0.079115 177.000000 -0.027497
14100.000000 1.888778 430.000000 427.000000 374.000000 0.028967 406.000000 0.283229 401.000000 -0.063479 408.000000 0.388652 27.000000 -0.106129 146.000000 0.121213 183.000000 -0.027016
14981.000000 2.163828 454.000000 438.000000 379.000000 0.004017 417.000000 0.276742 413.000000 -0.037584 420.000000 0.416398 19.000000 -0.219746 140.000000 0.084862 165.000000 -0.035561
15419.000000 1.943513 438.000000 446.000000 389.000000 0.028777 425.000000 0.201065 423.000000 0.031551 430.000000 0.305062 22.000000 -0.140136 146.000000 0.095473 178.000000 -0.045291
15865.000000 2.054873 446.000000 450.000000 391.000000 -0.040497 429.000000 0.212869 427.000000 0.058559 434.000000 0.276223 22.000000 -0.153998 142.000000 0.082029 159.000000 -0.025071
18089.000000 1.887306 890.000000 448.000000 393.000000 0.003464 427.000000 0.181864 420.000000 -0.043809 427.000000 0.181864 21.000000 -0.123543 141.000000 0.084936 170.000000 -0.024142
18983.000000 1.958809 446.000000 433.000000 376.000000 0.009107 412.000000 0.304765 405.000000 -0.072226 412.000000 0.304765 17.000000 -0.286299 138.000000 0.065556 160.000000 -0.047956
19416.000000 1.967369 433.000000 452.000000 393.000000 -0.033635 431.000000 0.246079 426.000000 -0.059469 433.000000 0.346063 27.000000 -0.138821 146.000000 0.064856 161.000000 0.004933
20772.000000 2.169309 904.000000 449.000000 357.000000 -0.067869 428.000000 0.077398 426.000000 -0.027148 433.000000 0.340831 22.000000 -0.180498 135.000000 0.062752 157.000000 -0.093708
22093.000000 2.050154 443.000000 439.000000 355.000000 -0.057433 393.000000 0.071988 413.000000 -0.035127 422.000000 0.386488 19.000000 -0.182700 134.000000 0.077519 157.000000 -0.090414
22532.000000 2.182319 439.000000 456.000000 400.000000 -0.003578 435.000000 0.311615 440.000000 0.071490 440.000000 0.071490 22.000000 -0.169608 142.000000 0.086998 172.000000 -0.035216
22988.000000 1.654704 456.000000 433.000000 290.000000 -0.134361 393.000000 0.042071 406.000000 -0.034308 414.000000 0.209970 12.000000 -0.020658 236.000000 0.045180 290.000000 -0.134361
24362.000000 2.065109 465.000000 453.000000 396.000000 -0.000956 432.000000 0.141378 429.000000 -0.063434 436.000000 0.411363 21.000000 -0.265066 146.000000 0.059416 179.000000 -0.073453
24815.000000 1.925829 453.000000 437.000000 381.000000 0.007885 416.000000 0.196177 408.000000 -0.051926 415.000000 0.106350 19.000000 -0.152654 210.000000 0.042602 228.000000 -0.009701
25252.000000 2.187462 437.000000 436.000000 395.000000 -0.017021 415.000000 0.268277 411.000000 -0.025532 418.000000 0.421913 26.000000 -0.133026 134.000000 0.047176 163.000000 -0.086652
25688.000000 1.884826 436.000000 420.000000 359.000000 0.029731 399.000000 0.146628 392.000000 -0.020348 399.000000 0.146628 21.000000 -0.146020 142.000000 0.062601 175.000000 -0.025004
26108.000000 2.248934 420.000000 431.000000 359.000000 0.000485 410.000000 0.110660 406.000000 -0.032836 413.000000 0.354500 27.000000 -0.157082 214.000000 0.051802 227.000000 0.024810
27852.000000 1.860080 900.000000 425.000000 371.000000 -0.022075 404.000000 0.215749 398.000000 -0.071495 405.000000 0.300248 18.000000 -0.184669 140.000000 0.084049 147.000000 0.003079
30450.000000 1.940125 876.000000 437.000000 349.000000 -0.058632 395.000000 0.049941 404.000000 -0.069416 419.000000 0.206632 24.000000 -0.136350 218.000000 0.056161 231.000000 0.042131
32196.000000 2.138196 442.000000 445.000000 388.000000 -0.019092 424.000000 0.100908 415.000000 -0.024688 422.000000 -0.043810 24.000000 -0.146272 139.000000 0.065119 168.000000 -0.056498
33517.000000 2.107710 433.000000 439.000000 385.000000 0.002948 418.000000 0.105723 416.000000 -0.028947 423.000000 0.369892 23.000000 -0.157068 139.000000 0.055176 157.000000 -0.091768
35689.000000 2.177758 424.000000 438.000000 400.000000 -0.045265 417.000000 0.227447 413.000000 -0.071221 420.000000 0.416678 24.000000 -0.144874 248.000000 0.061193 286.000000 -0.054544
36127.000000 2.130455 438.000000 906.000000 847.000000 -0.021600 885.000000 0.296838 876.000000 -0.044025 883.000000 0.116760 19.000000 -0.185267 458.000000 2.163402 484.000000 -0.141396
37033.000000 1.961429 906.000000 447.000000 391.000000 0.001664 426.000000 0.176818 420.000000 -0.047601 427.000000 0.271598 25.000000 -0.135313 143.000000 0.068013 173.000000 -0.041377
37480.000000 2.171755 447.000000 454.000000 397.000000 -0.005049 433.000000 0.181693 429.000000 -0.032571 436.000000 0.375784 24.000000 -0.194295 222.000000 0.056173 236.000000 0.048447
37934.000000 2.006082 454.000000 436.000000 376.000000 -0.037633 415.000000 0.345629 409.000000 -0.064309 416.000000 0.385488 22.000000 -0.177260 142.000000 0.053869 158.000000 -0.064690
38370.000000 2.111944 436.000000 455.000000 396.000000 -0.021742 434.000000 0.137649 428.000000 -0.051881 435.000000 0.227617 23.000000 -0.237634 149.000000 0.061672 178.000000 -0.021919
41088.000000 1.765249 452.000000 428.000000 371.000000 -0.001834 407.000000 0.276033 402.000000 -0.086819 409.000000 0.355000 21.000000 -0.171520 141.000000 0.045272 162.000000 -0.082783
41516.000000 2.052368 428.000000 863.000000 803.000000 -0.021801 842.000000 0.281129 826.000000 -0.051474 833.000000 -0.009248 25.000000 -0.184326 443.000000 1.944375 471.000000 -0.142318
43680.000000 1.941491 433.000000 429.000000 391.000000 -0.054858 408.000000 0.092728 404.000000 -0.075940 411.000000 0.302164 23.000000 -0.143652 147.000000 0.067102 174.000000 -0.016943
44975.000000 2.216255 419.000000 447.000000 388.000000 0.003135 426.000000 0.149405 419.000000 -0.036285 426.000000 0.149405 22.000000 -0.169374 144.000000 0.043573 176.000000 -0.072637
45862.000000 1.947521 440.000000 436.000000 396.000000 0.003779 415.000000 0.286786 410.000000 -0.015438 417.000000 0.375611 22.000000 -0.166931 219.000000 0.067780 227.000000 0.034128
46298.000000 2.029811 436.000000 447.000000 381.000000 0.036632 426.000000 0.194454 424.000000 0.027542 431.000000 0.283749 21.000000 -0.125159 144.000000 0.098100 180.000000 -0.006808
47608.000000 2.194029 439.000000 449.000000 389.000000 -0.012542 428.000000 0.183103 426.000000 -0.000769 433.000000 0.305783 21.000000 -0.172852 144.000000 0.067481 163.000000 -0.046157
48057.000000 1.868165 449.000000 435.000000 396.000000 -0.065955 414.000000 0.256114 410.000000 -0.052586 417.000000 0.350440 22.000000 -0.120324 137.000000 0.086689 159.000000 -0.045922
48492.000000 2.208981 435.000000 436.000000 331.000000 -0.058007 389.000000 0.066647 407.000000 -0.037022 416.000000 0.125127 21.000000 -0.202085 206.000000 0.042846 218.000000 0.027644
48928.000000 2.182935 436.000000 418.000000 364.000000 -0.031159 397.000000 0.202165 392.000000 -0.046646 399.000000 0.321914 20.000000 -0.141064 226.000000 0.047257 237.000000 0.026033
49787.000000 2.195895 441.000000 423.000000 368.000000 -0.018996 402.000000 0.149640 396.000000 -0.054763 403.000000 0.239625 23.000000 -0.198888 210.000000 0.046133 213.000000 0.014832
50645.000000 2.347554 435.000000 429.000000 366.000000 -0.015329 408.000000 0.224626 404.000000 -0.059685 411.000000 0.363999 22.000000 -0.169110 143.000000 0.052781 178.000000 -0.032662
51074.000000 1.970095 429.000000 433.000000 344.000000 -0.064670 386.000000 0.073838 405.000000 -0.043997 414.000000 0.202806 22.000000 -0.157555 146.000000 0.061032 185.000000 -0.016165
51507.000000 2.354216 433.000000 444.000000 392.000000 -0.017879 423.000000 0.173577 418.000000 -0.073163 425.000000 0.307495 23.000000 -0.152524 207.000000 0.033334 214.000000 -0.002543
51951.000000 2.141175 444.000000 430.000000 368.000000 -0.009480 409.000000 0.070469 408.000000 -0.004546 415.000000 0.335360 22.000000 -0.132760 133.000000 0.044679 156.000000 -0.043692
53666.000000 2.230878 421.000000 438.000000 350.000000 -0.019668 417.000000 0.136807 411.000000 -0.025339 418.000000 0.236211 26.000000 -0.152789 145.000000 0.045127 172.000000 -0.060175
54533.000000 2.147820 429.000000 446.000000 396.000000 0.037490 425.000000 0.232536 423.000000 0.064950 430.000000 0.241361 24.000000 -0.191460 240.000000 0.048793 265.000000 0.033432
54979.000000 1.836973 446.000000 414.000000 325.000000 -0.025755 370.000000 0.076454 386.000000 -0.023906 396.000000 0.315388 21.000000 -0.080019 132.000000 0.111538 161.000000 -0.061692
56275.000000 1.796600 445.000000 435.000000 345.000000 -0.041442 391.000000 0.065362 394.000000 0.033231 401.000000 -0.035625 30.000000 -0.142066 142.000000 0.077977 159.000000 -0.041365
56710.000000 2.134845 435.000000 434.000000 375.000000 -0.023824 413.000000 0.237414 408.000000 -0.073808 415.000000 0.367602 26.000000 -0.161345 139.000000 0.087533 167.000000 -0.040647
57144.000000 1.922869 434.000000 426.000000 329.000000 -0.036974 379.000000 0.087178 391.000000 -0.016944 407.000000 0.206251 21.000000 -0.187587 138.000000 0.057897 174.000000 -0.034438
58436.000000 1.910661 420.000000 437.000000 396.000000 -0.050988 416.000000 0.293524 412.000000 -0.030221 419.000000 0.367818 20.000000 -0.146408 154.000000 0.062433 188.000000 -0.004525
58873.000000 2.204843 437.000000 422.000000 376.000000 0.032932 401.000000 0.275862 396.000000 -0.072208 403.000000 0.385329 20.000000 -0.227256 138.000000 0.053519 159.000000 -0.062528
59295.000000 1.899485 422.000000 426.000000 373.000000 -0.004450 405.000000 0.141083 398.000000 -0.033525 405.000000 0.141083 23.000000 -0.146190 136.000000 0.059365 157.000000 -0.053598
62732.000000 2.103792 433.000000 420.000000 379.000000 -0.068181 399.000000 0.221020 394.000000 -0.070610 401.000000 0.344532 26.000000 -0.156128 144.000000 0.055334 159.000000 -0.028383
64008.000000 1.576146 435.000000 413.000000 373.000000 -0.048388 392.000000 0.299888 389.000000 0.020766 396.000000 0.235422 11.000000 -0.121690 140.000000 0.099548 161.000000 -0.047332
66580.000000 2.181442 435.000000 433.000000 368.000000 0.018121 412.000000 0.124657 413.000000 0.233732 420.000000 -0.006707 23.000000 -0.190440 136.000000 0.040859 158.000000 -0.087725
67013.000000 1.966709 433.000000 431.000000 372.000000 -0.032134 410.000000 0.181332 402.000000 -0.015831 409.000000 0.101818 17.000000 -0.162809 136.000000 0.089590 162.000000 -0.026870
67891.000000 2.124562 447.000000 430.000000 371.000000 0.028226 409.000000 0.277585 411.000000 0.421535 413.000000 0.380579 23.000000 -0.211491 245.000000 0.093812 284.000000 -0.028604
68321.000000 1.678699 430.000000 442.000000 390.000000 0.059830 421.000000 0.222339 415.000000 -0.030420 422.000000 0.293468 20.000000 -0.090594 149.000000 0.100029 179.000000 -0.015282
68763.000000 1.865770 442.000000 859.000000 805.000000 -0.007977 838.000000 0.267194 829.000000 -0.055768 836.000000 0.101426 22.000000 -0.149574 436.000000 1.905738 464.000000 -0.154339
70513.000000 1.920626 444.000000 432.000000 342.000000 -0.041786 385.000000 0.071098 402.000000 -0.037287 409.000000 -0.053559 20.000000 -0.165409 142.000000 0.072002 159.000000 -0.064239
70945.000000 2.169906 432.000000 438.000000 386.000000 0.009434 417.000000 0.247163 412.000000 -0.087650 419.000000 0.362100 25.000000 -0.154328 227.000000 0.060926 254.000000 0.018985
71383.000000 2.237337 438.000000 446.000000 360.000000 -0.066730 425.000000 0.357019 418.000000 -0.096742 425.000000 0.357019 22.000000 -0.193825 137.000000 0.056113 159.000000 -0.069136
72265.000000 2.337447 436.000000 877.000000 822.000000 -0.059938 856.000000 0.207101 849.000000 -0.089733 856.000000 0.207101 23.000000 -0.144435 451.000000 2.193745 476.000000 -0.148340
74005.000000 1.549628 430.000000 427.000000 388.000000 -0.058511 406.000000 0.280814 403.000000 0.043698 410.000000 0.225046 8.000000 0.487510 143.000000 0.104687 158.000000 -0.000299
75305.000000 2.012885 427.000000 443.000000 389.000000 -0.016443 422.000000 0.162019 419.000000 -0.061789 426.000000 0.354465 23.000000 -0.173858 141.000000 0.074892 169.000000 -0.040655
76663.000000 2.357132 463.000000 882.000000 830.000000 0.007301 861.000000 0.234953 856.000000 -0.059060 863.000000 0.364640 23.000000 -0.175222 439.000000 2.172348 467.000000 -0.141961
77545.000000 2.152932 882.000000 445.000000 404.000000 -0.054796 424.000000 0.234746 429.000000 0.274448 430.000000 0.164433 25.000000 -0.123164 217.000000 0.064785 237.000000 0.032039
77990.000000 2.383101 445.000000 433.000000 378.000000 -0.011065 412.000000 0.151131 397.000000 -0.017804 404.000000 -0.042256 14.000000 -0.290564 134.000000 0.050434 157.000000 -0.074986
78423.000000 2.275126 433.000000 886.000000 827.000000 -0.001660 865.000000 0.176269 859.000000 -0.063966 866.000000 0.251347 28.000000 -0.143414 450.000000 2.227339 480.000000 -0.164179
80228.000000 1.943403 461.000000 449.000000 384.000000 -0.008248 428.000000 0.307068 419.000000 -0.075191 426.000000 0.167804 21.000000 -0.159514 139.000000 0.088595 167.000000 -0.032350
81560.000000 1.919984 440.000000 446.000000 389.000000 -0.015688 425.000000 0.208560 433.000000 -0.086048 439.000000 1.050175 19.000000 -0.136143 211.000000 0.053516 230.000000 0.004004
82443.000000 1.920188 437.000000 437.000000 382.000000 0.001553 416.000000 0.146130 413.000000 -0.043650 420.000000 0.390394 22.000000 -0.099262 144.000000 0.088019 178.000000 -0.006217
83317.000000 2.012335 437.000000 431.000000 378.000000 0.000549 410.000000 0.241017 404.000000 -0.079013 411.000000 0.320971 19.000000 -0.166664 136.000000 0.051476 160.000000 -0.072725
84196.000000 2.194307 448.000000 441.000000 397.000000 -0.037742 420.000000 0.374437 416.000000 0.033308 423.000000 0.300361 20.000000 -0.195566 143.000000 0.062555 162.000000 -0.062022
84637.000000 1.829421 441.000000 446.000000 387.000000 0.017039 425.000000 0.169265 421.000000 -0.059810 428.000000 0.344014 18.000000 -0.211270 148.000000 0.064139 174.000000 0.006523
85083.000000 2.201677 446.000000 431.000000 393.000000 -0.035000 410.000000 0.272258 406.000000 -0.048949 413.000000 0.359890 21.000000 -0.166035 135.000000 0.056155 156.000000 -0.098922
85514.000000 2.055362 431.000000 433.000000 372.000000 -0.025373 412.000000 0.350296 404.000000 -0.067524 411.000000 0.280719 20.000000 -0.149435 137.000000 0.068530 158.000000 -0.069702
86385.000000 2.165063 438.000000 436.000000 383.000000 0.011064 415.000000 0.081301 409.000000 -0.069876 416.000000 0.190627 25.000000 -0.163605 131.000000 0.046865 157.000000 -0.103617
88134.000000 2.076099 448.000000 442.000000 389.000000 0.017621 421.000000 0.406004 414.000000 -0.092020 421.000000 0.406004 22.000000 -0.152960 141.000000 0.056033 162.000000 -0.083041
88576.000000 1.862384 442.000000 446.000000 385.000000 -0.001001 425.000000 0.294968 417.000000 -0.064938 424.000000 0.234842 26.000000 -0.108714 159.000000 0.082030 186.000000 -0.015353
89022.000000 2.197649 446.000000 436.000000 382.000000 -0.007253 415.000000 0.231444 402.000000 -0.050342 409.000000 -0.052002 23.000000 -0.173414 132.000000 0.056000 158.000000 -0.095312
89458.000000 1.997932 436.000000 426.000000 373.000000 -0.020751 405.000000 0.366173 399.000000 -0.073748 406.000000 0.396126 23.000000 -0.141080 140.000000 0.076528 163.000000 -0.053441
89884.000000 1.959325 426.000000 436.000000 379.000000 0.001004 415.000000 0.131017 406.000000 -0.043354 413.000000 -0.009092 28.000000 -0.123604 149.000000 0.063627 186.000000 -0.005275
90759.000000 2.040596 439.000000 418.000000 324.000000 -0.075512 374.000000 0.065753 391.000000 -0.034469 400.000000 0.257803 20.000000 -0.191250 135.000000 0.081654 160.000000 -0.046025
94209.000000 1.956991 433.000000 429.000000 387.000000 -0.053509 408.000000 0.347777 402.000000 -0.065671 409.000000 0.357557 24.000000 -0.124764 141.000000 0.061170 165.000000 -0.062421
94638.000000 2.190754 429.000000 426.000000 370.000000 0.014936 405.000000 0.118450 390.000000 -0.048386 397.000000 -0.047664 21.000000 -0.243306 136.000000 0.040517 167.000000 -0.046186
95468.000000 2.240522 404.000000 422.000000 360.000000 -0.003699 401.000000 0.335423 396.000000 0.011772 403.000000 0.319734 19.000000 -0.205106 216.000000 0.049512 228.000000 0.042976
95890.000000 2.129075 422.000000 408.000000 279.000000 -0.073040 359.000000 0.080032 379.000000 -0.047475 390.000000 0.330548 22.000000 -0.176161 143.000000 0.075847 176.000000 -0.045329
98414.000000 2.182368 414.000000 416.000000 361.000000 0.002382 395.000000 0.298716 386.000000 -0.045077 393.000000 0.128935 23.000000 -0.175219 140.000000 0.078435 158.000000 -0.069763
98830.000000 1.856771 416.000000 1214.000000 772.000000 -0.022070 805.000000 1.784877 839.000000 -0.101562 1197.000000 0.323024 21.000000 -0.118340 405.000000 2.133198 436.000000 -0.190141
100044.000000 2.112270 1214.000000 390.000000 337.000000 -0.004012 369.000000 0.236066 366.000000 0.010612 373.000000 0.326521 25.000000 -0.157871 132.000000 0.115931 159.000000 -0.032065
100434.000000 1.829984 390.000000 394.000000 323.000000 -0.045722 349.000000 0.058167 368.000000 -0.061660 377.000000 0.303651 20.000000 -0.162727 147.000000 0.133792 157.000000 0.034325
101206.000000 1.895864 378.000000 380.000000 328.000000 -0.000752 359.000000 0.310485 356.000000 0.051661 363.000000 0.199733 23.000000 -0.199668 142.000000 0.120014 154.000000 0.006613
101586.000000 1.971505 380.000000 366.000000 311.000000 -0.028727 345.000000 0.318950 336.000000 -0.092664 343.000000 0.189421 17.000000 -0.249858 135.000000 0.118416 163.000000 -0.050234
101952.000000 1.967008 366.000000 371.000000 286.000000 -0.065189 350.000000 0.163511 347.000000 -0.059091 354.000000 0.255235 28.000000 -0.190235 131.000000 0.123372 151.000000 0.001883
102323.000000 2.071803 371.000000 371.000000 316.000000 0.056160 350.000000 0.283371 346.000000 0.030581 353.000000 0.347401 22.000000 -0.194734 129.000000 0.152494 157.000000 -0.091220
102694.000000 1.964626 371.000000 361.000000 312.000000 0.079954 340.000000 0.151160 332.000000 -0.013087 339.000000 0.070956 20.000000 -0.219436 123.000000 0.114674 154.000000 -0.149573
103055.000000 1.825252 361.000000 358.000000 312.000000 -0.040876 337.000000 0.187729 338.000000 0.227635 339.000000 0.247635 20.000000 -0.216428 122.000000 0.107035 152.000000 -0.041068
103413.000000 2.030487 358.000000 352.000000 297.000000 0.059831 331.000000 0.122462 334.000000 0.311207 336.000000 0.360314 23.000000 -0.262195 135.000000 0.112881 163.000000 -0.070172
104126.000000 1.871504 361.000000 348.000000 302.000000 -0.065358 327.000000 0.089814 320.000000 -0.048069 327.000000 0.089814 20.000000 -0.218466 149.000000 0.131646 160.000000 -0.089121
104474.000000 2.369498 348.000000 354.000000 280.000000 -0.040804 333.000000 0.242300 325.000000 0.016564 332.000000 0.164681 23.000000 -0.168151 142.000000 0.077243 156.000000 -0.048743
104828.000000 2.035311 354.000000 337.000000 272.000000 -0.012775 316.000000 0.141583 311.000000 -0.052333 318.000000 0.249310 22.000000 -0.184391 136.000000 0.110347 155.000000 -0.032320
105165.000000 2.002396 337.000000 337.000000 285.000000 -0.012258 316.000000 0.119860 310.000000 -0.004075 317.000000 0.184782 20.000000 -0.200784 133.000000 0.122446 156.000000 -0.051031
105502.000000 1.903576 337.000000 335.000000 276.000000 -0.023873 314.000000 0.180576 302.000000 -0.004563 309.000000 -0.070897 21.000000 -0.176643 135.000000 0.114585 155.000000 -0.063426
105837.000000 1.933339 335.000000 338.000000 297.000000 -0.007084 317.000000 0.089783 315.000000 -0.040970 322.000000 0.307070 28.000000 -0.198560 135.000000 0.116060 155.000000 -0.075542
106175.000000 1.729921 338.000000 332.000000 281.000000 -0.046174 311.000000 0.190331 308.000000 -0.001738 315.000000 0.168010 16.000000 -0.194717 134.000000 0.083447 152.000000 -0.028636
106507.000000 2.075846 332.000000 677.000000 627.000000 -0.027900 656.000000 0.190234 648.000000 -0.020047 655.000000 0.102099 18.000000 -0.245110 344.000000 2.279266 372.000000 -0.255452
107184.000000 1.982038 677.000000 344.000000 295.000000 -0.017681 323.000000 0.161094 320.000000 -0.037087 327.000000 0.229167 21.000000 -0.153577 133.000000 0.123743 155.000000 0.011892
107874.000000 2.165879 346.000000 698.000000 316.000000 -2.206019 419.000000 1.056568 518.000000 -0.277005 680.000000 0.258197 22.000000 -0.245897 415.000000 1.101459 518.000000 -0.277005
108572.000000 2.012302 698.000000 360.000000 310.000000 -0.023295 339.000000 0.089873 332.000000 -0.017541 339.000000 0.089873 21.000000 -0.193055 140.000000 0.163529 175.000000 -0.016081
109279.000000 1.969657 347.000000 280.000000 215.000000 -2.183039 259.000000 0.620736 259.000000 0.620736 266.000000 0.675565 26.000000 -0.212396 129.000000 0.201491 167.000000 -0.115844
109884.000000 2.110174 325.000000 362.000000 299.000000 -0.042727 341.000000 0.196187 331.000000 -0.030990 338.000000 -0.001916 25.000000 -0.181899 135.000000 0.155890 182.000000 -0.055407
110246.000000 2.212615 362.000000 346.000000 295.000000 -0.064405 325.000000 0.155377 321.000000 -0.051066 328.000000 0.193103 22.000000 -0.199216 129.000000 0.106799 154.000000 -0.120381
111314.000000 2.388026 359.000000 757.000000 717.000000 -0.063479 736.000000 0.131866 732.000000 -0.049796 739.000000 0.154953 23.000000 -0.207162 367.000000 2.293806 399.000000 -0.213295
112071.000000 1.562288 757.000000 1175.000000 749.000000 -2.009716 852.000000 1.139823 933.000000 -0.239897 1168.000000 0.717759 22.000000 -0.139483 470.000000 0.669645 560.000000 -0.221134
119705.000000 2.396303 6459.000000 386.000000 315.000000 -0.023741 365.000000 0.230361 360.000000 0.011208 367.000000 0.353575 28.000000 -0.201488 133.000000 0.117415 157.000000 -0.102033
120091.000000 2.317478 386.000000 372.000000 308.000000 -0.022836 351.000000 0.143714 341.000000 0.072258 348.000000 0.027242 21.000000 -0.250613 132.000000 0.124216 156.000000 -0.117929
120854.000000 2.253820 391.000000 377.000000 327.000000 0.028918 356.000000 0.142618 352.000000 0.078934 359.000000 0.266927 20.000000 -0.247044 127.000000 0.132387 159.000000 -0.077252
121231.000000 2.338496 377.000000 386.000000 334.000000 0.002685 360.000000 0.094347 361.000000 0.069504 366.000000 0.075664 21.000000 -0.242727 134.000000 0.136087 167.000000 -0.070433
122394.000000 2.202951 387.000000 383.000000 324.000000 0.071864 362.000000 0.127414 347.000000 -0.047384 354.000000 -0.052571 20.000000 -0.262800 123.000000 0.125340 155.000000 -0.125479
122777.000000 2.234937 383.000000 374.000000 263.000000 -0.088825 314.000000 0.108715 325.000000 0.052870 351.000000 -0.034245 22.000000 -0.261851 125.000000 0.102486 156.000000 -0.135666
123151.000000 2.207464 374.000000 379.000000 327.000000 -0.003352 358.000000 0.077116 349.000000 -0.051425 356.000000 -0.053605 20.000000 -0.250092 131.000000 0.133532 155.000000 -0.080909
123530.000000 2.284781 379.000000 390.000000 338.000000 -0.004291 369.000000 0.181321 362.000000 -0.080122 369.000000 0.181321 24.000000 -0.263383 126.000000 0.092194 156.000000 -0.122304
125103.000000 2.293855 786.000000 371.000000 295.000000 0.016242 350.000000 0.168499 343.000000 -0.027567 350.000000 0.168499 24.000000 -0.227384 126.000000 0.101266 153.000000 -0.140394
125474.000000 2.172449 371.000000 385.000000 313.000000 -0.005534 341.000000 0.098982 350.000000 -0.036206 356.000000 -0.008401 20.000000 -0.221754 127.000000 0.143952 158.000000 -0.089437
125859.000000 2.119937 385.000000 379.000000 273.000000 -0.086469 319.000000 0.087429 342.000000 -0.014328 347.000000 -0.064641 25.000000 -0.201254 138.000000 0.118671 162.000000 -0.053523
126626.000000 2.117305 388.000000 387.000000 328.000000 0.013840 366.000000 0.213511 373.000000 0.104168 374.000000 0.109372 21.000000 -0.251773 127.000000 0.073603 133.000000 0.059260
127013.000000 2.298117 387.000000 373.000000 315.000000 0.031583 352.000000 0.123495 338.000000 -0.034248 345.000000 -0.052823 17.000000 -0.299107 124.000000 0.081829 153.000000 -0.150835
127386.000000 2.206976 373.000000 389.000000 334.000000 -0.001418 368.000000 0.112299 364.000000 -0.045115 371.000000 0.291641 21.000000 -0.210361 135.000000 0.051131 156.000000 -0.139577
129309.000000 1.666725 383.000000 377.000000 321.000000 0.036160 356.000000 0.121377 353.000000 -0.044375 360.000000 0.297537 22.000000 -0.259906 133.000000 0.059602 158.000000 -0.077544
130066.000000 2.011991 380.000000 378.000000 324.000000 0.027511 357.000000 0.160989 340.000000 -0.023650 347.000000 -0.038134 26.000000 -0.222102 121.000000 0.101846 155.000000 -0.088748
130444.000000 2.164122 378.000000 383.000000 328.000000 0.045189 362.000000 0.153309 356.000000 -0.040076 363.000000 0.218011 23.000000 -0.205564 129.000000 0.110121 157.000000 -0.114049
130827.000000 2.125440 383.000000 379.000000 327.000000 0.018212 358.000000 0.118104 354.000000 -0.060189 361.000000 0.302304 20.000000 -0.226663 131.000000 0.087365 157.000000 -0.092243
131206.000000 2.307429 379.000000 383.000000 331.000000 -0.004142 362.000000 0.204388 353.000000 -0.078058 360.000000 0.044780 20.000000 -0.293368 135.000000 0.098262 159.000000 -0.062349
131589.000000 2.237305 383.000000 401.000000 320.000000 -0.024467 380.000000 0.142917 379.000000 0.083058 386.000000 0.267039 20.000000 -0.260062 132.000000 0.078051 155.000000 -0.087826
132374.000000 2.336099 384.000000 405.000000 352.000000 -0.000030 384.000000 0.205940 375.000000 -0.046412 382.000000 0.102397 24.000000 -0.214810 129.000000 0.084826 158.000000 -0.103179
132779.000000 2.328059 405.000000 377.000000 307.000000 -0.005112 333.000000 0.076705 349.000000 -0.023624 360.000000 0.348494 27.000000 -0.185657 132.000000 0.060047 155.000000 -0.118478
133156.000000 2.346004 377.000000 400.000000 354.000000 0.077916 379.000000 0.123935 374.000000 -0.060939 381.000000 0.244123 20.000000 -0.190235 128.000000 0.086740 156.000000 -0.091880
133556.000000 2.388731 400.000000 386.000000 336.000000 0.010475 365.000000 0.186023 359.000000 -0.077237 366.000000 0.245035 21.000000 -0.271270 126.000000 0.030561 153.000000 -0.148291
134745.000000 2.304420 393.000000 417.000000 362.000000 0.015518 396.000000 0.061097 388.000000 -0.040707 395.000000 -0.018512 25.000000 -0.207021 123.000000 0.067431 153.000000 -0.116293
135162.000000 2.375660 417.000000 400.000000 344.000000 0.013852 379.000000 0.193710 367.000000 -0.040897 374.000000 -0.091807 22.000000 -0.191646 126.000000 0.080011 156.000000 -0.121821
135562.000000 2.271849 400.000000 399.000000 345.000000 0.065646 378.000000 0.187293 369.000000 0.030537 376.000000 0.072935 24.000000 -0.209390 135.000000 -0.042211 157.000000 -0.209968
136771.000000 1.398857 402.000000 403.000000 349.000000 -0.012523 382.000000 0.121222 378.000000 -0.070251 385.000000 0.281394 13.000000 -0.076080 137.000000 0.076334 159.000000 -0.076502
138352.000000 2.291207 398.000000 397.000000 357.000000 -0.057321 376.000000 0.252916 370.000000 -0.060109 377.000000 0.302509 24.000000 -0.185752 130.000000 0.109682 156.000000 -0.105847
138749.000000 2.251867 397.000000 395.000000 356.000000 -0.053590 374.000000 0.152900 369.000000 -0.048918 376.000000 0.228888 23.000000 -0.258700 139.000000 0.091224 160.000000 -0.080656
139144.000000 2.401803 395.000000 383.000000 331.000000 0.007979 362.000000 0.089046 357.000000 -0.050892 364.000000 0.234186 25.000000 -0.201898 120.000000 0.091242 151.000000 -0.142851
139527.000000 2.396237 383.000000 373.000000 279.000000 -0.074359 325.000000 0.075157 339.000000 -0.060578 355.000000 0.177900 20.000000 -0.257038 132.000000 0.065845 157.000000 -0.125641
139900.000000 2.451914 373.000000 399.000000 350.000000 0.025891 378.000000 0.130390 370.000000 -0.041820 377.000000 0.041958 19.000000 -0.304480 131.000000 0.088498 155.000000 -0.083214
141502.000000 2.368087 399.000000 395.000000 338.000000 -0.019926 374.000000 0.147396 367.000000 -0.048013 374.000000 0.147396 21.000000 -0.229108 125.000000 0.076939 154.000000 -0.143095
141897.000000 2.339687 395.000000 402.000000 349.000000 -0.028860 381.000000 0.144310 372.000000 -0.063653 379.000000 0.045597 21.000000 -0.274074 136.000000 0.085209 158.000000 -0.066551
142299.000000 2.472979 402.000000 386.000000 332.000000 0.004545 365.000000 0.057051 359.000000 -0.057682 366.000000 0.126158 23.000000 -0.188402 132.000000 0.098527 156.000000 -0.099077
142685.000000 2.351330 386.000000 411.000000 345.000000 0.041759 390.000000 0.121899 384.000000 -0.060139 391.000000 0.171460 22.000000 -0.213622 142.000000 0.100850 176.000000 -0.043630
143491.000000 2.339136 395.000000 418.000000 364.000000 0.012700 397.000000 0.183577 390.000000 -0.064933 397.000000 0.183577 20.000000 -0.240581 129.000000 0.099039 158.000000 -0.125631
143909.000000 2.411947 418.000000 404.000000 351.000000 0.023153 383.000000 0.128243 369.000000 -0.043635 376.000000 -0.060188 19.000000 -0.287711 132.000000 0.093091 159.000000 -0.083589
144313.000000 2.352916 404.000000 430.000000 388.000000 -0.065746 409.000000 0.183659 399.000000 -0.054383 406.000000 -0.047251 22.000000 -0.251206 133.000000 0.067200 156.000000 -0.108782
144743.000000 2.299770 430.000000 408.000000 351.000000 0.037462 387.000000 0.118716 379.000000 -0.058981 386.000000 0.035314 24.000000 -0.298146 138.000000 0.086959 162.000000 -0.044293
145151.000000 2.093574 408.000000 413.000000 318.000000 0.035958 368.000000 0.141207 377.000000 0.049296 398.000000 0.294391 24.000000 -0.276317 221.000000 0.055344 227.000000 0.027084
145963.000000 1.153979 399.000000 426.000000 371.000000 0.019592 405.000000 0.106850 406.000000 0.183652 409.000000 0.234279 21.000000 -0.159092 132.000000 0.127287 175.000000 -0.032241
146795.000000 1.653289 406.000000 423.000000 331.000000 -0.053466 377.000000 0.080910 394.000000 -0.047317 404.000000 0.178434 24.000000 -0.199077 129.000000 0.094750 158.000000 -0.105365
147218.000000 1.892619 423.000000 396.000000 346.000000 -0.008762 375.000000 0.152288 371.000000 -0.094734 378.000000 0.290627 19.000000 -0.251173 133.000000 0.090550 155.000000 -0.107052
148821.000000 2.054627 407.000000 388.000000 263.000000 -0.059546 344.000000 0.102742 361.000000 -0.025882 368.000000 0.090027 19.000000 -0.265030 130.000000 0.116535 157.000000 -0.077261
149209.000000 2.197742 388.000000 404.000000 350.000000 0.015059 383.000000 0.247431 375.000000 -0.058824 382.000000 0.182807 21.000000 -0.244248 129.000000 0.097213 157.000000 -0.096547
149613.000000 2.134797 404.000000 801.000000 746.000000 0.009575 780.000000 0.261708 776.000000 -0.022116 783.000000 0.376457 21.000000 -0.210612 395.000000 2.335363 421.000000 -0.221033
150414.000000 2.188730 801.000000 429.000000 391.000000 -0.052444 408.000000 0.106239 409.000000 0.170831 413.000000 0.284796 18.000000 -0.260171 132.000000 0.079712 156.000000 -0.081073
150843.000000 2.395438 429.000000 403.000000 261.000000 -0.111454 361.000000 0.079547 376.000000 -0.010861 383.000000 -0.009921 20.000000 -0.298026 134.000000 0.089577 156.000000 -0.089916
152443.000000 2.106252 795.000000 380.000000 329.000000 0.048604 359.000000 0.161207 351.000000 -0.015471 358.000000 0.074796 24.000000 -0.161945 134.000000 0.132570 158.000000 -0.037018
153207.000000 2.056270 384.000000 387.000000 313.000000 0.000422 341.000000 0.111003 357.000000 -0.044577 366.000000 0.021913 18.000000 -0.231205 136.000000 0.134303 164.000000 -0.030133
154372.000000 2.268340 384.000000 397.000000 348.000000 0.061832 376.000000 0.135188 368.000000 -0.046662 375.000000 0.045565 20.000000 -0.250502 126.000000 0.084418 156.000000 -0.126155
154769.000000 2.331789 397.000000 387.000000 308.000000 -0.031941 328.000000 0.081100 355.000000 -0.061569 365.000000 -0.021962 22.000000 -0.260608 135.000000 0.072881 155.000000 -0.101362
155156.000000 2.347067 387.000000 406.000000 289.000000 -0.065000 360.000000 0.091237 370.000000 -0.038589 387.000000 0.192365 23.000000 -0.218917 130.000000 0.075628 155.000000 -0.106193
155562.000000 2.382602 406.000000 395.000000 338.000000 0.008434 374.000000 0.192337 368.000000 -0.063245 375.000000 0.252337 20.000000 -0.271878 132.000000 0.068882 155.000000 -0.111493
156369.000000 2.379391 412.000000 408.000000 353.000000 -0.014482 387.000000 0.210141 381.000000 -0.078731 388.000000 0.259264 23.000000 -0.210625 135.000000 0.043904 152.000000 -0.152350
157175.000000 2.099750 398.000000 394.000000 342.000000 0.062573 373.000000 0.220064 371.000000 0.079577 378.000000 0.271959 24.000000 -0.047243 133.000000 0.165660 161.000000 -0.019339
157569.000000 1.537961 394.000000 411.000000 320.000000 -0.056520 363.000000 0.087870 379.000000 -0.039716 397.000000 0.223860 19.000000 -0.214670 132.000000 0.131569 159.000000 -0.013338
158387.000000 2.029484 407.000000 409.000000 303.000000 -0.066240 361.000000 0.099609 378.000000 -0.068086 385.000000 -0.041173 21.000000 -0.255140 131.000000 0.089986 159.000000 -0.113167
158796.000000 2.225000 409.000000 397.000000 309.000000 -0.047120 339.000000 0.053350 361.000000 -0.038026 375.000000 -0.023808 26.000000 -0.206552 131.000000 0.094872 161.000000 -0.105772
159593.000000 2.282994 400.000000 407.000000 351.000000 -0.017977 386.000000 0.146679 392.000000 0.257132 397.000000 0.354545 21.000000 -0.253606 129.000000 0.073592 156.000000 -0.122140
160815.000000 2.322409 815.000000 420.000000 365.000000 -0.001510 399.000000 0.049118 389.000000 -0.048279 396.000000 -0.063609 21.000000 -0.212025 130.000000 0.102647 160.000000 -0.073815
161235.000000 2.356301 420.000000 418.000000 338.000000 -0.032105 397.000000 0.140437 381.000000 -0.023216 388.000000 -0.037762 23.000000 -0.232411 141.000000 0.088356 162.000000 -0.053041
161653.000000 2.303528 418.000000 416.000000 370.000000 0.039793 395.000000 0.211174 385.000000 -0.014171 392.000000 0.011314 26.000000 -0.186080 131.000000 0.091824 158.000000 -0.082173
163297.000000 2.297554 407.000000 398.000000 300.000000 -0.069322 337.000000 0.048651 346.000000 0.003524 378.000000 0.028058 23.000000 -0.212334 133.000000 0.078604 160.000000 -0.073449
164109.000000 2.275237 414.000000 394.000000 288.000000 -0.090739 350.000000 0.055536 366.000000 -0.026814 374.000000 0.090835 25.000000 -0.206346 125.000000 0.067481 154.000000 -0.112925
164503.000000 2.279076 394.000000 420.000000 365.000000 0.013886 399.000000 0.090561 392.000000 -0.039548 399.000000 0.090561 23.000000 -0.221896 136.000000 0.088852 159.000000 -0.053497
165326.000000 2.289376 403.000000 423.000000 336.000000 -0.039670 360.000000 0.059796 396.000000 -0.023465 405.000000 0.229105 25.000000 -0.228290 144.000000 0.074201 174.000000 -0.061005
166179.000000 2.293542 430.000000 426.000000 372.000000 0.024050 405.000000 0.155005 388.000000 -0.047596 395.000000 -0.031735 25.000000 -0.166110 129.000000 0.075621 155.000000 -0.077091
166605.000000 2.294186 426.000000 422.000000 330.000000 -0.030704 401.000000 0.178664 391.000000 -0.047792 398.000000 -0.028498 22.000000 -0.242115 141.000000 0.103148 185.000000 -0.029923
167027.000000 2.237457 422.000000 429.000000 372.000000 0.012321 408.000000 0.195521 401.000000 -0.031971 408.000000 0.195521 23.000000 -0.239701 135.000000 0.105097 160.000000 -0.039885
168285.000000 2.259433 427.000000 407.000000 350.000000 -0.094215 386.000000 0.147415 374.000000 -0.153761 381.000000 -0.155892 21.000000 -0.258073 138.000000 0.080171 157.000000 -0.117365
168692.000000 2.059559 407.000000 439.000000 384.000000 0.049453 418.000000 0.244295 413.000000 0.003496 420.000000 0.283072 23.000000 -0.335234 142.000000 0.133497 175.000000 0.020488
169131.000000 1.523261 439.000000 403.000000 314.000000 0.004324 338.000000 0.079593 352.000000 0.031442 387.000000 0.321363 21.000000 -0.204432 123.000000 0.123674 154.000000 -0.035323
169534.000000 1.632820 403.000000 426.000000 371.000000 0.000599 405.000000 0.136961 393.000000 -0.053445 400.000000 -0.094136 17.000000 -0.280159 137.000000 0.111067 161.000000 -0.031769
171190.000000 2.258371 403.000000 424.000000 369.000000 0.050238 403.000000 0.189001 396.000000 -0.025937 403.000000 0.189001 22.000000 -0.248620 124.000000 0.069200 154.000000 -0.124390
173240.000000 2.253370 410.000000 394.000000 293.000000 -0.083777 347.000000 0.087403 350.000000 0.047434 365.000000 -0.052991 23.000000 -0.195264 129.000000 0.094008 156.000000 -0.072540
174426.000000 2.384075 792.000000 393.000000 321.000000 -0.032240 372.000000 0.077150 357.000000 -0.128323 364.000000 -0.111033 25.000000 -0.184138 132.000000 0.078230 156.000000 -0.117676
175601.000000 1.920173 383.000000 395.000000 342.000000 -0.004589 374.000000 0.123135 373.000000 0.052382 380.000000 0.208354 21.000000 -0.229683 133.000000 0.105906 161.000000 -0.067714
176377.000000 2.116049 381.000000 389.000000 330.000000 -0.004544 368.000000 0.230880 352.000000 -0.066846 359.000000 -0.072552 23.000000 -0.237334 130.000000 0.086063 157.000000 -0.064142
176766.000000 2.265801 389.000000 386.000000 337.000000 -0.056535 365.000000 -0.021502 368.000000 0.165552 370.000000 0.266901 22.000000 -0.268178 133.000000 0.052884 159.000000 -0.120799
177152.000000 2.074738 386.000000 401.000000 347.000000 0.087870 380.000000 0.135596 377.000000 -0.004623 384.000000 0.291426 20.000000 -0.275766 122.000000 0.203248 152.000000 0.015406
178375.000000 2.021131 418.000000 422.000000 367.000000 -0.007020 401.000000 0.268573 389.000000 -0.051174 396.000000 -0.049420 25.000000 -0.220328 133.000000 0.077019 157.000000 -0.107932
178797.000000 2.137430 422.000000 409.000000 319.000000 -0.037991 349.000000 0.090847 371.000000 0.003560 383.000000 -0.038150 27.000000 -0.216205 131.000000 0.091177 160.000000 -0.086378
179206.000000 2.261115 409.000000 416.000000 362.000000 0.023965 395.000000 0.254109 378.000000 -0.047899 385.000000 -0.047098 22.000000 -0.185611 130.000000 0.112348 157.000000 -0.058718
181320.000000 2.271853 425.000000 413.000000 362.000000 0.016962 392.000000 0.159122 376.000000 -0.078556 383.000000 -0.043901 24.000000 -0.202838 141.000000 0.083004 160.000000 -0.060444
182171.000000 2.291148 438.000000 417.000000 363.000000 -0.015594 396.000000 0.211036 387.000000 -0.068275 394.000000 0.101240 26.000000 -0.182961 132.000000 0.097515 159.000000 -0.094460
182588.000000 2.236131 417.000000 441.000000 404.000000 -0.069076 420.000000 0.098746 409.000000 -0.039937 416.000000 -0.080768 24.000000 -0.246723 136.000000 0.070950 179.000000 -0.046389
183458.000000 2.297837 429.000000 438.000000 386.000000 0.011725 417.000000 0.161237 400.000000 -0.050657 407.000000 -0.025173 23.000000 -0.222554 130.000000 0.079817 156.000000 -0.109590
183896.000000 2.271251 438.000000 427.000000 344.000000 -0.039093 364.000000 0.084105 394.000000 -0.055627 401.000000 -0.033324 30.000000 -0.201080 135.000000 0.083073 181.000000 -0.033503
184323.000000 2.267416 427.000000 441.000000 386.000000 0.008608 420.000000 0.125769 411.000000 -0.038431 418.000000 0.010786 21.000000 -0.224182 128.000000 0.094679 158.000000 -0.091384
185197.000000 2.276632 433.000000 869.000000 812.000000 -0.004343 848.000000 0.196269 829.000000 -0.033656 836.000000 -0.057714 23.000000 -0.173931 441.000000 2.313467 475.000000 -0.210785
186066.000000 2.251676 869.000000 429.000000 373.000000 0.000193 408.000000 0.098671 404.000000 -0.047881 411.000000 0.295897 22.000000 -0.237244 129.000000 0.075827 157.000000 -0.103382
186495.000000 2.318765 429.000000 415.000000 363.000000 -0.012792 394.000000 0.146813 392.000000 -0.006306 399.000000 0.307817 22.000000 -0.220469 141.000000 0.097018 178.000000 -0.045848
188600.000000 2.099720 419.000000 878.000000 825.000000 -0.004824 857.000000 0.161192 855.000000 0.007290 862.000000 0.299578 23.000000 -0.308652 449.000000 2.116146 473.000000 -0.245564
189889.000000 2.179436 411.000000 427.000000 369.000000 0.014279 406.000000 0.140752 397.000000 -0.021128 404.000000 -0.008464 19.000000 -0.317287 144.000000 0.129506 181.000000 -0.032996
191123.000000 2.064656 807.000000 374.000000 285.000000 -0.063162 329.000000 0.107415 346.000000 -0.060123 357.000000 0.228998 19.000000 -0.209296 123.000000 0.137044 151.000000 -0.081325
192314.000000 1.992603 427.000000 393.000000 334.000000 -0.000423 372.000000 0.348728 368.000000 0.085546 375.000000 0.336110 22.000000 -0.214702 134.000000 0.143232 164.000000 -0.045016
192707.000000 1.990626 393.000000 411.000000 351.000000 0.038715 390.000000 0.178416 388.000000 0.037680 395.000000 0.286048 24.000000 -0.264078 148.000000 0.102419 176.000000 -0.013590
194654.000000 1.905379 355.000000 391.000000 346.000000 0.063839 370.000000 0.272650 368.000000 0.141192 375.000000 0.201396 25.000000 -0.201174 136.000000 0.204230 183.000000 0.014980
195045.000000 1.509781 391.000000 372.000000 318.000000 -0.043841 351.000000 0.143181 343.000000 -0.042682 350.000000 0.091159 19.000000 -0.209389 138.000000 0.106102 162.000000 -0.014023
196166.000000 1.848508 383.000000 364.000000 324.000000 -0.114686 343.000000 0.088560 339.000000 -0.098792 346.000000 0.233199 19.000000 -0.272151 123.000000 0.108846 154.000000 -0.101142
196530.000000 1.839000 364.000000 378.000000 325.000000 0.036096 357.000000 0.133634 357.000000 0.133634 364.000000 0.243899 18.000000 -0.349010 132.000000 0.138905 155.000000 -0.026878
196908.000000 1.403053 378.000000 370.000000 287.000000 0.014826 306.000000 0.165092 326.000000 0.110013 355.000000 0.365560 16.000000 -0.222713 133.000000 0.076774 150.000000 -0.040627
199531.000000 1.640017 381.000000 349.000000 300.000000 0.037041 328.000000 0.295566 325.000000 0.029736 332.000000 0.326819 22.000000 -0.080313 131.000000 0.122554 155.000000 -0.091945
199880.000000 1.879122 349.000000 362.000000 312.000000 0.041380 341.000000 0.167241 336.000000 -0.042869 343.000000 0.348432 20.000000 -0.308245 132.000000 0.052021 157.000000 -0.161318
200963.000000 2.189968 369.000000 388.000000 336.000000 -0.031724 367.000000 0.365189 363.000000 -0.077209 370.000000 0.503230 22.000000 -0.275550 130.000000 0.082946 163.000000 -0.115973
202945.000000 2.492836 398.000000 400.000000 346.000000 0.006615 379.000000 0.234735 371.000000 -0.040531 378.000000 0.131678 21.000000 -0.205752 127.000000 0.020862 156.000000 -0.132852
207414.000000 2.075847 400.000000 398.000000 322.000000 -0.044402 353.000000 0.057340 371.000000 -0.062866 380.000000 0.242872 18.000000 -0.260829 127.000000 0.065116 154.000000 -0.106230
211044.000000 2.269185 812.000000 390.000000 337.000000 0.000361 369.000000 0.147808 362.000000 -0.048542 369.000000 0.147808 26.000000 -0.115565 132.000000 0.046837 155.000000 -0.124226
211434.000000 2.409862 390.000000 399.000000 345.000000 0.018947 378.000000 0.137710 370.000000 -0.024376 377.000000 0.043760 23.000000 -0.188399 128.000000 0.059123 157.000000 -0.140047
212628.000000 2.117771 396.000000 392.000000 302.000000 -0.061284 348.000000 0.055187 367.000000 -0.113057 375.000000 0.370908 21.000000 -0.173701 144.000000 0.040612 175.000000 -0.042431
213799.000000 2.211070 398.000000 1206.000000 769.000000 -0.073010 804.000000 2.225031 827.000000 -0.257819 1193.000000 -0.141065 25.000000 -0.123211 408.000000 1.908731 429.000000 -0.157854
215782.000000 2.217741 378.000000 406.000000 350.000000 -0.023009 385.000000 0.125596 377.000000 -0.045313 384.000000 0.036035 19.000000 -0.181533 138.000000 0.051495 158.000000 -0.078787
218551.000000 2.121817 391.000000 395.000000 298.000000 -0.050267 349.000000 0.074717 367.000000 -0.044890 376.000000 0.232759 24.000000 -0.134528 141.000000 0.056597 177.000000 -0.048669
219720.000000 2.274546 386.000000 761.000000 696.000000 -0.041759 725.000000 0.057803 732.000000 -0.039971 739.000000 -0.069423 23.000000 -0.170844 353.000000 0.861290 461.000000 -0.202217
222007.000000 1.404253 745.000000 396.000000 345.000000 -0.002507 375.000000 0.050673 373.000000 -0.089468 380.000000 0.406535 14.000000 -0.293977 143.000000 0.228652 190.000000 -0.147964
223585.000000 2.268546 388.000000 380.000000 325.000000 0.008869 359.000000 0.184688 361.000000 0.358936 364.000000 0.392683 24.000000 -0.170388 126.000000 0.082979 157.000000 -0.159062
225935.000000 1.858152 395.000000 393.000000 303.000000 -0.055488 346.000000 0.075137 363.000000 -0.065802 373.000000 0.127130 18.000000 -0.184559 129.000000 0.136822 176.000000 -0.112410
229552.000000 1.417399 2822.000000 402.000000 348.000000 -0.038449 381.000000 0.220075 375.000000 -0.081086 382.000000 0.319542 16.000000 -0.141112 126.000000 0.247883 174.000000 -0.140130
231152.000000 2.389968 403.000000 378.000000 297.000000 -0.055520 335.000000 0.075485 345.000000 -0.049483 362.000000 0.394184 17.000000 -0.252585 122.000000 0.094565 154.000000 -0.212070
232320.000000 2.402352 394.000000 399.000000 340.000000 -0.014306 378.000000 0.397246 375.000000 0.125005 382.000000 0.218390 25.000000 -0.160031 131.000000 0.096715 157.000000 -0.134089
233117.000000 2.154203 398.000000 383.000000 260.000000 -0.062598 338.000000 0.080365 349.000000 -0.031815 369.000000 0.344045 20.000000 -0.257002 125.000000 0.109833 154.000000 -0.163898
234678.000000 2.316947 402.000000 394.000000 338.000000 -0.012432 373.000000 0.235000 357.000000 -0.049343 364.000000 -0.054374 22.000000 -0.215920 139.000000 0.076192 178.000000 -0.106975
235072.000000 2.377728 394.000000 399.000000 342.000000 0.021430 378.000000 0.194778 379.000000 0.299088 381.000000 0.432866 23.000000 -0.206611 128.000000 0.058247 153.000000 -0.135958
235851.000000 2.403969 380.000000 406.000000 352.000000 -0.018164 385.000000 0.296003 380.000000 -0.096724 387.000000 0.415471 23.000000 -0.177177 132.000000 0.074949 161.000000 -0.085661
237055.000000 2.215567 413.000000 391.000000 336.000000 -0.001156 370.000000 0.124204 368.000000 -0.020106 375.000000 0.407808 20.000000 -0.224230 126.000000 0.078422 155.000000 -0.145352
237446.000000 2.449987 391.000000 400.000000 344.000000 -0.031370 379.000000 0.226989 375.000000 -0.101130 382.000000 0.455438 23.000000 -0.143007 129.000000 0.077779 156.000000 -0.121410
237846.000000 2.182789 400.000000 400.000000 331.000000 -0.014910 379.000000 0.158353 369.000000 -0.037180 376.000000 -0.105283 21.000000 -0.187165 139.000000 0.078320 158.000000 -0.074737
239857.000000 2.264844 402.000000 414.000000 359.000000 0.006173 393.000000 0.203916 389.000000 -0.088984 396.000000 0.462286 21.000000 -0.215453 135.000000 0.098137 142.000000 0.064264
241094.000000 2.064768 413.000000 404.000000 352.000000 0.018088 383.000000 0.094545 376.000000 -0.055706 383.000000 0.094545 24.000000 -0.126297 123.000000 0.081724 155.000000 -0.106170
241498.000000 2.234795 404.000000 416.000000 272.000000 -0.075864 368.000000 0.080171 384.000000 -0.049123 386.000000 -0.048685 27.000000 -0.141399 128.000000 0.073809 159.000000 -0.110393
243580.000000 2.227180 411.000000 862.000000 809.000000 -0.012743 841.000000 0.155000 844.000000 0.393527 846.000000 0.387805 23.000000 -0.152586 432.000000 2.199766 457.000000 -0.171845
245693.000000 1.905091 413.000000 419.000000 365.000000 0.002150 398.000000 0.208262 399.000000 0.298371 402.000000 0.369124 27.000000 -0.123074 133.000000 0.096151 160.000000 -0.024646
247282.000000 2.051486 374.000000 395.000000 338.000000 0.003432 374.000000 0.292902 368.000000 -0.059324 375.000000 0.362557 23.000000 -0.223656 214.000000 0.061457 248.000000 -0.049044
247677.000000 2.132666 395.000000 388.000000 333.000000 0.030500 367.000000 0.229014 363.000000 -0.071567 370.000000 0.374846 23.000000 -0.118180 129.000000 0.099083 158.000000 -0.135808
248065.000000 2.174014 388.000000 385.000000 333.000000 -0.005472 364.000000 0.122474 360.000000 -0.099015 367.000000 0.409997 21.000000 -0.249950 128.000000 0.076990 156.000000 -0.165558
250444.000000 2.096899 1201.000000 408.000000 354.000000 -0.004517 387.000000 0.086364 380.000000 -0.081771 387.000000 0.086364 28.000000 -0.115815 136.000000 0.066111 155.000000 -0.093594
250852.000000 2.321774 408.000000 375.000000 289.000000 -0.057832 334.000000 0.055803 347.000000 -0.064182 349.000000 -0.055357 25.000000 -0.145811 126.000000 0.080053 155.000000 -0.165905
252796.000000 2.339434 397.000000 380.000000 324.000000 -0.024590 359.000000 0.158154 357.000000 -0.024746 364.000000 0.372887 19.000000 -0.282055 125.000000 0.056350 131.000000 0.034329
253569.000000 2.266645 393.000000 401.000000 342.000000 -0.009685 380.000000 0.275690 378.000000 0.070470 385.000000 0.280908 22.000000 -0.155140 132.000000 0.085108 158.000000 -0.107773
253970.000000 2.171363 401.000000 412.000000 375.000000 -0.070440 391.000000 0.238698 388.000000 -0.059374 395.000000 0.321833 20.000000 -0.218874 140.000000 0.072002 181.000000 -0.074071
254382.000000 2.219983 412.000000 391.000000 332.000000 -0.017840 370.000000 0.245832 366.000000 -0.053071 373.000000 0.385034 19.000000 -0.243576 127.000000 0.067391 155.000000 -0.154754
255950.000000 2.266959 396.000000 387.000000 273.000000 -0.063869 344.000000 0.057917 360.000000 -0.049484 368.000000 0.144434 19.000000 -0.221819 132.000000 0.090447 164.000000 -0.076437
259202.000000 2.307024 416.000000 404.000000 347.000000 0.012743 383.000000 0.243431 375.000000 -0.053639 382.000000 0.153744 23.000000 -0.130658 130.000000 0.077768 157.000000 -0.109875
259606.000000 2.265642 404.000000 424.000000 321.000000 -0.062896 403.000000 0.373496 398.000000 -0.017962 405.000000 0.417116 23.000000 -0.153447 125.000000 0.042024 156.000000 -0.164857
260840.000000 2.016741 414.000000 391.000000 270.000000 -0.062240 346.000000 0.062775 365.000000 -0.048747 374.000000 0.350703 21.000000 -0.185739 137.000000 0.081203 156.000000 -0.080491
261636.000000 2.079641 405.000000 408.000000 353.000000 -0.000340 387.000000 0.122275 376.000000 -0.050200 383.000000 -0.111721 21.000000 -0.173415 133.000000 0.074885 158.000000 -0.068614
264447.000000 2.280895 404.000000 403.000000 350.000000 -0.011333 382.000000 0.123461 371.000000 -0.047292 378.000000 -0.104830 20.000000 -0.209374 132.000000 0.097594 157.000000 -0.088250
265256.000000 2.352365 406.000000 399.000000 348.000000 -0.005094 378.000000 0.143559 373.000000 -0.093572 380.000000 0.362305 21.000000 -0.223450 140.000000 0.094206 159.000000 -0.108706
266075.000000 2.277586 420.000000 388.000000 310.000000 -0.067431 343.000000 0.028477 361.000000 -0.103261 369.000000 0.237883 21.000000 -0.235046 138.000000 0.080397 159.000000 -0.102264
267668.000000 2.207318 789.000000 400.000000 343.000000 -0.000952 379.000000 0.168843 374.000000 -0.090545 381.000000 0.358811 19.000000 -0.202101 132.000000 0.077541 158.000000 -0.104120
268068.000000 2.380079 400.000000 398.000000 347.000000 0.011019 377.000000 0.248606 373.000000 -0.083730 380.000000 0.456709 23.000000 -0.195406 127.000000 0.061128 155.000000 -0.144502
268466.000000 2.114465 398.000000 409.000000 357.000000 -0.016948 388.000000 0.098998 385.000000 -0.098464 392.000000 0.391396 18.000000 -0.154623 137.000000 0.094177 181.000000 -0.041159
269282.000000 2.164560 407.000000 405.000000 338.000000 0.010642 384.000000 0.233698 380.000000 -0.095269 387.000000 0.382837 21.000000 -0.167651 136.000000 0.088420 155.000000 -0.088616
269687.000000 2.349985 405.000000 815.000000 760.000000 -0.031268 794.000000 0.237224 792.000000 0.061925 799.000000 0.322145 22.000000 -0.270545 406.000000 2.320328 429.000000 -0.138153
271323.000000 2.298635 413.000000 392.000000 319.000000 -0.015813 346.000000 0.051630 366.000000 -0.072416 375.000000 0.375450 21.000000 -0.204545 136.000000 0.080757 157.000000 -0.138366
273362.000000 2.413774 399.000000 404.000000 310.000000 -0.077075 357.000000 0.082599 372.000000 -0.051272 388.000000 0.464140 24.000000 -0.190375 127.000000 0.057431 157.000000 -0.140360
274176.000000 2.257834 410.000000 418.000000 363.000000 -0.008463 397.000000 0.436552 391.000000 -0.053228 398.000000 0.452241 23.000000 -0.183856 131.000000 0.108099 160.000000 -0.125174
274594.000000 2.139234 418.000000 425.000000 375.000000 0.037163 404.000000 0.166817 399.000000 -0.132053 406.000000 0.351457 26.000000 -0.146565 146.000000 0.082767 181.000000 -0.061448
275019.000000 2.416895 425.000000 404.000000 348.000000 -0.025598 383.000000 0.185171 382.000000 0.085939 389.000000 0.225531 22.000000 -0.253232 128.000000 0.061629 156.000000 -0.152158
276245.000000 2.155406 412.000000 409.000000 351.000000 -0.021695 388.000000 0.272100 378.000000 -0.049545 385.000000 -0.002915 20.000000 -0.179076 138.000000 0.089487 158.000000 -0.069588
277062.000000 2.258997 408.000000 405.000000 339.000000 0.020879 384.000000 0.084156 379.000000 -0.065922 386.000000 0.274187 23.000000 -0.192883 127.000000 0.081059 155.000000 -0.127546
277467.000000 2.372008 405.000000 405.000000 353.000000 -0.019622 384.000000 0.151223 386.000000 0.325471 388.000000 0.429656 20.000000 -0.209669 129.000000 0.076715 159.000000 -0.139666
278283.000000 2.344390 411.000000 404.000000 350.000000 -0.014841 383.000000 0.403278 378.000000 -0.053633 385.000000 0.442166 25.000000 -0.153463 131.000000 0.087961 156.000000 -0.119346
282298.000000 2.014032 419.000000 409.000000 352.000000 0.002494 388.000000 0.269703 380.000000 -0.084810 387.000000 0.179735 19.000000 -0.170829 133.000000 0.093489 158.000000 -0.084868
283523.000000 2.387805 404.000000 405.000000 313.000000 -0.053842 340.000000 0.050422 372.000000 -0.048103 383.000000 -0.038416 26.000000 -0.180081 128.000000 0.061210 156.000000 -0.122502
286816.000000 2.092458 420.000000 400.000000 346.000000 -0.003777 379.000000 0.105814 363.000000 -0.036129 370.000000 -0.054749 25.000000 -0.136159 133.000000 0.096632 171.000000 -0.041357
287216.000000 2.360469 400.000000 440.000000 356.000000 -0.054309 393.000000 0.056114 409.000000 -0.044921 419.000000 0.012148 25.000000 -0.159529 142.000000 0.089334 177.000000 -0.059695
288089.000000 2.437338 433.000000 412.000000 357.000000 -0.036470 391.000000 0.252823 389.000000 0.049155 396.000000 0.353591 25.000000 -0.149809 130.000000 0.080365 155.000000 -0.134373
290129.000000 2.248117 410.000000 824.000000 765.000000 -0.003495 803.000000 0.250080 789.000000 -0.038605 796.000000 -0.036628 23.000000 -0.122930 400.000000 2.472744 435.000000 -0.156052
290953.000000 2.293073 824.000000 410.000000 356.000000 -0.004159 389.000000 0.157820 382.000000 -0.065926 389.000000 0.157820 24.000000 -0.147212 139.000000 0.087389 157.000000 -0.096688
291761.000000 2.329029 398.000000 429.000000 372.000000 -0.023654 408.000000 0.268902 403.000000 -0.089029 410.000000 0.413072 22.000000 -0.197791 136.000000 0.052636 160.000000 -0.025534
292190.000000 2.483964 429.000000 411.000000 351.000000 -0.031335 390.000000 0.438510 386.000000 0.070045 393.000000 0.372696 20.000000 -0.232775 136.000000 0.081112 163.000000 -0.098969
292601.000000 2.259860 411.000000 431.000000 309.000000 -0.097776 410.000000 0.279155 401.000000 -0.053825 408.000000 0.064562 22.000000 -0.233870 148.000000 0.041765 160.000000 -0.022907
293032.000000 2.474735 431.000000 405.000000 348.000000 -0.033774 384.000000 0.078697 377.000000 -0.019327 384.000000 0.078697 24.000000 -0.190533 125.000000 0.068082 155.000000 -0.154915
293437.000000 2.288181 405.000000 400.000000 346.000000 -0.030520 379.000000 0.191269 362.000000 -0.062024 369.000000 -0.084030 25.000000 -0.118388 139.000000 0.080165 158.000000 -0.088990
293837.000000 2.467023 400.000000 401.000000 363.000000 -0.022778 380.000000 0.210814 375.000000 -0.065896 382.000000 0.384655 24.000000 -0.234766 138.000000 0.076632 156.000000 -0.081265
302948.000000 2.125078 409.000000 410.000000 372.000000 -0.058650 389.000000 0.262256 385.000000 -0.084060 392.000000 0.438243 27.000000 -0.169125 128.000000 0.108363 157.000000 -0.137540
303358.000000 2.021912 410.000000 388.000000 332.000000 0.021239 367.000000 0.246019 360.000000 -0.072492 367.000000 0.246019 18.000000 -0.235989 128.000000 0.067814 156.000000 -0.103450
303746.000000 2.270220 388.000000 401.000000 308.000000 -0.067675 339.000000 0.054265 366.000000 -0.050596 381.000000 0.154055 24.000000 -0.164466 137.000000 0.080508 163.000000 -0.096141
304936.000000 2.186714 397.000000 397.000000 340.000000 0.031365 376.000000 0.273214 372.000000 -0.053745 379.000000 0.407571 23.000000 -0.158226 134.000000 0.021693 159.000000 -0.105360
308192.000000 2.365030 824.000000 413.000000 353.000000 -0.033790 392.000000 0.112085 386.000000 -0.066252 393.000000 0.221631 21.000000 -0.210392 133.000000 0.091271 159.000000 -0.085743
309830.000000 2.021959 408.000000 841.000000 802.000000 -0.079934 820.000000 0.358229 815.000000 -0.088856 822.000000 0.436992 20.000000 -0.148699 417.000000 2.403621 447.000000 -0.195738
312314.000000 2.219028 816.000000 423.000000 367.000000 -0.000426 402.000000 0.248198 394.000000 -0.073635 401.000000 0.143010 21.000000 -0.143493 131.000000 0.090549 157.000000 -0.112246
313561.000000 2.398021 420.000000 412.000000 361.000000 0.028983 391.000000 0.376224 383.000000 -0.098776 390.000000 0.301976 23.000000 -0.152525 131.000000 0.060378 160.000000 -0.116061
313973.000000 2.373466 412.000000 422.000000 369.000000 -0.012460 401.000000 0.077571 395.000000 -0.074075 402.000000 0.187101 27.000000 -0.180188 138.000000 0.067135 158.000000 -0.085230
315239.000000 2.360438 422.000000 405.000000 354.000000 -0.012991 384.000000 0.125332 379.000000 -0.087646 386.000000 0.334689 28.000000 -0.183069 134.000000 0.064721 170.000000 -0.068365
315644.000000 2.250236 405.000000 421.000000 355.000000 0.010705 376.000000 0.085394 393.000000 -0.075422 401.000000 0.034890 21.000000 -0.216188 136.000000 0.088751 158.000000 -0.060450
316486.000000 2.177337 421.000000 426.000000 369.000000 -0.042694 405.000000 0.252257 394.000000 -0.072115 401.000000 -0.076066 24.000000 -0.143592 146.000000 0.099304 176.000000 -0.062468
316912.000000 2.379891 426.000000 422.000000 350.000000 -0.027848 401.000000 0.094203 389.000000 -0.064368 396.000000 -0.068367 23.000000 -0.186867 130.000000 0.054905 158.000000 -0.129723
318175.000000 2.014827 437.000000 415.000000 358.000000 0.007589 394.000000 0.372150 387.000000 -0.085028 394.000000 0.372150 24.000000 -0.095331 138.000000 0.101702 159.000000 -0.090746
318590.000000 2.029704 415.000000 430.000000 361.000000 -0.001642 409.000000 0.128497 412.000000 0.411303 413.000000 0.427243 23.000000 -0.202914 141.000000 0.093122 161.000000 -0.068946
319020.000000 2.066976 430.000000 406.000000 352.000000 0.031051 385.000000 0.095439 377.000000 -0.022288 384.000000 0.005800 22.000000 -0.202289 134.000000 0.074585 159.000000 -0.110824
319426.000000 2.286867 406.000000 429.000000 352.000000 -0.025908 408.000000 0.319453 402.000000 -0.067223 409.000000 0.403763 23.000000 -0.177100 136.000000 0.092165 160.000000 -0.064233
320691.000000 2.094138 430.000000 407.000000 356.000000 0.000374 386.000000 0.174873 378.000000 -0.049249 385.000000 0.065562 26.000000 -0.131239 133.000000 0.084987 161.000000 -0.088349
322784.000000 2.069373 436.000000 405.000000 366.000000 -0.046568 384.000000 0.311567 381.000000 0.061316 388.000000 0.292179 22.000000 -0.182038 140.000000 0.115731 171.000000 -0.077906
324034.000000 2.212745 434.000000 420.000000 361.000000 -0.036601 399.000000 0.343869 402.000000 0.367349 403.000000 0.281909 20.000000 -0.198949 136.000000 0.093902 158.000000 -0.090675
324454.000000 2.240280 420.000000 422.000000 363.000000 -0.010044 401.000000 0.276505 402.000000 0.346458 405.000000 0.376646 20.000000 -0.237338 139.000000 0.080385 163.000000 -0.078030
324876.000000 2.308871 422.000000 412.000000 326.000000 -0.051908 367.000000 0.056085 382.000000 -0.078605 393.000000 0.113011 20.000000 -0.261335 128.000000 0.083346 155.000000 -0.134664
325700.000000 2.404325 412.000000 435.000000 378.000000 -0.007504 414.000000 0.179575 411.000000 -0.078668 418.000000 0.457162 23.000000 -0.169919 143.000000 0.086380 179.000000 -0.041837
326555.000000 2.387731 420.000000 421.000000 349.000000 -0.060483 379.000000 0.063890 396.000000 -0.059511 404.000000 0.347558 24.000000 -0.203523 139.000000 0.071668 159.000000 -0.066831
327396.000000 2.428982 420.000000 427.000000 386.000000 -0.052853 406.000000 0.360518 401.000000 -0.051270 408.000000 0.434406 24.000000 -0.163355 139.000000 0.065341 158.000000 -0.113607
330693.000000 2.354174 414.000000 394.000000 342.000000 -0.009879 373.000000 0.219921 371.000000 0.021002 378.000000 0.342257 26.000000 -0.168210 144.000000 0.093233 175.000000 -0.078996
331484.000000 2.310720 397.000000 385.000000 346.000000 -0.035987 364.000000 0.203356 363.000000 0.103591 370.000000 0.321665 22.000000 -0.182118 134.000000 0.094038 164.000000 -0.096432
332277.000000 2.340879 408.000000 402.000000 346.000000 -0.012495 381.000000 0.173482 373.000000 -0.055390 380.000000 0.053654 23.000000 -0.213337 133.000000 0.059772 157.000000 -0.121858
335084.000000 2.332929 406.000000 422.000000 364.000000 0.002402 401.000000 0.198780 394.000000 -0.103713 401.000000 0.198780 21.000000 -0.167099 137.000000 0.092104 159.000000 -0.045496
337565.000000 2.227147 408.000000 365.000000 316.000000 -0.067214 344.000000 0.306128 341.000000 0.047475 348.000000 0.265015 19.000000 -0.164483 131.000000 0.067518 158.000000 -0.087325
337930.000000 2.286942 365.000000 450.000000 348.000000 -0.077569 404.000000 0.063060 418.000000 -0.056549 429.000000 0.002903 20.000000 -0.237571 209.000000 0.042907 228.000000 0.013156
338821.000000 2.297258 441.000000 421.000000 363.000000 -0.021141 400.000000 0.316287 395.000000 -0.092679 402.000000 0.386176 22.000000 -0.182317 137.000000 0.082623 161.000000 -0.051642
339687.000000 2.120390 445.000000 855.000000 799.000000 0.000519 834.000000 0.295849 827.000000 -0.045719 834.000000 0.295849 21.000000 -0.169640 431.000000 2.278106 467.000000 -0.196284
342629.000000 2.295409 423.000000 400.000000 328.000000 -0.031501 356.000000 0.049219 367.000000 -0.043180 379.000000 0.034514 27.000000 -0.153136 133.000000 0.077809 158.000000 -0.102673
343862.000000 2.263356 833.000000 419.000000 366.000000 0.005033 398.000000 0.180755 391.000000 -0.047538 398.000000 0.180755 21.000000 -0.219043 137.000000 0.088805 160.000000 -0.069286
344281.000000 2.281569 419.000000 416.000000 361.000000 -0.002368 395.000000 0.106785 376.000000 0.003462 383.000000 -0.057275 24.000000 -0.171644 137.000000 0.064528 159.000000 -0.078343
347614.000000 2.113981 408.000000 417.000000 335.000000 -0.052777 396.000000 0.282599 386.000000 -0.048608 393.000000 -0.026052 23.000000 -0.124435 142.000000 0.088146 160.000000 -0.006036
348031.000000 2.343055 417.000000 429.000000 386.000000 -0.042258 408.000000 0.416833 403.000000 0.038525 410.000000 0.420924 21.000000 -0.216946 136.000000 0.094100 159.000000 -0.082312
348869.000000 2.410673 409.000000 418.000000 361.000000 0.004765 397.000000 0.149495 381.000000 -0.052118 388.000000 -0.029987 22.000000 -0.203901 126.000000 0.079393 154.000000 -0.132645
349287.000000 2.172992 418.000000 408.000000 353.000000 -0.007491 387.000000 0.273481 378.000000 -0.071643 385.000000 0.088592 22.000000 -0.125346 141.000000 0.097654 160.000000 -0.056468
352215.000000 2.336301 414.000000 441.000000 403.000000 -0.055911 420.000000 0.261660 413.000000 -0.082760 420.000000 0.261660 23.000000 -0.161628 141.000000 0.104162 171.000000 -0.064273
354370.000000 2.029189 420.000000 424.000000 366.000000 0.023825 403.000000 0.141726 396.000000 -0.064623 403.000000 0.141726 20.000000 -0.208899 149.000000 0.115595 157.000000 0.071378
354794.000000 2.182213 424.000000 413.000000 356.000000 0.005147 392.000000 0.211211 389.000000 -0.045528 396.000000 0.428500 22.000000 -0.236014 133.000000 0.093899 156.000000 -0.112025
355207.000000 2.019691 413.000000 406.000000 351.000000 -0.026707 385.000000 0.216272 374.000000 -0.056127 381.000000 -0.079434 19.000000 -0.201470 141.000000 0.074432 160.000000 -0.072824
355613.000000 2.348482 406.000000 417.000000 332.000000 -0.057402 396.000000 0.116567 393.000000 -0.081944 400.000000 0.444797 28.000000 -0.182411 140.000000 0.075442 180.000000 -0.053919
356446.000000 2.414702 416.000000 422.000000 364.000000 -0.015033 401.000000 0.248494 397.000000 -0.099249 404.000000 0.442146 21.000000 -0.261035 138.000000 0.075155 166.000000 -0.067118
356868.000000 2.230502 422.000000 425.000000 371.000000 -0.015357 404.000000 0.143514 396.000000 -0.072332 403.000000 0.043890 20.000000 -0.217553 136.000000 0.076967 157.000000 -0.094977
357293.000000 2.477573 425.000000 417.000000 310.000000 -0.065502 369.000000 0.062944 387.000000 -0.029719 398.000000 0.238777 27.000000 -0.183369 131.000000 0.087366 156.000000 -0.110098
358130.000000 2.371031 420.000000 424.000000 385.000000 -0.048838 403.000000 0.268921 400.000000 -0.014684 407.000000 0.422463 20.000000 -0.253606 135.000000 0.078120 158.000000 -0.120087
359752.000000 2.400409 795.000000 410.000000 356.000000 -0.009921 389.000000 0.264972 386.000000 -0.023618 393.000000 0.428781 24.000000 -0.217160 146.000000 0.134015 184.000000 -0.089204
360162.000000 2.118324 410.000000 441.000000 383.000000 0.012446 420.000000 0.184328 413.000000 -0.047725 420.000000 0.184328 21.000000 -0.210909 133.000000 0.089942 160.000000 -0.057522
360603.000000 2.359063 441.000000 411.000000 318.000000 -0.053825 368.000000 0.058996 386.000000 -0.046520 396.000000 0.449937 24.000000 -0.189902 134.000000 0.099358 160.000000 -0.078546
361436.000000 2.315817 422.000000 420.000000 359.000000 -0.006164 399.000000 0.334200 393.000000 -0.099059 400.000000 0.393996 22.000000 -0.171877 133.000000 0.110735 158.000000 -0.098294
363104.000000 2.377854 836.000000 412.000000 358.000000 0.005940 391.000000 0.167993 389.000000 -0.025676 396.000000 0.419544 22.000000 -0.229325 136.000000 0.091790 165.000000 -0.093400
364735.000000 2.393950 412.000000 807.000000 494.000000 -0.338333 533.000000 0.087948 555.000000 -0.058102 788.000000 0.144971 21.000000 -0.263053 398.000000 2.225034 431.000000 -0.184199
365961.000000 2.200127 419.000000 420.000000 366.000000 -0.030267 399.000000 0.302034 388.000000 -0.057494 395.000000 -0.077149 23.000000 -0.150927 136.000000 0.090269 157.000000 -0.063963
367644.000000 2.326835 419.000000 845.000000 787.000000 -0.021616 824.000000 0.177728 816.000000 -0.040205 823.000000 0.053057 23.000000 -0.168824 429.000000 2.344703 458.000000 -0.176020
371454.000000 2.404688 838.000000 427.000000 372.000000 -0.003603 406.000000 0.299829 401.000000 -0.074545 408.000000 0.439939 25.000000 -0.167726 141.000000 0.081417 165.000000 -0.065717
371881.000000 2.235222 427.000000 402.000000 348.000000 -0.045638 381.000000 0.009049 374.000000 -0.085794 381.000000 0.009049 24.000000 -0.120123 134.000000 0.081150 159.000000 -0.045638
372283.000000 2.443263 402.000000 431.000000 392.000000 -0.013276 410.000000 0.165203 407.000000 -0.027289 414.000000 0.481426 22.000000 -0.285188 237.000000 0.070519 283.000000 -0.035267
374822.000000 2.445765 420.000000 407.000000 354.000000 -0.000078 386.000000 0.148654 381.000000 -0.068697 388.000000 0.377619 24.000000 -0.176645 125.000000 0.060493 155.000000 -0.152534
375654.000000 2.463106 425.000000 824.000000 771.000000 -0.012431 803.000000 0.106990 797.000000 -0.080504 804.000000 0.221551 24.000000 -0.181392 396.000000 0.842710 495.000000 -0.218170
376878.000000 2.183733 400.000000 1230.000000 794.000000 -0.044936 832.000000 2.208543 861.000000 -0.143899 1207.000000 -0.075000 19.000000 -0.169874 409.000000 0.843376 505.000000 -0.210160
378957.000000 2.375516 849.000000 414.000000 355.000000 0.028215 393.000000 0.199376 387.000000 -0.037959 394.000000 0.303843 27.000000 -0.163136 143.000000 0.086834 181.000000 -0.086559
381020.000000 2.103652 836.000000 406.000000 333.000000 -0.018887 361.000000 0.099231 379.000000 -0.015235 391.000000 0.537915 20.000000 -0.245750 133.000000 0.169065 158.000000 -0.010993
384135.000000 2.362997 1275.000000 1228.000000 797.000000 -0.080405 834.000000 2.317209 858.000000 -0.179937 1211.000000 0.464686 26.000000 -0.132316 339.000000 0.648855 362.000000 -0.949484
389539.000000 2.257382 402.000000 429.000000 374.000000 -0.033469 408.000000 0.208010 402.000000 -0.092853 409.000000 0.293277 28.000000 -0.180171 142.000000 0.115995 181.000000 -0.060989
390820.000000 2.420001 437.000000 416.000000 312.000000 -0.066488 370.000000 0.068619 389.000000 -0.045863 398.000000 0.348683 20.000000 -0.204484 130.000000 0.091751 157.000000 -0.089459
391707.000000 2.264219 471.000000 442.000000 390.000000 -0.025861 421.000000 0.123464 414.000000 -0.059685 421.000000 0.123464 24.000000 -0.188618 144.000000 0.089034 177.000000 -0.053127
393426.000000 2.232145 835.000000 408.000000 355.000000 -0.009922 387.000000 0.229107 382.000000 -0.100219 389.000000 0.379280 20.000000 -0.158401 133.000000 0.109500 164.000000 -0.055649
393834.000000 2.401348 408.000000 1271.000000 817.000000 -0.072395 845.000000 2.435330 874.000000 -0.184873 1253.000000 0.458761 23.000000 -0.176333 418.000000 2.146974 447.000000 -0.133405
395105.000000 2.116458 1271.000000 414.000000 358.000000 -0.000472 393.000000 0.278842 390.000000 0.008167 397.000000 0.399297 18.000000 -0.210312 135.000000 0.139355 157.000000 -0.049560
396364.000000 2.366329 415.000000 417.000000 376.000000 -0.025096 396.000000 0.203795 393.000000 -0.044653 400.000000 0.466805 23.000000 -0.255471 138.000000 0.084925 162.000000 -0.051530
397185.000000 2.434216 404.000000 413.000000 356.000000 -0.022886 392.000000 0.092114 388.000000 -0.094344 395.000000 0.379042 23.000000 -0.194153 133.000000 0.069047 157.000000 -0.109155
398005.000000 2.410329 407.000000 424.000000 366.000000 -0.034453 403.000000 0.179876 401.000000 -0.039451 408.000000 0.393904 17.000000 -0.350456 129.000000 0.092754 156.000000 -0.121542
398838.000000 2.336850 409.000000 407.000000 350.000000 0.030281 386.000000 0.313278 383.000000 -0.015124 390.000000 0.381524 16.000000 -0.301301 136.000000 0.097070 157.000000 -0.065096
399245.000000 2.030771 407.000000 424.000000 386.000000 -0.073669 403.000000 0.217164 400.000000 -0.063433 407.000000 0.373559 20.000000 -0.182570 138.000000 0.099978 159.000000 -0.048015
399669.000000 2.300220 424.000000 401.000000 346.000000 -0.011535 380.000000 0.186925 371.000000 -0.058261 378.000000 0.011799 22.000000 -0.291847 134.000000 0.088102 158.000000 -0.090537
400497.000000 2.357103 427.000000 399.000000 360.000000 -0.054860 378.000000 0.291647 375.000000 0.022806 382.000000 0.445346 21.000000 -0.275311 138.000000 0.100392 170.000000 -0.059015
400896.000000 2.213857 399.000000 433.000000 378.000000 -0.040810 412.000000 0.222653 404.000000 -0.079776 411.000000 0.127904 22.000000 -0.144859 144.000000 0.082447 161.000000 -0.036988
401329.000000 2.413281 433.000000 431.000000 377.000000 -0.009401 410.000000 0.193981 406.000000 -0.083730 413.000000 0.432554 24.000000 -0.156361 132.000000 0.102682 160.000000 -0.079938
401760.000000 2.169027 431.000000 847.000000 790.000000 -0.021314 826.000000 0.123076 823.000000 -0.090514 830.000000 0.461493 25.000000 -0.124296 413.000000 2.364732 441.000000 -0.209562
403030.000000 2.386115 423.000000 427.000000 339.000000 -0.043528 378.000000 0.051725 395.000000 -0.050798 403.000000 -0.074355 23.000000 -0.195206 137.000000 0.094113 159.000000 -0.082752
403891.000000 2.417760 434.000000 437.000000 378.000000 -0.022871 416.000000 0.166032 408.000000 -0.069344 415.000000 0.047302 19.000000 -0.233809 139.000000 0.083771 159.000000 -0.098111
408157.000000 2.359358 423.000000 431.000000 374.000000 -0.013886 410.000000 0.136365 404.000000 -0.085282 411.000000 0.240832 23.000000 -0.254108 144.000000 0.096877 179.000000 -0.077217
409015.000000 2.410141 427.000000 436.000000 392.000000 -0.020546 415.000000 0.365537 403.000000 -0.056691 410.000000 -0.039699 24.000000 -0.151503 135.000000 0.111092 165.000000 -0.072437
409451.000000 2.230083 436.000000 438.000000 384.000000 -0.017585 417.000000 0.289248 408.000000 -0.062633 415.000000 0.099938 23.000000 -0.147992 143.000000 0.092931 179.000000 -0.047225
411647.000000 2.422271 447.000000 423.000000 367.000000 -0.019041 402.000000 0.300642 397.000000 -0.083792 404.000000 0.444921 24.000000 -0.182809 140.000000 0.092816 160.000000 -0.091026
413781.000000 2.412040 429.000000 849.000000 794.000000 -0.001002 828.000000 0.236128 821.000000 -0.067946 828.000000 0.236128 29.000000 -0.164464 409.000000 2.344013 439.000000 -0.173324
415043.000000 2.341346 413.000000 424.000000 368.000000 -0.020709 403.000000 0.115094 399.000000 -0.074609 406.000000 0.419233 21.000000 -0.214577 135.000000 0.094352 160.000000 -0.058557
415467.000000 2.362823 424.000000 415.000000 362.000000 -0.031157 394.000000 0.239219 388.000000 -0.097960 395.000000 0.333811 22.000000 -0.177210 141.000000 0.104702 183.000000 -0.083829
415882.000000 2.386335 415.000000 430.000000 371.000000 -0.018905 409.000000 0.258224 401.000000 -0.053421 408.000000 0.148679 21.000000 -0.228040 138.000000 0.063536 166.000000 -0.063436
418384.000000 2.214216 822.000000 410.000000 360.000000 0.005736 389.000000 0.124265 390.000000 0.244452 394.000000 0.395143 25.000000 -0.158274 133.000000 0.103929 163.000000 -0.045554
419191.000000 2.369048 397.000000 413.000000 355.000000 -0.021241 392.000000 0.357632 387.000000 -0.071303 394.000000 0.445438 22.000000 -0.164432 129.000000 0.095726 158.000000 -0.103463
421220.000000 2.197776 399.000000 408.000000 351.000000 -0.014767 387.000000 0.077521 381.000000 -0.072025 388.000000 0.192443 24.000000 -0.130093 140.000000 0.096099 159.000000 -0.031033
422467.000000 2.431146 432.000000 422.000000 385.000000 -0.077024 401.000000 0.359874 392.000000 -0.074563 399.000000 0.206190 23.000000 -0.201096 143.000000 0.069285 173.000000 -0.088931
422889.000000 2.226973 422.000000 424.000000 368.000000 -0.015249 403.000000 0.107462 396.000000 -0.068102 403.000000 0.107462 24.000000 -0.178918 138.000000 0.067703 160.000000 -0.074730
423313.000000 2.414247 424.000000 422.000000 317.000000 -0.014405 378.000000 0.111194 394.000000 -0.016016 402.000000 0.194611 24.000000 -0.236362 137.000000 0.062351 159.000000 -0.105656
426733.000000 2.330893 428.000000 414.000000 361.000000 -0.007323 393.000000 0.266034 386.000000 -0.100361 393.000000 0.266034 22.000000 -0.181521 139.000000 0.107800 182.000000 -0.080728
431724.000000 2.251163 417.000000 823.000000 765.000000 -0.009430 802.000000 0.263906 783.000000 -0.030764 790.000000 -0.077896 24.000000 -0.142004 405.000000 2.349876 438.000000 -0.216142
432547.000000 2.289376 823.000000 385.000000 334.000000 0.012363 364.000000 0.171066 358.000000 -0.070062 365.000000 0.265361 25.000000 -0.190141 126.000000 0.074872 154.000000 -0.155427
433739.000000 2.403559 807.000000 423.000000 370.000000 0.011381 402.000000 0.348384 397.000000 -0.075549 404.000000 0.413086 22.000000 -0.208838 134.000000 0.076042 160.000000 -0.080091
435825.000000 2.331535 424.000000 422.000000 367.000000 0.005873 401.000000 0.127600 396.000000 -0.094907 403.000000 0.331692 24.000000 -0.186337 137.000000 0.075354 161.000000 -0.077751
438748.000000 2.328431 406.000000 255.000000 200.000000 -0.078260 234.000000 0.270077 242.000000 -0.147243 249.000000 1.131802 19.000000 -0.303558 137.000000 -0.009829 156.000000 -0.143025
439478.000000 2.422904 475.000000 434.000000 383.000000 0.005628 413.000000 0.195878 410.000000 -0.046959 417.000000 0.453120 20.000000 -0.260468 139.000000 0.091843 163.000000 -0.108140
439912.000000 2.231332 434.000000 440.000000 402.000000 -0.060699 419.000000 0.226243 414.000000 -0.081828 421.000000 0.380241 18.000000 -0.183040 146.000000 0.107216 181.000000 -0.022424
441611.000000 2.158058 420.000000 425.000000 388.000000 -0.050244 404.000000 0.333955 397.000000 -0.084383 404.000000 0.333955 20.000000 -0.181680 140.000000 0.068675 158.000000 -0.075793
442036.000000 2.380303 425.000000 827.000000 756.000000 -0.034966 785.000000 0.078185 803.000000 -0.077442 809.000000 0.314297 24.000000 -0.209398 415.000000 2.182995 439.000000 -0.164623
443695.000000 2.184782 832.000000 415.000000 374.000000 -0.051256 394.000000 0.264698 391.000000 -0.005239 398.000000 0.363963 25.000000 -0.160315 135.000000 0.092081 160.000000 -0.091774
444953.000000 2.205110 407.000000 837.000000 783.000000 0.003936 816.000000 0.096426 796.000000 0.043104 803.000000 -0.052476 18.000000 -0.271049 423.000000 2.198981 455.000000 -0.191208
447041.000000 2.335504 423.000000 419.000000 381.000000 -0.041241 398.000000 0.099106 388.000000 -0.056993 395.000000 -0.084641 20.000000 -0.222584 138.000000 0.067065 157.000000 -0.105994
449126.000000 2.311047 401.000000 430.000000 376.000000 -0.002946 409.000000 0.155425 407.000000 -0.024796 414.000000 0.401538 20.000000 -0.191442 134.000000 0.095302 164.000000 -0.049113
452004.000000 2.225704 405.000000 415.000000 357.000000 -0.043192 394.000000 0.310364 386.000000 -0.095342 393.000000 0.240849 22.000000 -0.249232 160.000000 0.077182 185.000000 -0.048256
453644.000000 2.314485 827.000000 419.000000 380.000000 -0.072604 398.000000 0.263887 395.000000 0.004169 402.000000 0.373307 23.000000 -0.160408 136.000000 0.065837 159.000000 -0.073896
454475.000000 2.315438 412.000000 410.000000 308.000000 -0.049764 367.000000 0.103010 384.000000 -0.059012 393.000000 0.467602 22.000000 -0.176473 127.000000 0.057384 155.000000 -0.119342
456130.000000 2.370959 417.000000 420.000000 366.000000 -0.028572 399.000000 0.056852 394.000000 -0.042333 401.000000 0.276287 24.000000 -0.157148 140.000000 0.076003 160.000000 -0.068075
456550.000000 2.483371 420.000000 415.000000 360.000000 -0.005988 394.000000 0.181254 393.000000 0.086913 400.000000 0.298090 25.000000 -0.183790 142.000000 0.116389 179.000000 -0.060317
460337.000000 2.205171 432.000000 434.000000 380.000000 0.008396 413.000000 0.225173 404.000000 -0.029311 411.000000 0.000423 25.000000 -0.154312 137.000000 0.086708 156.000000 -0.107868
460771.000000 2.359624 434.000000 422.000000 366.000000 -0.013258 401.000000 0.283166 392.000000 -0.069341 399.000000 0.098966 20.000000 -0.226270 137.000000 0.097064 163.000000 -0.090268
462049.000000 2.367163 425.000000 428.000000 376.000000 -0.020378 407.000000 0.127523 400.000000 -0.054468 407.000000 0.127523 23.000000 -0.164217 132.000000 0.084979 137.000000 0.069446
462477.000000 2.357427 428.000000 415.000000 359.000000 -0.005866 394.000000 0.209263 391.000000 -0.059185 398.000000 0.452305 22.000000 -0.266631 138.000000 0.070011 170.000000 -0.069207
462892.000000 2.327571 415.000000 428.000000 373.000000 -0.014106 407.000000 0.310203 399.000000 -0.074184 406.000000 0.210125 22.000000 -0.159686 140.000000 0.104150 164.000000 -0.056386
463320.000000 2.178558 428.000000 399.000000 298.000000 -0.060328 355.000000 0.070033 372.000000 -0.035955 380.000000 0.117196 26.000000 -0.153293 133.000000 0.079749 159.000000 -0.087556
464567.000000 2.378603 417.000000 424.000000 384.000000 -0.057087 403.000000 0.325315 407.000000 0.333481 408.000000 0.187995 21.000000 -0.259423 138.000000 0.068850 161.000000 -0.098032
464991.000000 2.164171 424.000000 427.000000 375.000000 -0.023998 406.000000 0.113037 400.000000 -0.078953 407.000000 0.222551 15.000000 -0.337537 142.000000 0.091624 179.000000 -0.041000
465418.000000 2.424575 427.000000 433.000000 386.000000 0.038167 412.000000 0.420848 398.000000 -0.033416 405.000000 -0.077240 22.000000 -0.234075 137.000000 0.077211 161.000000 -0.082710
466700.000000 2.109908 421.000000 408.000000 352.000000 -0.029636 387.000000 0.198074 379.000000 -0.059716 386.000000 0.083498 23.000000 -0.149389 139.000000 0.080081 159.000000 -0.069464
467967.000000 2.439408 433.000000 409.000000 329.000000 -0.048277 388.000000 0.109246 378.000000 -0.055066 385.000000 -0.063968 23.000000 -0.196659 134.000000 0.091323 158.000000 -0.068163
469628.000000 2.422165 835.000000 408.000000 315.000000 -0.067852 366.000000 0.041993 380.000000 -0.044042 388.000000 0.107982 21.000000 -0.172709 130.000000 0.099098 159.000000 -0.131062
470451.000000 2.430436 415.000000 408.000000 354.000000 -0.008085 387.000000 0.255537 384.000000 -0.057661 391.000000 0.414015 22.000000 -0.241131 146.000000 0.086362 179.000000 -0.074198
472099.000000 2.320219 416.000000 405.000000 351.000000 0.015942 384.000000 0.127852 378.000000 -0.046051 385.000000 0.227633 25.000000 -0.178462 143.000000 0.087355 175.000000 -0.075716
473311.000000 2.236705 807.000000 395.000000 343.000000 0.017743 374.000000 0.303512 366.000000 -0.041347 373.000000 0.244656 22.000000 -0.213764 133.000000 0.066991 174.000000 -0.057963
473706.000000 2.322306 395.000000 393.000000 345.000000 -0.035863 372.000000 0.134028 374.000000 0.321990 377.000000 0.409624 20.000000 -0.242115 136.000000 0.165002 166.000000 -0.064561
474826.000000 2.194530 361.000000 349.000000 308.000000 -0.059972 328.000000 0.294761 323.000000 0.006627 330.000000 0.333930 20.000000 -0.243608 131.000000 0.157605 161.000000 -0.103730
475537.000000 2.128295 362.000000 373.000000 321.000000 0.068404 352.000000 0.289359 347.000000 0.020269 354.000000 0.333841 23.000000 -0.255363 129.000000 0.188857 157.000000 -0.045642
475910.000000 2.168259 373.000000 361.000000 305.000000 0.011911 340.000000 0.170544 334.000000 -0.077559 341.000000 0.225246 22.000000 -0.286255 139.000000 0.130439 160.000000 -0.058011
476636.000000 2.050327 365.000000 371.000000 319.000000 0.007931 350.000000 0.220441 357.000000 0.071334 357.000000 0.071334 21.000000 -0.268700 135.000000 0.149609 155.000000 -0.051052
477007.000000 2.267995 371.000000 373.000000 322.000000 0.005647 352.000000 0.159186 344.000000 -0.078727 351.000000 0.094955 19.000000 -0.352490 136.000000 0.105808 159.000000 -0.066086
477762.000000 2.174249 382.000000 383.000000 328.000000 0.026095 362.000000 0.068136 360.000000 -0.050375 367.000000 0.314421 18.000000 -0.272116 138.000000 0.160934 186.000000 -0.020736
478145.000000 2.290580 383.000000 376.000000 323.000000 0.002366 355.000000 0.240702 352.000000 -0.010365 359.000000 0.365970 21.000000 -0.313542 139.000000 0.115389 157.000000 -0.094423
478521.000000 2.141644 376.000000 400.000000 325.000000 -0.014971 379.000000 0.184855 372.000000 -0.096822 379.000000 0.184855 20.000000 -0.345580 135.000000 0.167251 180.000000 -0.024804
478921.000000 2.286222 400.000000 386.000000 331.000000 0.011753 365.000000 0.080438 357.000000 -0.061460 364.000000 0.015736 23.000000 -0.235546 132.000000 0.181607 159.000000 -0.073299
480861.000000 2.298278 390.000000 800.000000 491.000000 -0.272772 534.000000 0.138618 559.000000 -0.062200 783.000000 0.289590 22.000000 -0.290609 401.000000 2.175878 432.000000 -0.234402
482078.000000 2.160084 417.000000 421.000000 367.000000 0.016677 400.000000 0.247055 392.000000 -0.066833 399.000000 0.192102 20.000000 -0.273147 136.000000 0.151259 180.000000 -0.055650
482904.000000 2.184591 405.000000 433.000000 337.000000 -0.035423 389.000000 0.117758 405.000000 -0.021866 412.000000 0.021411 23.000000 -0.317448 134.000000 0.134528 164.000000 -0.047293
483337.000000 2.243089 433.000000 403.000000 348.000000 -0.009134 382.000000 0.215379 371.000000 -0.093727 378.000000 0.007541 22.000000 -0.240926 134.000000 0.129225 161.000000 -0.069675
484157.000000 2.321250 417.000000 388.000000 288.000000 -0.038155 326.000000 0.074400 337.000000 0.038884 370.000000 0.270125 21.000000 -0.310428 131.000000 0.114935 154.000000 -0.121928
485717.000000 2.209513 391.000000 389.000000 333.000000 0.021647 368.000000 0.146427 363.000000 -0.051785 370.000000 0.265643 22.000000 -0.265345 144.000000 0.112809 184.000000 -0.055375
486881.000000 2.356802 380.000000 398.000000 294.000000 -0.068936 338.000000 0.086625 346.000000 0.031876 381.000000 0.350264 24.000000 -0.273134 135.000000 0.084964 159.000000 -0.069078
487661.000000 2.341836 382.000000 392.000000 336.000000 0.025453 371.000000 0.191192 363.000000 -0.043888 370.000000 0.096850 26.000000 -0.233024 147.000000 0.101884 183.000000 -0.055717
488834.000000 2.265613 380.000000 410.000000 357.000000 0.040045 389.000000 0.196377 379.000000 -0.006804 386.000000 -0.018121 25.000000 -0.236301 138.000000 0.109732 157.000000 -0.052969
489244.000000 2.307883 410.000000 384.000000 328.000000 0.020033 363.000000 0.166479 354.000000 -0.021109 361.000000 0.007420 25.000000 -0.234361 137.000000 0.097293 160.000000 -0.071359
489628.000000 2.311058 384.000000 415.000000 355.000000 0.033729 394.000000 0.234076 391.000000 0.010299 398.000000 0.347431 24.000000 -0.276375 139.000000 0.122733 182.000000 -0.042743
490829.000000 2.200894 786.000000 400.000000 348.000000 0.029984 379.000000 0.144581 370.000000 -0.047302 377.000000 0.035208 21.000000 -0.279279 137.000000 0.098749 157.000000 -0.030892
491229.000000 2.327229 400.000000 387.000000 332.000000 0.015219 366.000000 0.145171 356.000000 -0.055926 363.000000 -0.023544 21.000000 -0.274293 132.000000 0.096146 155.000000 -0.088481
492794.000000 2.351756 388.000000 387.000000 330.000000 0.037620 366.000000 0.171695 356.000000 -0.060123 363.000000 -0.017583 20.000000 -0.316095 135.000000 0.083620 159.000000 -0.083655
493181.000000 2.264909 387.000000 384.000000 330.000000 0.037084 363.000000 0.145487 355.000000 -0.025533 362.000000 0.066051 23.000000 -0.221990 128.000000 0.100020 156.000000 -0.103010
495165.000000 2.144736 411.000000 394.000000 288.000000 -0.085533 350.000000 0.090800 366.000000 -0.024230 373.000000 -0.004215 22.000000 -0.226377 135.000000 0.106782 156.000000 -0.063830
495559.000000 2.326803 394.000000 397.000000 345.000000 0.008431 376.000000 0.133600 370.000000 -0.053359 377.000000 0.208052 25.000000 -0.208968 138.000000 0.111406 174.000000 -0.036180
496765.000000 2.299549 397.000000 416.000000 359.000000 0.013747 395.000000 0.110626 393.000000 -0.043418 400.000000 0.363854 27.000000 -0.224639 132.000000 0.124417 166.000000 -0.067923
497564.000000 2.269749 383.000000 404.000000 349.000000 0.036661 383.000000 0.180468 380.000000 0.001925 387.000000 0.373602 19.000000 -0.314546 138.000000 0.101644 173.000000 -0.052238
497968.000000 2.327034 404.000000 380.000000 326.000000 0.022540 359.000000 0.208776 346.000000 -0.060847 353.000000 -0.073590 21.000000 -0.250632 136.000000 0.098366 160.000000 -0.058734
498348.000000 2.253981 380.000000 392.000000 324.000000 -0.005690 371.000000 0.168151 364.000000 -0.034591 371.000000 0.168151 24.000000 -0.231537 137.000000 0.092734 159.000000 -0.056753
499135.000000 2.304106 395.000000 389.000000 337.000000 0.025376 368.000000 0.087749 364.000000 -0.070778 371.000000 0.336980 19.000000 -0.348248 132.000000 0.117761 157.000000 -0.093540
499524.000000 2.203263 389.000000 395.000000 335.000000 -0.001207 352.000000 0.079637 369.000000 -0.082572 379.000000 0.326113 19.000000 -0.269246 135.000000 0.110648 158.000000 -0.033552
499919.000000 2.337070 395.000000 386.000000 334.000000 0.024688 365.000000 0.177021 352.000000 -0.056317 359.000000 -0.044294 21.000000 -0.275596 137.000000 0.106972 161.000000 -0.024096
500305.000000 2.225217 386.000000 389.000000 298.000000 -0.087084 343.000000 0.098889 360.000000 -0.057898 367.000000 0.012762 24.000000 -0.220986 137.000000 0.106154 161.000000 -0.015114
501080.000000 2.182349 386.000000 383.000000 330.000000 0.016822 362.000000 0.093310 355.000000 -0.070201 362.000000 0.093310 23.000000 -0.263765 142.000000 0.116354 171.000000 -0.027756
502228.000000 2.263400 382.000000 372.000000 319.000000 0.021039 351.000000 0.168562 352.000000 0.223060 355.000000 0.357245 20.000000 -0.271350 124.000000 0.091939 154.000000 -0.129329
503350.000000 2.131318 376.000000 759.000000 720.000000 -0.055925 738.000000 0.173808 734.000000 -0.054405 741.000000 0.362523 20.000000 -0.288371 375.000000 2.236865 405.000000 -0.216960
504489.000000 2.277351 380.000000 779.000000 726.000000 -0.004455 758.000000 0.174325 751.000000 -0.082917 758.000000 0.174325 22.000000 -0.232647 380.000000 2.153980 404.000000 -0.266834
505268.000000 2.296254 779.000000 777.000000 723.000000 -0.001287 756.000000 0.129391 751.000000 -0.098792 758.000000 0.263796 21.000000 -0.259122 408.000000 0.725577 516.000000 -0.204143
506419.000000 2.163515 374.000000 747.000000 694.000000 0.024373 726.000000 0.151977 719.000000 -0.068447 726.000000 0.151977 20.000000 -0.323495 350.000000 0.808873 456.000000 -0.188532
507542.000000 2.336929 376.000000 787.000000 733.000000 -0.037397 766.000000 0.252025 758.000000 -0.088871 765.000000 0.222541 22.000000 -0.201708 383.000000 0.812787 488.000000 -0.186009
509860.000000 2.259943 393.000000 369.000000 303.000000 -0.037694 348.000000 0.166447 346.000000 0.012450 353.000000 0.358437 26.000000 -0.218741 134.000000 0.087711 136.000000 0.077649
510986.000000 2.320673 376.000000 385.000000 315.000000 -0.007197 339.000000 0.070044 356.000000 -0.082180 358.000000 -0.053857 14.000000 -0.379155 131.000000 0.094185 159.000000 -0.093020
511371.000000 2.384514 385.000000 382.000000 345.000000 -0.049511 361.000000 0.168155 356.000000 -0.063381 363.000000 0.312183 22.000000 -0.214936 130.000000 0.107925 155.000000 -0.134033
511753.000000 2.288043 382.000000 384.000000 264.000000 -0.047101 324.000000 0.090128 349.000000 -0.052114 357.000000 -0.074513 19.000000 -0.309795 130.000000 0.105242 156.000000 -0.053520
512520.000000 2.258763 383.000000 393.000000 338.000000 0.032572 372.000000 0.127916 370.000000 -0.026206 377.000000 0.326052 21.000000 -0.274294 136.000000 0.109836 159.000000 -0.049789
513297.000000 2.242258 384.000000 397.000000 337.000000 0.001458 376.000000 0.288763 355.000000 -0.039029 362.000000 -0.065377 25.000000 -0.228951 129.000000 0.096067 157.000000 -0.096727
513694.000000 2.249765 397.000000 381.000000 327.000000 0.056411 360.000000 0.091925 340.000000 0.015110 347.000000 -0.049437 24.000000 -0.271834 136.000000 0.079564 156.000000 -0.106630
514075.000000 2.249185 381.000000 376.000000 272.000000 -0.049183 333.000000 0.110454 348.000000 -0.035957 349.000000 -0.041428 24.000000 -0.204122 128.000000 0.120626 158.000000 -0.104996
514451.000000 2.332833 376.000000 368.000000 298.000000 -0.023417 325.000000 0.082773 336.000000 -0.051443 343.000000 -0.046444 24.000000 -0.243590 132.000000 0.089569 157.000000 -0.113878
514819.000000 2.253994 368.000000 387.000000 336.000000 0.040626 366.000000 0.169905 363.000000 -0.050692 370.000000 0.346504 25.000000 -0.232050 140.000000 0.101528 169.000000 -0.046185
515206.000000 2.299984 387.000000 377.000000 321.000000 -0.014103 356.000000 0.271098 336.000000 -0.100780 343.000000 -0.040045 20.000000 -0.311693 126.000000 0.071144 152.000000 -0.115503
515583.000000 2.353760 377.000000 392.000000 335.000000 0.052117 371.000000 0.134151 359.000000 -0.035676 366.000000 -0.052087 24.000000 -0.236554 135.000000 0.078166 157.000000 -0.070625
516345.000000 2.243515 370.000000 381.000000 327.000000 0.026818 360.000000 0.130879 356.000000 -0.044340 363.000000 0.330864 24.000000 -0.198730 130.000000 0.139318 157.000000 -0.081796
516726.000000 2.242010 381.000000 383.000000 330.000000 -0.001549 362.000000 0.145974 360.000000 0.017823 367.000000 0.311537 22.000000 -0.290592 133.000000 0.091876 165.000000 -0.060218
517493.000000 2.230209 384.000000 382.000000 327.000000 0.027555 361.000000 0.205704 359.000000 0.061645 366.000000 0.354717 19.000000 -0.360338 137.000000 0.093822 140.000000 0.077491
