4201.000000 0.948701 225.000000 216.000000 152.000000 -0.052100 175.000000 0.002163 178.000000 -0.046380 196.000000 -0.055253 15.000000 -0.199041 81.000000 0.136556 83.000000 0.096666
4880.000000 1.047431 233.000000 255.000000 120.000000 0.011474 191.000000 0.018577 211.000000 -0.020719 235.000000 -0.027397 16.000000 -0.218402 97.000000 0.162350 113.000000 0.046003
8726.000000 1.926474 331.000000 445.000000 347.000000 0.002416 370.000000 0.094829 374.000000 0.084406 424.000000 -0.066594 17.000000 -0.437901 169.000000 0.173566 171.000000 0.161497
16695.000000 1.018995 312.000000 470.000000 261.000000 0.703603 282.000000 0.337770 306.000000 0.027017 453.000000 -0.066082 15.000000 -0.146914 261.000000 0.703603 306.000000 0.027017
17666.000000 1.019672 501.000000 535.000000 482.000000 0.095550 508.000000 0.131569 510.000000 0.017024 514.000000 -0.041378 15.000000 -0.211016 286.000000 0.753684 330.000000 0.087289
19606.000000 2.055646 173.000000 310.000000 148.000000 0.049547 192.000000 0.186284 232.000000 0.093841 291.000000 -0.038635 20.000000 -0.304074 155.000000 0.166411 185.000000 0.110971
21873.000000 1.284499 482.000000 516.000000 263.000000 0.850301 314.000000 0.163202 338.000000 -0.013082 500.000000 -0.066814 13.000000 -0.108307 265.000000 0.891931 338.000000 -0.013082
30597.000000 1.199373 310.000000 530.000000 278.000000 0.832773 320.000000 0.294075 373.000000 -0.192365 505.000000 0.021848 13.000000 -0.238714 281.000000 0.920108 373.000000 -0.192365
34159.000000 1.219091 249.000000 250.000000 90.000000 0.085031 190.000000 0.031569 214.000000 -0.002806 232.000000 -0.020533 16.000000 -0.131190 88.000000 0.097382 90.000000 0.085031
41732.000000 1.174783 567.000000 546.000000 447.000000 -0.102711 483.000000 0.153260 502.000000 0.037854 528.000000 -0.039750 11.000000 -0.360436 279.000000 0.910295 398.000000 -0.243541
44569.000000 1.153649 505.000000 492.000000 267.000000 0.689655 296.000000 0.237570 333.000000 -0.031253 475.000000 0.047291 13.000000 -0.153968 266.000000 0.689718 268.000000 0.689561
48374.000000 1.019483 516.000000 336.000000 250.000000 0.018058 275.000000 0.064938 278.000000 0.053449 320.000000 -0.042649 16.000000 -0.260033 138.000000 0.071691 156.000000 0.055000
48710.000000 1.181206 336.000000 306.000000 197.000000 -0.008951 243.000000 0.033339 270.000000 -0.003903 290.000000 -0.028653 14.000000 -0.163921 107.000000 0.113024 142.000000 -0.000047
49016.000000 1.007113 306.000000 258.000000 142.000000 -0.086753 191.000000 0.040187 211.000000 -0.038905 239.000000 -0.040268 14.000000 -0.161712 94.000000 0.106210 125.000000 0.002685
50385.000000 1.238694 271.000000 275.000000 143.000000 -0.042617 197.000000 0.056647 217.000000 -0.027647 254.000000 -0.074842 15.000000 -0.091601 111.000000 0.122573 143.000000 -0.042617
50660.000000 1.100220 275.000000 268.000000 170.000000 -0.071175 203.000000 0.033073 205.000000 0.011239 251.000000 -0.031522 15.000000 -0.159060 102.000000 0.087055 109.000000 0.078183
52200.000000 1.323025 244.000000 285.000000 155.000000 -0.089609 204.000000 0.191269 241.000000 -0.020518 263.000000 -0.015737 15.000000 -0.116708 97.000000 0.219156 145.000000 -0.002884
52784.000000 0.979933 299.000000 280.000000 162.000000 -0.013384 208.000000 0.050426 215.000000 0.025944 260.000000 -0.104185 15.000000 -0.218248 102.000000 0.123603 108.000000 0.098306
53541.000000 1.016518 240.000000 248.000000 187.000000 -0.029042 224.000000 0.079404 216.000000 -0.067742 223.000000 0.054404 15.000000 -0.139047 95.000000 0.173604 131.000000 -0.082838
53789.000000 1.279530 248.000000 249.000000 81.000000 0.140546 165.000000 0.149015 183.000000 0.007900 240.000000 0.356788 17.000000 -0.116303 104.000000 0.280470 171.000000 -0.082178
58608.000000 1.094669 255.000000 271.000000 169.000000 -0.035577 199.000000 0.001834 200.000000 -0.003902 251.000000 -0.060878 15.000000 -0.129096 103.000000 0.136259 147.000000 -0.036594
61148.000000 1.200031 264.000000 289.000000 213.000000 -0.025771 238.000000 0.037159 255.000000 -0.099424 271.000000 -0.073358 17.000000 -0.163652 114.000000 0.154936 167.000000 -0.045286
63633.000000 0.938917 188.000000 576.000000 366.000000 -0.058414 406.000000 0.265725 429.000000 0.144485 558.000000 -0.033258 10.000000 -0.854783 227.000000 2.218512 261.000000 -0.693841
64209.000000 1.180048 576.000000 240.000000 145.000000 -0.074574 173.000000 0.290991 233.000000 0.402855 234.000000 0.416083 16.000000 -0.136159 108.000000 0.180910 145.000000 -0.074574
64628.000000 2.029103 179.000000 309.000000 54.000000 -0.930155 186.000000 0.236272 202.000000 0.170694 290.000000 0.009391 19.000000 -0.481555 175.000000 0.242887 183.000000 0.216679
68514.000000 1.104040 516.000000 523.000000 270.000000 0.825095 314.000000 0.126428 398.000000 -0.182629 506.000000 -0.012368 15.000000 -0.180896 268.000000 0.844844 270.000000 0.825095
69532.000000 1.039718 495.000000 568.000000 316.000000 0.584782 341.000000 0.324125 374.000000 0.029185 556.000000 0.165764 14.000000 -0.201144 318.000000 0.609642 374.000000 0.029185
70100.000000 1.138865 568.000000 519.000000 292.000000 0.726762 312.000000 0.486308 379.000000 -0.157315 504.000000 -0.062803 15.000000 -0.299613 294.000000 0.766354 379.000000 -0.157315
76583.000000 1.118999 249.000000 258.000000 105.000000 0.108211 186.000000 0.013401 190.000000 0.000140 238.000000 -0.042384 15.000000 -0.087993 102.000000 0.139746 139.000000 -0.030457
76841.000000 1.057855 258.000000 260.000000 165.000000 -0.089312 197.000000 0.001253 220.000000 -0.012524 242.000000 -0.046425 14.000000 -0.084981 101.000000 0.136255 155.000000 -0.057791
77856.000000 0.993039 291.000000 249.000000 165.000000 0.066584 226.000000 0.308966 232.000000 0.318544 243.000000 0.435504 15.000000 -0.177133 91.000000 0.196772 143.000000 -0.077068
79451.000000 1.093509 282.000000 255.000000 148.000000 -0.171645 192.000000 0.244969 226.000000 -0.267192 239.000000 0.320864 14.000000 -0.128933 64.000000 0.061413 108.000000 -0.031534
81459.000000 1.078247 256.000000 504.000000 284.000000 0.627131 308.000000 0.448807 335.000000 0.085564 484.000000 0.001786 18.000000 -0.169622 270.000000 0.812476 284.000000 0.627131
83181.000000 1.045061 416.000000 231.000000 128.000000 0.256960 160.000000 0.303432 173.000000 0.257271 223.000000 0.331458 21.000000 -0.269201 131.000000 0.579374 167.000000 0.122052
87340.000000 0.937965 179.000000 326.000000 235.000000 0.034063 256.000000 0.174219 279.000000 0.049346 315.000000 0.156900 19.000000 -0.375184 81.000000 0.190001 163.000000 -0.063262
87666.000000 1.021949 326.000000 229.000000 118.000000 -0.018305 166.000000 0.185488 192.000000 -0.904606 199.000000 -0.477302 15.000000 -0.210137 33.000000 0.006680 40.000000 -0.040124
89549.000000 1.007710 265.000000 237.000000 145.000000 -0.051126 169.000000 0.150676 188.000000 -0.037443 216.000000 -0.044997 19.000000 -0.202118 67.000000 0.383383 104.000000 0.059874
90940.000000 0.977368 235.000000 234.000000 151.000000 0.034876 168.000000 0.131021 193.000000 0.106164 215.000000 -0.017380 16.000000 -0.168808 106.000000 0.165345 109.000000 0.101239
91663.000000 1.055864 254.000000 236.000000 101.000000 0.140753 164.000000 0.011988 178.000000 -0.117650 217.000000 -0.055941 16.000000 -0.273980 96.000000 0.173526 101.000000 0.140753
92140.000000 1.091613 241.000000 245.000000 168.000000 -0.020250 199.000000 -0.014467 200.000000 -0.015157 226.000000 -0.102524 8.000000 -0.074484 95.000000 0.023776 104.000000 -0.012791
95196.000000 0.923339 230.000000 481.000000 189.000000 0.067776 289.000000 0.739764 351.000000 0.024670 462.000000 -0.069767 16.000000 -0.162397 287.000000 0.734639 288.000000 0.744733
98234.000000 0.877663 250.000000 237.000000 154.000000 -0.012038 173.000000 0.039452 195.000000 -0.103809 219.000000 -0.067508 18.000000 -0.275110 115.000000 0.426161 138.000000 -0.027289
98471.000000 1.032664 237.000000 235.000000 136.000000 -0.102522 175.000000 0.280269 217.000000 -0.265735 224.000000 0.224767 15.000000 -0.229984 90.000000 0.302681 106.000000 0.062227
98907.000000 1.818167 201.000000 217.000000 93.000000 -0.337134 170.000000 0.328543 173.000000 0.219766 198.000000 0.205065 16.000000 0.045077 109.000000 0.054464 173.000000 0.219766
99361.000000 1.040503 237.000000 232.000000 176.000000 0.031958 209.000000 0.087210 208.000000 0.082241 215.000000 0.041833 17.000000 -0.117145 124.000000 0.067807 176.000000 0.031958
99998.000000 0.822556 165.000000 292.000000 183.000000 0.100142 230.000000 0.221866 254.000000 0.047619 266.000000 -0.058870 4.000000 0.388574 87.000000 0.340454 152.000000 0.018888
100748.000000 0.962681 218.000000 249.000000 153.000000 -0.112461 186.000000 0.272571 237.000000 0.232069 244.000000 0.363762 15.000000 -0.213369 105.000000 0.190174 153.000000 -0.112461
126168.000000 1.271677 243.000000 242.000000 134.000000 -0.102005 167.000000 0.440833 203.000000 0.088702 231.000000 -0.076048 17.000000 -0.125939 129.000000 0.306130 144.000000 -0.031722
129215.000000 1.278088 232.000000 203.000000 145.000000 -0.055657 176.000000 0.168699 178.000000 -0.102947 185.000000 -0.087320 16.000000 -0.227789 93.000000 0.194829 125.000000 0.014546
129418.000000 1.199763 203.000000 219.000000 128.000000 0.031394 161.000000 0.321269 187.000000 -0.037947 203.000000 0.040063 16.000000 -0.213465 74.000000 0.304071 97.000000 0.180453
139123.000000 0.887177 253.000000 259.000000 135.000000 0.193717 189.000000 0.271770 197.000000 0.038745 234.000000 0.070155 16.000000 -0.303356 134.000000 0.203576 136.000000 0.133591
139382.000000 1.048871 259.000000 256.000000 158.000000 -0.106488 196.000000 0.057224 217.000000 -0.050722 239.000000 0.002633 16.000000 -0.153088 97.000000 0.134186 118.000000 0.004122
139638.000000 1.176520 256.000000 241.000000 132.000000 -0.058869 173.000000 0.122131 198.000000 -0.022149 225.000000 0.016409 16.000000 -0.278229 92.000000 0.312433 105.000000 0.180943
145484.000000 1.066318 280.000000 276.000000 136.000000 0.060254 181.000000 0.220219 203.000000 0.137240 264.000000 0.067490 15.000000 -0.204528 90.000000 0.282214 110.000000 0.050287
146268.000000 1.200826 256.000000 173.000000 83.000000 0.058074 104.000000 0.037025 120.000000 -0.029808 147.000000 -0.131674 15.000000 -0.243766 86.000000 0.128747 102.000000 0.061775
146441.000000 1.044326 173.000000 317.000000 215.000000 0.015207 249.000000 0.112885 264.000000 0.037808 299.000000 -0.007581 19.000000 -0.283165 76.000000 0.051474 94.000000 0.016004
149157.000000 1.313090 226.000000 251.000000 79.000000 0.156444 157.000000 0.147886 209.000000 0.016633 229.000000 -0.110436 16.000000 -0.382051 83.000000 0.227038 156.000000 0.144689
160514.000000 1.281330 262.000000 206.000000 96.000000 0.106457 139.000000 0.024843 165.000000 -0.118934 186.000000 -0.070156 14.000000 -0.204749 97.000000 0.116943 139.000000 0.024843
162970.000000 1.206223 279.000000 267.000000 151.000000 0.036053 174.000000 0.071224 212.000000 -0.045014 249.000000 -0.088383 11.000000 -0.337493 106.000000 0.144233 124.000000 0.041130
165751.000000 1.153293 505.000000 493.000000 266.000000 0.774875 296.000000 0.203794 385.000000 -0.156251 483.000000 0.266110 15.000000 -0.206801 266.000000 0.774875 385.000000 -0.156251
167002.000000 1.232004 270.000000 284.000000 196.000000 0.007855 213.000000 0.067557 235.000000 -0.042426 264.000000 -0.048146 10.000000 -0.384266 118.000000 0.150126 133.000000 0.032210
167745.000000 2.272508 189.000000 287.000000 116.000000 -0.088525 174.000000 0.215363 202.000000 0.125268 271.000000 -0.077836 17.000000 -0.305408 167.000000 0.175959 174.000000 0.215363
169386.000000 0.721174 377.000000 344.000000 252.000000 -0.030925 297.000000 0.143496 316.000000 -0.097116 325.000000 0.074170 20.000000 -0.511930 161.000000 0.108480 166.000000 0.005016
171814.000000 1.061115 281.000000 241.000000 114.000000 0.101100 169.000000 0.034531 183.000000 -0.022899 223.000000 -0.063809 15.000000 -0.249654 113.000000 0.105787 114.000000 0.101100
174598.000000 1.366957 324.000000 553.000000 452.000000 -0.086017 487.000000 0.072196 488.000000 0.067870 535.000000 -0.036629 16.000000 -0.226443 268.000000 0.939862 275.000000 0.924079
178967.000000 0.673840 203.000000 292.000000 242.000000 -0.147648 271.000000 0.016068 267.000000 -0.166942 274.000000 -0.093918 17.000000 -1.896912 99.000000 1.115266 156.000000 0.081489
180767.000000 1.228870 509.000000 493.000000 274.000000 0.805737 297.000000 0.386021 349.000000 -0.035877 476.000000 -0.051269 14.000000 -0.192102 274.000000 0.805737 349.000000 -0.035877
185739.000000 1.004697 238.000000 237.000000 134.000000 -0.055786 168.000000 0.026674 190.000000 -0.033874 215.000000 -0.040050 14.000000 -0.162292 90.000000 0.077899 125.000000 -0.050423
186480.000000 1.010453 267.000000 291.000000 187.000000 -0.085988 213.000000 0.045251 216.000000 0.018496 278.000000 0.131397 13.000000 -0.224514 100.000000 0.180913 116.000000 0.132182
192568.000000 1.072147 268.000000 285.000000 116.000000 0.190990 186.000000 0.178871 215.000000 0.156551 272.000000 0.017713 14.000000 -0.195659 116.000000 0.190990 171.000000 0.099217
193125.000000 1.371411 272.000000 257.000000 152.000000 -0.065249 193.000000 0.059438 216.000000 0.000896 240.000000 -0.027193 15.000000 -0.066991 111.000000 0.204716 152.000000 -0.065249
195179.000000 1.124752 260.000000 290.000000 181.000000 -0.065766 217.000000 0.022353 242.000000 -0.034794 268.000000 -0.053369 15.000000 -0.190108 113.000000 0.125594 164.000000 -0.035985
199039.000000 1.123248 245.000000 250.000000 161.000000 -0.091328 197.000000 0.121241 217.000000 -0.025766 233.000000 -0.073229 6.000000 0.620176 57.000000 0.228262 88.000000 0.190660
199566.000000 1.123385 277.000000 303.000000 157.000000 -0.001068 204.000000 0.122726 229.000000 -0.113919 282.000000 -0.033383 16.000000 -0.048888 93.000000 0.224123 102.000000 0.153433
200130.000000 1.057916 261.000000 253.000000 197.000000 0.008558 216.000000 0.010595 233.000000 -0.042933 237.000000 -0.056851 15.000000 -0.159482 107.000000 0.100862 161.000000 0.007508
202181.000000 1.244688 262.000000 257.000000 151.000000 -0.074575 200.000000 0.155048 214.000000 0.041066 235.000000 -0.018997 14.000000 -0.155846 110.000000 0.227054 151.000000 -0.074575
207457.000000 1.198573 479.000000 740.000000 612.000000 0.130563 654.000000 0.185549 670.000000 0.140722 719.000000 -0.003761 16.000000 -0.149281 431.000000 2.205879 466.000000 -0.479826
210162.000000 1.159387 507.000000 543.000000 298.000000 0.754964 326.000000 0.405122 378.000000 -0.053594 516.000000 -0.119356 16.000000 -0.127244 298.000000 0.754964 375.000000 -0.105977
215324.000000 1.062963 543.000000 174.000000 114.000000 -0.052852 149.000000 0.127117 155.000000 -0.112678 160.000000 0.014453 15.000000 -0.181707 80.000000 0.345815 101.000000 -0.076192
220638.000000 1.180709 691.000000 539.000000 284.000000 0.802774 327.000000 0.377961 357.000000 0.181473 527.000000 0.109499 16.000000 -0.208913 281.000000 0.980485 284.000000 0.802774
221665.000000 1.173055 488.000000 486.000000 260.000000 0.974921 292.000000 0.286193 314.000000 -0.081300 465.000000 0.163293 16.000000 -0.360455 261.000000 1.030297 314.000000 -0.081300
226161.000000 1.064517 266.000000 245.000000 150.000000 -0.042821 177.000000 0.422022 179.000000 0.370454 237.000000 0.331082 15.000000 -0.203227 105.000000 0.477820 138.000000 0.075250
227195.000000 1.036629 179.000000 422.000000 311.000000 -0.038149 347.000000 0.391898 369.000000 -0.132615 401.000000 -0.080815 14.000000 -0.341396 169.000000 0.417466 233.000000 -0.114199
228744.000000 0.959152 509.000000 233.000000 135.000000 -0.011127 170.000000 0.060848 193.000000 -0.017787 215.000000 -0.047568 14.000000 -0.147025 126.000000 0.050753 135.000000 -0.011127
231170.000000 0.988933 203.000000 496.000000 276.000000 0.905692 298.000000 0.655894 344.000000 0.058605 475.000000 -0.027333 15.000000 -0.270049 278.000000 0.905863 344.000000 0.058605
234431.000000 0.761589 125.000000 348.000000 265.000000 0.002728 285.000000 0.092005 299.000000 0.028399 331.000000 -0.003623 18.000000 -0.597800 164.000000 0.026208 179.000000 -0.006079
236661.000000 0.983115 466.000000 233.000000 115.000000 0.094687 166.000000 0.037712 170.000000 0.029451 213.000000 -0.027132 16.000000 -0.419001 117.000000 0.129483 169.000000 0.022210
238899.000000 0.714064 383.000000 334.000000 272.000000 0.047039 301.000000 0.088591 303.000000 0.032572 315.000000 0.013607 16.000000 -0.611390 169.000000 0.042839 178.000000 -0.017992
245489.000000 1.091547 227.000000 231.000000 168.000000 0.014264 196.000000 0.042742 206.000000 -0.019765 222.000000 0.208840 14.000000 -0.168454 99.000000 0.136751 168.000000 0.014264
248903.000000 0.968195 449.000000 510.000000 257.000000 0.580440 306.000000 0.593133 353.000000 0.026596 499.000000 0.242491 15.000000 -0.391304 287.000000 0.876833 352.000000 0.024417
249413.000000 0.962116 510.000000 235.000000 125.000000 0.033859 167.000000 0.016348 184.000000 -0.039327 212.000000 -0.130784 15.000000 -0.231707 105.000000 0.082778 125.000000 0.033859
250978.000000 0.973604 212.000000 244.000000 121.000000 0.008513 179.000000 0.045360 207.000000 -0.088386 227.000000 0.145986 18.000000 -0.178340 99.000000 0.236585 121.000000 0.008513
253265.000000 0.939857 229.000000 239.000000 107.000000 0.111396 165.000000 0.019123 183.000000 -0.054232 226.000000 0.125142 18.000000 -0.219845 98.000000 0.159328 112.000000 0.157368
253504.000000 1.013654 239.000000 284.000000 238.000000 -0.038120 262.000000 0.084012 258.000000 -0.057398 265.000000 -0.079656 17.000000 -0.254482 113.000000 0.253401 172.000000 -0.097024
254873.000000 0.928025 186.000000 256.000000 130.000000 -0.042085 159.000000 0.056536 166.000000 0.043260 238.000000 -0.013102 14.000000 -0.237507 88.000000 0.225472 122.000000 -0.030392
257051.000000 1.018105 235.000000 238.000000 134.000000 -0.068309 175.000000 0.332804 205.000000 -0.489935 212.000000 -0.185577 15.000000 -0.244231 92.000000 0.135764 121.000000 -0.030394
257974.000000 0.920500 229.000000 517.000000 211.000000 -0.180079 311.000000 0.532086 378.000000 -0.039607 499.000000 -0.084592 15.000000 -0.153558 306.000000 0.569625 378.000000 -0.039607
262323.000000 0.949655 251.000000 246.000000 111.000000 0.077102 173.000000 0.048843 187.000000 -0.010029 223.000000 -0.082836 17.000000 -0.184042 119.000000 0.116898 174.000000 0.033138
265013.000000 1.090222 235.000000 225.000000 92.000000 0.116691 158.000000 0.007504 162.000000 -0.000787 208.000000 -0.072792 13.000000 -0.099827 92.000000 0.116691 160.000000 0.003460
265481.000000 0.963604 243.000000 250.000000 105.000000 0.101348 183.000000 0.038573 185.000000 0.031786 232.000000 -0.054389 14.000000 -0.082601 106.000000 0.106740 184.000000 0.037711
266460.000000 1.028498 253.000000 260.000000 163.000000 -0.066568 182.000000 0.005971 184.000000 -0.001207 244.000000 -0.121881 14.000000 -0.093777 98.000000 0.121158 163.000000 -0.066568
266720.000000 0.974309 260.000000 172.000000 98.000000 0.122681 151.000000 0.121303 134.000000 0.010096 141.000000 -0.039341 14.000000 -0.228433 96.000000 0.150440 114.000000 0.053685
268168.000000 0.893156 463.000000 230.000000 169.000000 -0.124028 209.000000 0.053356 214.000000 0.007023 221.000000 0.550424 15.000000 -0.222692 107.000000 0.000752 114.000000 0.000533
269237.000000 0.922867 532.000000 477.000000 234.000000 0.676861 287.000000 0.161936 329.000000 -0.062935 460.000000 -0.027047 15.000000 -0.178762 251.000000 0.808428 329.000000 -0.062935
274641.000000 0.948623 261.000000 262.000000 162.000000 -0.102731 184.000000 0.116910 202.000000 0.015563 241.000000 0.012350 19.000000 -0.158354 97.000000 0.139887 162.000000 -0.102731
274903.000000 1.193496 262.000000 265.000000 119.000000 0.072339 192.000000 -0.024481 205.000000 -0.058495 244.000000 -0.083764 15.000000 -0.240530 116.000000 0.073890 119.000000 0.072339
280680.000000 1.919889 206.000000 309.000000 134.000000 0.011129 186.000000 0.092743 204.000000 0.028103 290.000000 -0.038717 18.000000 -0.244298 163.000000 0.131569 178.000000 0.123683
285387.000000 0.988182 253.000000 237.000000 165.000000 0.070785 216.000000 0.192650 212.000000 -0.270970 219.000000 0.326788 17.000000 -0.277742 101.000000 0.043635 112.000000 0.008181
285898.000000 0.900505 274.000000 255.000000 108.000000 0.015232 186.000000 0.044703 208.000000 -0.003259 235.000000 -0.077617 14.000000 -0.241034 106.000000 0.074761 116.000000 0.029559
289669.000000 1.030094 352.000000 404.000000 308.000000 -0.011331 331.000000 0.103919 361.000000 0.046661 384.000000 0.014560 18.000000 -0.373575 168.000000 0.069890 171.000000 0.029953
294307.000000 0.934216 471.000000 502.000000 193.000000 0.103124 302.000000 0.592335 370.000000 -0.078259 480.000000 0.006488 16.000000 -0.146632 294.000000 0.684027 370.000000 -0.078259
295491.000000 1.148682 235.000000 238.000000 117.000000 0.081782 161.000000 -0.006474 170.000000 -0.048965 221.000000 -0.107083 10.000000 -0.411176 114.000000 0.089840 117.000000 0.081782
307497.000000 1.066867 234.000000 245.000000 115.000000 0.082825 162.000000 0.044454 182.000000 -0.086740 224.000000 -0.063306 16.000000 -0.252429 113.000000 0.122402 119.000000 0.113170
307960.000000 0.922431 218.000000 220.000000 98.000000 0.165218 132.000000 0.028919 155.000000 -0.005988 201.000000 -0.044718 15.000000 -0.263556 100.000000 0.175438 151.000000 -0.069545
309625.000000 0.939890 228.000000 230.000000 97.000000 0.159518 151.000000 0.008872 165.000000 -0.038995 211.000000 -0.069920 13.000000 -0.284684 95.000000 0.173782 98.000000 0.149941
309855.000000 0.948591 230.000000 212.000000 152.000000 0.013859 172.000000 0.089046 173.000000 0.077526 193.000000 -0.067177 16.000000 -0.320799 112.000000 0.174924 144.000000 0.027212
318523.000000 0.986069 251.000000 235.000000 108.000000 0.115065 166.000000 0.033952 168.000000 0.008936 217.000000 0.003858 15.000000 -0.302318 110.000000 0.160331 168.000000 0.008936
324933.000000 0.972383 230.000000 223.000000 151.000000 -0.015770 185.000000 -0.000768 188.000000 -0.112225 201.000000 -0.047616 18.000000 -0.149937 97.000000 0.265266 117.000000 -0.013104
327633.000000 1.006537 243.000000 213.000000 148.000000 -0.041351 166.000000 0.039526 179.000000 -0.076948 193.000000 -0.010881 15.000000 -0.208323 89.000000 0.143259 148.000000 -0.041351
328485.000000 0.956411 220.000000 250.000000 143.000000 -0.034264 173.000000 0.031473 208.000000 -0.052225 228.000000 -0.017665 17.000000 -0.217573 94.000000 0.153944 98.000000 0.115291
330322.000000 0.905065 221.000000 240.000000 96.000000 0.133609 171.000000 0.059169 195.000000 -0.054641 228.000000 0.101175 16.000000 -0.273934 95.000000 0.167590 129.000000 -0.036657
332422.000000 1.104734 211.000000 228.000000 143.000000 -0.098998 166.000000 0.219718 210.000000 0.255297 217.000000 0.412804 14.000000 -0.189795 88.000000 0.134860 118.000000 0.033340
335194.000000 1.003889 236.000000 232.000000 159.000000 -0.026472 184.000000 0.011255 199.000000 -0.050455 212.000000 -0.073322 15.000000 -0.139809 100.000000 0.075379 159.000000 -0.026472
350724.000000 1.049922 264.000000 484.000000 262.000000 0.448105 292.000000 0.898559 317.000000 0.671411 472.000000 0.157933 14.000000 -0.204559 289.000000 0.810675 294.000000 0.854076
351691.000000 1.082363 203.000000 242.000000 154.000000 -0.006645 179.000000 0.290110 223.000000 0.125738 230.000000 0.424454 16.000000 -0.320757 80.000000 0.181252 112.000000 0.032320
352624.000000 1.856686 244.000000 283.000000 165.000000 -0.009639 191.000000 0.101957 209.000000 0.037866 259.000000 -0.020833 18.000000 -0.128734 166.000000 0.008934 193.000000 0.064716
357364.000000 1.163043 535.000000 584.000000 488.000000 -0.053091 516.000000 0.061114 539.000000 0.012947 564.000000 -0.026033 17.000000 -0.264702 300.000000 0.886988 417.000000 -0.221073
359185.000000 1.139127 275.000000 282.000000 201.000000 -0.039182 228.000000 -0.008007 243.000000 -0.013603 256.000000 -0.078179 16.000000 -0.294667 99.000000 0.113998 103.000000 0.087933
367906.000000 1.184236 500.000000 545.000000 207.000000 0.119593 327.000000 0.669982 377.000000 -0.006118 526.000000 -0.055265 18.000000 -0.315529 314.000000 1.016094 377.000000 -0.006118
393433.000000 1.220707 508.000000 563.000000 310.000000 0.622528 339.000000 0.414939 424.000000 -0.141101 556.000000 0.573340 18.000000 -0.241973 313.000000 0.678247 424.000000 -0.141101
393996.000000 1.212635 563.000000 576.000000 330.000000 0.847261 346.000000 0.635632 386.000000 0.000088 550.000000 -0.080047 8.000000 -0.257755 329.000000 0.852292 330.000000 0.847261
399576.000000 1.174907 537.000000 568.000000 465.000000 -0.028856 496.000000 0.056410 528.000000 -0.015268 549.000000 -0.061648 15.000000 -0.176159 261.000000 0.890358 405.000000 -0.169232
401310.000000 1.181297 538.000000 530.000000 226.000000 0.543480 324.000000 0.711363 391.000000 -0.030537 510.000000 -0.050800 14.000000 -0.270772 317.000000 0.691473 333.000000 0.600311
404125.000000 1.123686 465.000000 561.000000 297.000000 0.739464 352.000000 0.258512 398.000000 -0.098291 543.000000 0.071049 18.000000 -0.180532 296.000000 0.803305 303.000000 0.639182
408951.000000 1.262382 415.000000 558.000000 297.000000 0.788057 336.000000 0.191611 397.000000 -0.195833 540.000000 0.006270 19.000000 -0.239088 296.000000 0.792821 299.000000 0.783401
413027.000000 0.926412 487.000000 582.000000 298.000000 0.675250 350.000000 0.100454 413.000000 -0.148574 574.000000 0.544298 16.000000 -0.178150 310.000000 0.679075 413.000000 -0.148574
413609.000000 1.138702 582.000000 370.000000 178.000000 0.116240 290.000000 0.852822 337.000000 0.063838 350.000000 -0.067589 16.000000 -0.278855 185.000000 0.169296 290.000000 0.852822
413979.000000 0.649775 370.000000 384.000000 300.000000 -0.001131 324.000000 0.061833 344.000000 -0.018590 366.000000 -0.014247 18.000000 -0.590194 160.000000 0.089104 196.000000 0.003366
415384.000000 1.073888 278.000000 272.000000 112.000000 0.131441 167.000000 0.010410 199.000000 -0.035500 252.000000 -0.076880 16.000000 -0.252382 113.000000 0.148275 166.000000 -0.005939
419608.000000 1.212786 345.000000 289.000000 228.000000 -0.011613 246.000000 0.038277 263.000000 -0.068557 269.000000 -0.065328 14.000000 -0.532905 126.000000 0.067546 154.000000 0.021493
422877.000000 0.851876 414.000000 370.000000 270.000000 0.027005 305.000000 0.073668 312.000000 0.038385 353.000000 -0.002493 16.000000 -0.635853 163.000000 0.034974 171.000000 0.003891
424280.000000 1.191193 535.000000 546.000000 308.000000 0.792571 328.000000 0.576914 419.000000 -0.216505 526.000000 -0.037476 14.000000 -0.383900 307.000000 0.797446 312.000000 0.782806
426214.000000 0.840130 384.000000 411.000000 299.000000 -0.006346 346.000000 0.071065 348.000000 0.055516 393.000000 -0.020768 19.000000 -0.514008 167.000000 0.086938 179.000000 0.060872
430684.000000 1.225297 567.000000 514.000000 284.000000 0.819533 309.000000 0.430944 415.000000 -0.163333 492.000000 -0.026187 16.000000 -0.308965 285.000000 0.834612 415.000000 -0.163333
447968.000000 1.038230 491.000000 269.000000 146.000000 0.056364 181.000000 0.494561 245.000000 0.360453 261.000000 0.610938 10.000000 -0.294826 155.000000 0.403715 180.000000 0.339734
448953.000000 1.055391 488.000000 448.000000 168.000000 0.128215 269.000000 0.731302 333.000000 0.065110 430.000000 -0.083889 18.000000 -0.148307 262.000000 0.779468 333.000000 0.065110
457935.000000 0.962726 510.000000 472.000000 162.000000 -0.006190 284.000000 0.728323 334.000000 -0.034136 453.000000 -0.053670 14.000000 -0.221004 259.000000 0.887603 274.000000 0.854483
458994.000000 1.022965 587.000000 555.000000 296.000000 0.772113 334.000000 0.225858 410.000000 -0.192006 539.000000 -0.033732 10.000000 -0.099750 294.000000 0.780906 296.000000 0.772113
460342.000000 0.852345 351.000000 451.000000 351.000000 -0.005954 377.000000 0.062164 378.000000 0.061945 428.000000 -0.011504 18.000000 -0.450634 121.000000 0.044998 127.000000 0.039388
460793.000000 1.062022 451.000000 211.000000 159.000000 0.051896 188.000000 0.129043 196.000000 0.200579 203.000000 0.643432 19.000000 -0.223384 125.000000 0.052223 142.000000 0.059559
472930.000000 1.073826 475.000000 482.000000 266.000000 0.762104 290.000000 0.375710 337.000000 0.029312 464.000000 -0.031191 15.000000 -0.240829 267.000000 0.762292 337.000000 0.029312
477005.000000 1.115986 263.000000 545.000000 214.000000 0.111582 330.000000 0.811332 437.000000 -0.167572 526.000000 -0.064199 13.000000 -0.324376 325.000000 0.801598 329.000000 0.796332
487629.000000 1.140818 505.000000 492.000000 265.000000 0.793356 296.000000 0.307117 371.000000 -0.167150 483.000000 0.367993 14.000000 -0.130922 269.000000 0.819062 371.000000 -0.167150
489379.000000 1.037319 278.000000 262.000000 154.000000 -0.026112 194.000000 0.017929 210.000000 -0.068547 245.000000 -0.064315 15.000000 -0.281050 108.000000 0.115757 155.000000 -0.018635
491875.000000 1.191931 511.000000 507.000000 261.000000 0.809428 305.000000 0.111845 333.000000 0.009973 498.000000 0.390213 15.000000 -0.187615 262.000000 0.814475 330.000000 0.024127
501931.000000 1.120361 587.000000 503.000000 272.000000 0.705537 302.000000 0.737089 396.000000 -0.172941 488.000000 -0.066722 11.000000 -0.281864 291.000000 0.889721 396.000000 -0.172941
503383.000000 1.169889 492.000000 498.000000 269.000000 0.786644 299.000000 0.284356 328.000000 0.019932 486.000000 0.088046 14.000000 -0.336600 269.000000 0.786644 328.000000 0.019932
510407.000000 1.029692 243.000000 280.000000 143.000000 -0.016595 169.000000 0.088435 191.000000 -0.023275 258.000000 -0.074871 15.000000 -0.261467 105.000000 0.131852 110.000000 0.077666
512573.000000 1.175910 522.000000 495.000000 167.000000 -0.015910 297.000000 0.631666 344.000000 0.018513 478.000000 -0.047864 17.000000 -0.144901 280.000000 0.789894 282.000000 0.780850
519341.000000 1.055208 501.000000 528.000000 295.000000 0.710635 317.000000 0.480415 388.000000 -0.156476 517.000000 0.236374 16.000000 -0.142973 296.000000 0.715791 388.000000 -0.156476
520347.000000 1.053541 478.000000 440.000000 165.000000 0.166255 264.000000 0.746097 314.000000 -0.003604 423.000000 -0.057174 13.000000 -0.175534 256.000000 0.783072 314.000000 -0.003604
521299.000000 1.128959 512.000000 550.000000 308.000000 0.718858 330.000000 0.595894 415.000000 -0.160641 540.000000 0.191819 16.000000 -0.170490 311.000000 0.723874 415.000000 -0.160641
523310.000000 1.017726 517.000000 507.000000 260.000000 0.447257 305.000000 0.596708 407.000000 -0.144732 489.000000 -0.068116 17.000000 -0.153309 285.000000 0.791427 293.000000 0.758887
525766.000000 1.044171 501.000000 533.000000 208.000000 0.150661 320.000000 0.759105 429.000000 -0.176256 508.000000 -0.094609 15.000000 -0.195013 314.000000 0.863260 429.000000 -0.176256
529618.000000 1.072857 460.000000 493.000000 184.000000 0.014197 296.000000 0.669026 350.000000 -0.049889 473.000000 -0.063170 14.000000 -0.246420 283.000000 0.751439 284.000000 0.746752
533195.000000 1.082290 289.000000 232.000000 95.000000 0.201097 167.000000 0.007053 179.000000 -0.003118 213.000000 -0.100343 14.000000 -0.164903 95.000000 0.201097 167.000000 0.007053
536076.000000 1.113700 243.000000 241.000000 86.000000 0.082991 169.000000 0.010094 192.000000 -0.001863 233.000000 0.405299 14.000000 -0.241723 91.000000 0.134698 166.000000 0.001411
