61180.000000 0.594772 389.000000 404.000000 287.000000 0.000345 335.000000 0.278322 350.000000 -0.041585 395.000000 0.493839 14.000000 -0.414025 124.000000 0.069791 131.000000 0.044290
61953.000000 0.597806 369.000000 371.000000 271.000000 -0.002421 305.000000 0.282950 322.000000 -0.016328 359.000000 0.323077 19.000000 -0.282431 118.000000 0.071758 184.000000 -0.054790
75132.000000 0.572996 365.000000 378.000000 291.000000 0.005939 317.000000 0.281049 341.000000 -0.073859 365.000000 -0.004342 13.000000 -0.439480 138.000000 0.081096 188.000000 -0.031976
76309.000000 0.793132 415.000000 396.000000 301.000000 -0.017235 330.000000 0.251510 347.000000 -0.045184 370.000000 -0.036455 17.000000 -0.276084 125.000000 0.076474 157.000000 0.000705
94006.000000 0.634214 386.000000 359.000000 252.000000 0.001772 299.000000 0.310454 323.000000 -0.042775 335.000000 -0.051363 13.000000 -0.472542 131.000000 0.072991 166.000000 0.008525
101669.000000 0.816758 361.000000 370.000000 260.000000 -0.028907 301.000000 0.260623 319.000000 -0.024802 356.000000 0.388789 19.000000 -0.289326 130.000000 0.060473 149.000000 0.026038
117314.000000 0.686863 418.000000 400.000000 279.000000 -0.063354 339.000000 0.230220 353.000000 -0.063542 389.000000 0.488025 20.000000 -0.252227 124.000000 0.072881 141.000000 0.053982
125381.000000 0.852402 379.000000 387.000000 271.000000 -0.008113 316.000000 0.284237 333.000000 -0.030639 374.000000 0.450991 18.000000 -0.321958 134.000000 0.072135 188.000000 -0.052958
136659.000000 0.858449 400.000000 418.000000 303.000000 -0.008403 349.000000 0.274640 379.000000 -0.009812 407.000000 0.525390 16.000000 -0.327759 131.000000 0.074184 141.000000 0.036613
137830.000000 0.844201 381.000000 387.000000 277.000000 -0.001410 319.000000 0.280632 351.000000 -0.031658 376.000000 0.517857 17.000000 -0.322760 131.000000 0.062430 158.000000 -0.014296
155798.000000 0.762680 381.000000 401.000000 295.000000 -0.020286 328.000000 0.246862 345.000000 -0.029048 388.000000 0.422194 19.000000 -0.298543 153.000000 0.066873 198.000000 -0.068267
159558.000000 0.678938 357.000000 401.000000 277.000000 -0.030142 336.000000 0.268917 349.000000 -0.022069 391.000000 0.496973 18.000000 -0.288210 113.000000 0.067839 117.000000 0.052948
162064.000000 0.700767 377.000000 379.000000 281.000000 -0.060017 322.000000 0.234608 336.000000 0.030391 362.000000 0.188025 20.000000 -0.375097 114.000000 0.080313 149.000000 -0.063431
171188.000000 0.945546 386.000000 394.000000 254.000000 -0.092041 326.000000 0.294188 340.000000 -0.037582 385.000000 0.733000 20.000000 -0.249909 116.000000 0.091018 122.000000 0.081802
172683.000000 1.017490 356.000000 388.000000 288.000000 -0.118618 319.000000 0.273729 346.000000 0.002444 377.000000 0.659359 20.000000 -0.275925 124.000000 0.088435 133.000000 0.041726
173452.000000 1.089863 381.000000 375.000000 266.000000 -0.012337 304.000000 0.292005 334.000000 0.005343 362.000000 0.637394 12.000000 -0.400875 132.000000 0.054282 145.000000 -0.026220
176132.000000 0.952960 451.000000 399.000000 300.000000 -0.000203 331.000000 0.269045 362.000000 -0.028087 387.000000 0.669325 19.000000 -0.354516 124.000000 0.102146 190.000000 -0.016256
179155.000000 1.039229 367.000000 345.000000 232.000000 -0.053056 278.000000 0.255504 305.000000 0.002336 335.000000 0.747150 21.000000 -0.334155 117.000000 0.068038 123.000000 0.016425
179500.000000 1.204829 345.000000 344.000000 191.000000 -0.063011 275.000000 0.292604 309.000000 0.029249 333.000000 0.704360 17.000000 -0.302114 129.000000 0.033541 144.000000 -0.020597
179844.000000 1.098012 344.000000 1184.000000 827.000000 0.035062 876.000000 0.335691 952.000000 -0.166687 1172.000000 0.505193 19.000000 -0.249967 277.000000 0.494675 329.000000 0.159089
182556.000000 0.966067 397.000000 366.000000 274.000000 0.006003 306.000000 0.280106 332.000000 -0.043170 342.000000 -0.010252 17.000000 -0.297476 125.000000 0.076645 165.000000 -0.067145
184796.000000 0.973952 376.000000 369.000000 270.000000 -0.045393 302.000000 0.264891 318.000000 -0.044814 362.000000 0.792474 18.000000 -0.320155 127.000000 0.050405 147.000000 0.013007
188368.000000 1.051789 388.000000 408.000000 286.000000 -0.044095 337.000000 0.265015 355.000000 -0.037541 401.000000 0.783309 20.000000 -0.280452 167.000000 0.070408 200.000000 -0.071661
195319.000000 0.967960 372.000000 380.000000 270.000000 0.023980 314.000000 0.276549 331.000000 -0.027886 372.000000 0.636189 20.000000 -0.352511 169.000000 0.082459 178.000000 -0.037949
201187.000000 0.779141 392.000000 388.000000 274.000000 -0.026398 318.000000 0.256958 356.000000 -0.039451 379.000000 0.520830 21.000000 -0.253146 124.000000 0.070673 130.000000 0.035172
203074.000000 0.741765 369.000000 395.000000 288.000000 -0.004023 325.000000 0.271520 342.000000 -0.032525 381.000000 0.473936 18.000000 -0.278769 115.000000 0.065628 191.000000 -0.084779
204214.000000 0.973761 378.000000 396.000000 286.000000 -0.051679 330.000000 0.265626 350.000000 -0.038261 382.000000 0.510361 18.000000 -0.279626 115.000000 0.042789 149.000000 0.005484
207434.000000 0.930798 368.000000 376.000000 274.000000 -0.032231 308.000000 0.262849 341.000000 -0.032275 366.000000 0.610345 18.000000 -0.289892 128.000000 0.075752 148.000000 0.018887
208205.000000 0.808036 395.000000 370.000000 273.000000 -0.026273 306.000000 0.269641 334.000000 -0.025466 344.000000 -0.028270 20.000000 -0.253689 124.000000 0.075378 183.000000 -0.093195
208929.000000 0.917913 354.000000 365.000000 256.000000 -0.039214 302.000000 0.272544 332.000000 -0.006187 353.000000 0.587040 17.000000 -0.298841 126.000000 0.068430 208.000000 -0.092556
210016.000000 0.883637 366.000000 444.000000 349.000000 0.023760 377.000000 0.273667 408.000000 -0.002742 434.000000 0.631351 13.000000 -0.411034 113.000000 0.074371 190.000000 -0.090146
210460.000000 0.908311 444.000000 429.000000 278.000000 -0.089624 366.000000 0.302134 395.000000 -0.003573 420.000000 0.603495 19.000000 -0.299510 130.000000 0.131145 141.000000 0.010269
212015.000000 1.063616 374.000000 389.000000 237.000000 -0.050984 321.000000 0.275350 334.000000 -0.029133 381.000000 0.611871 18.000000 -0.302196 137.000000 0.069156 148.000000 0.054812
212404.000000 0.872373 389.000000 406.000000 305.000000 0.023850 340.000000 0.295940 356.000000 -0.038321 392.000000 0.382538 18.000000 -0.317568 119.000000 0.074558 129.000000 0.054529
216215.000000 0.887147 377.000000 405.000000 254.000000 -0.063266 334.000000 0.263648 351.000000 -0.020569 395.000000 0.569391 19.000000 -0.331819 128.000000 0.076269 136.000000 0.046254
222447.000000 0.974687 359.000000 358.000000 239.000000 -0.030364 288.000000 0.271285 306.000000 -0.024121 349.000000 0.568556 17.000000 -0.353388 159.000000 0.056422 203.000000 -0.092950
222805.000000 0.903196 358.000000 411.000000 257.000000 -0.042849 341.000000 0.257915 353.000000 -0.016741 401.000000 0.647024 18.000000 -0.303732 131.000000 0.070825 182.000000 -0.060302
227128.000000 0.801149 385.000000 404.000000 288.000000 -0.015671 332.000000 0.258389 349.000000 -0.036455 394.000000 0.588167 18.000000 -0.292395 122.000000 0.070077 148.000000 0.025542
231371.000000 1.116838 421.000000 413.000000 306.000000 0.014468 342.000000 0.292729 359.000000 -0.006549 403.000000 0.577446 17.000000 -0.239701 234.000000 0.006083 260.000000 -0.060235
234868.000000 1.000362 351.000000 363.000000 255.000000 -0.004062 299.000000 0.325515 317.000000 0.019591 355.000000 0.632384 15.000000 -0.284232 119.000000 0.078694 131.000000 0.033570
235593.000000 1.017838 362.000000 408.000000 297.000000 -0.037978 336.000000 0.291065 353.000000 -0.005502 394.000000 0.528547 19.000000 -0.275797 133.000000 0.091364 148.000000 0.062681
236380.000000 0.898890 379.000000 371.000000 278.000000 -0.018014 310.000000 0.281111 324.000000 -0.023057 359.000000 0.349561 18.000000 -0.283759 111.000000 0.094626 159.000000 -0.014223
237124.000000 0.702620 373.000000 364.000000 265.000000 -0.037666 295.000000 0.253476 312.000000 -0.038812 351.000000 0.553367 17.000000 -0.320627 125.000000 0.100435 133.000000 0.047299
240446.000000 0.945046 421.000000 412.000000 296.000000 -0.038656 343.000000 0.242959 374.000000 -0.070113 402.000000 0.628819 19.000000 -0.313011 162.000000 0.080976 198.000000 -0.062397
241986.000000 0.831767 398.000000 401.000000 245.000000 -0.049753 332.000000 0.267053 348.000000 -0.018167 386.000000 0.217850 12.000000 -0.439280 134.000000 0.072553 187.000000 -0.065380
244254.000000 0.968344 372.000000 402.000000 297.000000 0.003794 331.000000 0.270061 351.000000 -0.028623 393.000000 0.644736 18.000000 -0.304904 131.000000 0.084795 145.000000 0.068430
245037.000000 0.940350 381.000000 392.000000 255.000000 -0.027740 327.000000 0.279558 353.000000 -0.006400 365.000000 0.004947 20.000000 -0.261923 123.000000 0.093923 140.000000 0.045895
246542.000000 0.884375 389.000000 406.000000 308.000000 0.009646 340.000000 0.285759 367.000000 -0.035072 377.000000 -0.024745 19.000000 -0.300186 125.000000 0.066195 155.000000 0.031946
246948.000000 0.939075 406.000000 394.000000 294.000000 0.007134 329.000000 0.288702 344.000000 -0.020764 382.000000 0.481518 20.000000 -0.288421 119.000000 0.063745 189.000000 -0.102274
248503.000000 0.954785 387.000000 406.000000 284.000000 -0.037556 335.000000 0.260662 350.000000 -0.028960 393.000000 0.622530 20.000000 -0.294795 137.000000 0.075094 154.000000 0.060109
250054.000000 1.072100 365.000000 382.000000 281.000000 -0.015493 314.000000 0.293678 329.000000 -0.017184 370.000000 0.536377 18.000000 -0.302337 119.000000 0.046363 183.000000 -0.053482
250822.000000 0.883637 386.000000 398.000000 295.000000 -0.059988 326.000000 0.249608 339.000000 -0.064654 388.000000 0.571929 17.000000 -0.293792 126.000000 0.100224 141.000000 0.069407
251220.000000 1.145487 398.000000 385.000000 274.000000 0.005406 316.000000 0.306505 346.000000 -0.035989 360.000000 -0.009265 20.000000 -0.315955 165.000000 0.107911 191.000000 -0.048923
257187.000000 1.045036 344.000000 429.000000 287.000000 -0.040752 360.000000 0.274513 379.000000 0.002099 415.000000 0.406552 17.000000 -0.318902 149.000000 0.083246 155.000000 0.062916
259490.000000 0.814886 398.000000 425.000000 318.000000 0.043870 361.000000 0.288714 381.000000 -0.028103 417.000000 0.396317 18.000000 -0.346290 128.000000 0.063402 159.000000 -0.086680
260665.000000 0.644040 371.000000 354.000000 258.000000 0.011780 295.000000 0.307220 314.000000 0.010527 342.000000 0.158067 19.000000 -0.344750 116.000000 0.060242 145.000000 0.007120
262114.000000 0.908835 368.000000 360.000000 266.000000 -0.012900 295.000000 0.267363 309.000000 -0.024345 348.000000 0.537273 18.000000 -0.347539 129.000000 0.069716 141.000000 0.055925
262474.000000 0.960926 360.000000 485.000000 386.000000 -0.023270 423.000000 0.182076 449.000000 -0.030762 459.000000 -0.017282 19.000000 -0.260609 117.000000 0.066839 183.000000 -0.057408
263670.000000 0.962106 477.000000 516.000000 411.000000 -0.004056 452.000000 0.264942 477.000000 -0.016203 486.000000 -0.007020 20.000000 -0.332130 162.000000 0.076158 194.000000 -0.078815
264186.000000 0.868044 516.000000 370.000000 254.000000 -0.022144 300.000000 0.308186 316.000000 -0.014982 357.000000 0.527840 20.000000 -0.241926 126.000000 0.065171 156.000000 -0.014441
264949.000000 0.796441 393.000000 367.000000 275.000000 -0.004169 305.000000 0.293745 334.000000 -0.027683 356.000000 0.666380 18.000000 -0.298778 114.000000 0.080363 175.000000 -0.097539
265681.000000 1.030018 365.000000 400.000000 289.000000 -0.044994 329.000000 0.278546 343.000000 -0.033900 386.000000 0.391865 11.000000 -0.420955 121.000000 0.094754 135.000000 0.047984
267931.000000 0.944498 372.000000 579.000000 467.000000 -0.035045 496.000000 0.167535 541.000000 -0.034049 552.000000 -0.010255 21.000000 -0.275877 124.000000 0.087792 191.000000 -0.070976
268510.000000 0.936707 579.000000 189.000000 51.000000 -0.396143 168.000000 0.320689 153.000000 0.142962 160.000000 0.168447 19.000000 -0.344229 111.000000 -0.054402 162.000000 0.201926
270574.000000 0.995739 396.000000 414.000000 278.000000 -0.041884 343.000000 0.253791 360.000000 -0.029656 402.000000 0.654611 21.000000 -0.286207 155.000000 0.060187 197.000000 -0.064906
270988.000000 0.955080 414.000000 386.000000 277.000000 -0.041224 318.000000 0.269264 337.000000 -0.025031 372.000000 0.330064 8.000000 0.231523 127.000000 0.051641 185.000000 -0.061074
279048.000000 1.044374 389.000000 385.000000 283.000000 -0.021158 315.000000 0.259641 342.000000 -0.017914 354.000000 -0.012005 21.000000 -0.279576 169.000000 0.076486 200.000000 -0.093213
281419.000000 1.066666 474.000000 449.000000 351.000000 0.008169 381.000000 0.266932 408.000000 -0.027272 436.000000 0.637147 17.000000 -0.359123 167.000000 0.094556 208.000000 -0.071730
283831.000000 0.914561 392.000000 393.000000 298.000000 0.018901 323.000000 0.273870 353.000000 -0.024404 380.000000 0.582870 19.000000 -0.321160 125.000000 0.082355 134.000000 0.031273
287614.000000 0.987459 384.000000 382.000000 270.000000 -0.115220 315.000000 0.282714 333.000000 0.021961 370.000000 0.640049 21.000000 -0.298495 156.000000 0.091928 224.000000 -0.129891
288741.000000 0.780439 390.000000 421.000000 335.000000 0.023779 360.000000 0.291882 375.000000 -0.016129 398.000000 -0.068388 19.000000 -0.292306 109.000000 0.144135 169.000000 -0.069323
291025.000000 1.027180 345.000000 356.000000 260.000000 -0.031677 291.000000 0.280488 321.000000 0.025064 331.000000 -0.046926 18.000000 -0.292648 132.000000 0.103998 140.000000 -0.036551
