124.000000 0.808895 124.000000 258.000000 165.000000 0.088980 205.000000 0.232849 239.000000 0.007993 243.000000 -0.000144 15.000000 -0.197346 120.000000 0.148746 123.000000 0.130046
382.000000 0.793979 258.000000 263.000000 167.000000 0.071303 208.000000 0.224876 233.000000 0.011099 247.000000 -0.004873 14.000000 -0.249360 126.000000 0.141209 167.000000 0.071303
892.000000 0.796552 247.000000 257.000000 166.000000 0.108526 203.000000 0.220689 230.000000 -0.007696 241.000000 0.000938 16.000000 -0.241253 118.000000 0.156174 122.000000 0.134246
1149.000000 0.772348 257.000000 244.000000 119.000000 0.072948 190.000000 0.198621 212.000000 0.033575 224.000000 0.011208 15.000000 -0.229799 115.000000 0.100425 119.000000 0.072948
1393.000000 0.858900 244.000000 255.000000 170.000000 0.112586 203.000000 0.222677 228.000000 -0.002886 239.000000 -0.017965 17.000000 -0.232590 122.000000 0.134499 133.000000 0.113072
1648.000000 0.859248 255.000000 243.000000 121.000000 0.134966 191.000000 0.241442 219.000000 0.010424 225.000000 0.006598 14.000000 -0.130296 119.000000 0.143462 121.000000 0.134966
1891.000000 0.860453 243.000000 256.000000 170.000000 0.063728 205.000000 0.194355 228.000000 -0.006816 237.000000 0.010550 17.000000 -0.093356 129.000000 0.116288 170.000000 0.063728
2147.000000 0.789436 256.000000 245.000000 162.000000 0.074543 195.000000 0.209027 223.000000 0.019342 228.000000 0.008213 16.000000 -0.144452 123.000000 0.120388 162.000000 0.074543
2392.000000 0.776724 245.000000 238.000000 121.000000 0.137763 188.000000 0.215014 205.000000 0.034637 219.000000 -0.007776 16.000000 -0.166678 119.000000 0.157119 121.000000 0.137763
2630.000000 0.769590 238.000000 250.000000 165.000000 0.075770 196.000000 0.185469 199.000000 0.159121 231.000000 -0.018045 17.000000 -0.225128 122.000000 0.166477 165.000000 0.075770
2880.000000 0.831878 250.000000 248.000000 168.000000 0.102383 195.000000 0.242930 224.000000 0.009653 231.000000 0.029418 16.000000 -0.307212 121.000000 0.136678 122.000000 0.126553
3128.000000 0.859902 248.000000 250.000000 167.000000 0.091805 200.000000 0.241880 222.000000 0.026094 233.000000 0.005735 16.000000 -0.194201 127.000000 0.153605 167.000000 0.091805
3871.000000 0.799874 248.000000 248.000000 151.000000 0.084861 189.000000 0.216082 191.000000 0.191318 232.000000 -0.010972 15.000000 -0.119548 129.000000 0.145915 151.000000 0.084861
4119.000000 0.790831 248.000000 250.000000 146.000000 0.077899 197.000000 0.212415 230.000000 0.016036 234.000000 -0.007130 16.000000 -0.173919 121.000000 0.161082 146.000000 0.077899
4624.000000 0.742745 255.000000 247.000000 121.000000 0.168620 193.000000 0.210973 218.000000 0.008261 226.000000 -0.027397 20.000000 -0.169295 121.000000 0.168620 193.000000 0.210973
4871.000000 0.757650 247.000000 249.000000 162.000000 0.088137 198.000000 0.204311 223.000000 -0.005908 234.000000 0.000158 17.000000 -0.196129 116.000000 0.146289 125.000000 0.115960
5361.000000 0.823287 241.000000 256.000000 158.000000 0.077789 203.000000 0.231428 232.000000 -0.004421 240.000000 0.011974 16.000000 -0.250942 128.000000 0.144091 164.000000 0.104092
5617.000000 0.835454 256.000000 248.000000 161.000000 0.091018 196.000000 0.237851 225.000000 0.008526 232.000000 0.032538 13.000000 -0.139419 124.000000 0.132505 162.000000 0.089278
5865.000000 0.828559 248.000000 244.000000 140.000000 0.094528 192.000000 0.221989 193.000000 0.216535 215.000000 0.019136 16.000000 -0.151345 128.000000 0.123760 134.000000 0.086848
6109.000000 0.811568 244.000000 252.000000 119.000000 0.110813 197.000000 0.232176 212.000000 0.086911 228.000000 -0.013135 16.000000 -0.133493 123.000000 0.132740 200.000000 0.211221
6361.000000 0.759577 252.000000 249.000000 120.000000 0.107849 197.000000 0.230169 220.000000 0.031958 232.000000 0.021660 17.000000 -0.178053 125.000000 0.139573 198.000000 0.224637
6610.000000 0.781018 249.000000 252.000000 167.000000 0.091473 200.000000 0.225014 227.000000 0.000062 235.000000 0.023463 17.000000 -0.209325 118.000000 0.142023 140.000000 0.106049
6862.000000 0.720281 252.000000 255.000000 157.000000 0.063749 202.000000 0.221743 225.000000 0.015455 239.000000 0.012915 16.000000 -0.234925 119.000000 0.140347 128.000000 0.129595
7117.000000 0.734264 255.000000 261.000000 165.000000 0.088919 208.000000 0.216912 225.000000 0.022806 245.000000 0.003764 15.000000 -0.236677 125.000000 0.168230 165.000000 0.088919
7633.000000 0.746347 255.000000 254.000000 119.000000 0.121335 200.000000 0.206019 223.000000 0.009420 238.000000 0.001177 20.000000 -0.169733 116.000000 0.139172 124.000000 0.138891
7887.000000 0.747946 254.000000 263.000000 168.000000 0.067196 208.000000 0.210203 234.000000 0.006707 243.000000 -0.008371 16.000000 -0.218197 124.000000 0.144015 168.000000 0.067196
8150.000000 0.788777 263.000000 255.000000 162.000000 0.088718 199.000000 0.225644 234.000000 0.031348 241.000000 0.009372 18.000000 -0.193686 124.000000 0.138355 138.000000 0.107117
8405.000000 0.860692 255.000000 253.000000 170.000000 0.097303 200.000000 0.214575 216.000000 0.060687 236.000000 -0.002652 16.000000 -0.163414 121.000000 0.142946 126.000000 0.114842
8658.000000 0.835391 253.000000 250.000000 171.000000 0.107630 196.000000 0.225748 230.000000 0.032678 236.000000 -0.013294 17.000000 -0.194561 121.000000 0.143696 171.000000 0.107630
8908.000000 0.792661 250.000000 260.000000 164.000000 0.084136 206.000000 0.239813 235.000000 0.001819 245.000000 0.022541 12.000000 -0.301301 123.000000 0.144701 134.000000 0.107740
9168.000000 0.785974 260.000000 256.000000 160.000000 0.058308 200.000000 0.207745 226.000000 -0.014371 240.000000 -0.024779 16.000000 -0.231959 118.000000 0.137133 138.000000 0.102415
9424.000000 0.769406 256.000000 254.000000 153.000000 0.049079 198.000000 0.197791 224.000000 -0.019578 236.000000 -0.030735 14.000000 -0.238181 124.000000 0.143544 153.000000 0.049079
9940.000000 0.846771 262.000000 255.000000 173.000000 0.102681 203.000000 0.222934 224.000000 0.004657 235.000000 -0.006551 15.000000 -0.229625 125.000000 0.134657 173.000000 0.102681
10195.000000 0.927994 255.000000 251.000000 126.000000 0.106804 196.000000 0.234188 222.000000 0.005596 234.000000 -0.004938 16.000000 -0.095018 123.000000 0.130393 132.000000 0.104126
10702.000000 0.850817 256.000000 261.000000 172.000000 0.071600 206.000000 0.223854 215.000000 0.139638 242.000000 -0.005708 18.000000 -0.160876 129.000000 0.142757 172.000000 0.071600
11220.000000 0.791553 257.000000 245.000000 160.000000 0.052727 192.000000 0.190927 216.000000 -0.010484 226.000000 -0.007288 17.000000 -0.219232 117.000000 0.123448 143.000000 0.081957
11465.000000 0.775640 245.000000 267.000000 172.000000 0.107272 212.000000 0.193525 240.000000 -0.000596 247.000000 0.009842 15.000000 -0.235756 127.000000 0.125204 162.000000 0.078024
11732.000000 0.806473 267.000000 246.000000 160.000000 0.106238 192.000000 0.233149 193.000000 0.227914 230.000000 0.027742 16.000000 -0.194073 121.000000 0.136236 133.000000 0.119543
12232.000000 0.780187 254.000000 258.000000 130.000000 0.107984 202.000000 0.213500 203.000000 0.203750 242.000000 -0.009575 16.000000 -0.097023 125.000000 0.144801 130.000000 0.107984
12490.000000 0.798953 258.000000 255.000000 165.000000 0.078793 204.000000 0.238871 231.000000 0.000547 232.000000 -0.010174 16.000000 -0.122992 132.000000 0.139339 186.000000 0.075734
12745.000000 0.797210 255.000000 254.000000 165.000000 0.085388 200.000000 0.217697 220.000000 -0.015546 248.000000 0.246899 18.000000 -0.169263 118.000000 0.142444 121.000000 0.129669
13249.000000 0.785707 250.000000 263.000000 164.000000 0.080847 209.000000 0.211837 238.000000 -0.001959 247.000000 -0.016158 19.000000 -0.174796 129.000000 0.168011 164.000000 0.080847
13512.000000 0.783937 263.000000 251.000000 166.000000 0.067304 196.000000 0.179796 197.000000 0.179670 231.000000 -0.021740 17.000000 -0.219624 120.000000 0.141818 121.000000 0.127680
14013.000000 0.736598 250.000000 245.000000 141.000000 0.059645 193.000000 0.244781 219.000000 0.016802 228.000000 0.007177 13.000000 -0.277822 112.000000 0.134769 116.000000 0.106556
14258.000000 0.745861 245.000000 248.000000 166.000000 0.091928 199.000000 0.175217 221.000000 -0.015766 230.000000 -0.027365 17.000000 -0.248577 123.000000 0.173684 168.000000 0.078072
14506.000000 0.829608 248.000000 251.000000 146.000000 0.075472 199.000000 0.195891 228.000000 0.000813 237.000000 -0.008700 14.000000 -0.277884 120.000000 0.150597 169.000000 0.106990
14757.000000 0.852430 251.000000 243.000000 159.000000 0.085157 192.000000 0.219513 222.000000 -0.002934 238.000000 0.306128 14.000000 -0.251176 122.000000 0.161287 162.000000 0.069719
15000.000000 0.915909 243.000000 261.000000 127.000000 0.098727 205.000000 0.226536 233.000000 0.001760 245.000000 -0.033067 8.000000 -0.126113 132.000000 0.134245 201.000000 0.198197
15509.000000 0.830018 248.000000 250.000000 121.000000 0.121396 198.000000 0.238701 223.000000 -0.004543 236.000000 0.005440 16.000000 -0.122754 116.000000 0.137211 121.000000 0.121396
15759.000000 0.815235 250.000000 255.000000 119.000000 0.142213 201.000000 0.227900 237.000000 -0.001002 241.000000 -0.023588 17.000000 -0.205942 117.000000 0.165630 119.000000 0.142213
16014.000000 0.813372 255.000000 255.000000 159.000000 0.051833 203.000000 0.181131 205.000000 0.170661 237.000000 -0.026488 13.000000 -0.247394 126.000000 0.150014 163.000000 0.078761
16269.000000 0.846990 255.000000 259.000000 172.000000 0.078603 205.000000 0.167569 233.000000 -0.013479 240.000000 -0.034263 17.000000 -0.277099 124.000000 0.131146 144.000000 0.057054
16528.000000 0.889261 259.000000 251.000000 168.000000 0.113373 200.000000 0.242383 217.000000 0.043229 235.000000 0.006722 16.000000 -0.273419 118.000000 0.181275 122.000000 0.166731
16779.000000 0.918194 251.000000 255.000000 166.000000 0.112508 201.000000 0.240689 221.000000 -0.002461 240.000000 0.021379 14.000000 -0.168057 121.000000 0.133241 166.000000 0.112508
17034.000000 0.869654 255.000000 248.000000 164.000000 0.104610 198.000000 0.231583 226.000000 -0.006257 236.000000 0.009969 16.000000 -0.130488 127.000000 0.134421 165.000000 0.086036
17282.000000 0.859107 248.000000 253.000000 121.000000 0.147257 201.000000 0.230972 227.000000 0.021581 239.000000 0.009732 14.000000 -0.230831 119.000000 0.160972 142.000000 0.090016
17535.000000 0.812039 253.000000 255.000000 160.000000 0.055576 202.000000 0.240973 226.000000 0.005472 240.000000 0.005330 14.000000 -0.215345 119.000000 0.155000 122.000000 0.141535
17790.000000 0.796192 255.000000 259.000000 165.000000 0.088052 209.000000 0.206833 228.000000 -0.000925 244.000000 -0.019952 15.000000 -0.265280 126.000000 0.151989 139.000000 0.106031
18049.000000 0.778355 259.000000 246.000000 114.000000 0.150091 195.000000 0.184591 228.000000 -0.003545 233.000000 -0.027494 16.000000 -0.230798 114.000000 0.150091 193.000000 0.170422
18295.000000 0.762067 246.000000 251.000000 168.000000 0.061163 201.000000 0.194218 222.000000 -0.005206 237.000000 0.002256 14.000000 -0.255080 119.000000 0.125989 126.000000 0.123246
18546.000000 0.841303 251.000000 255.000000 121.000000 0.116030 200.000000 0.222632 203.000000 0.196207 239.000000 0.016769 16.000000 -0.261015 118.000000 0.125356 121.000000 0.116030
18801.000000 0.889637 255.000000 249.000000 166.000000 0.084402 198.000000 0.215044 224.000000 0.019434 231.000000 0.009247 15.000000 -0.187869 124.000000 0.139228 166.000000 0.084402
19050.000000 0.894703 249.000000 255.000000 166.000000 0.096570 200.000000 0.216978 236.000000 0.011507 237.000000 0.000520 15.000000 -0.158872 129.000000 0.124138 152.000000 0.077574
19305.000000 0.843811 255.000000 247.000000 118.000000 0.118307 197.000000 0.246785 223.000000 0.032991 234.000000 0.021345 15.000000 -0.144528 114.000000 0.125642 118.000000 0.118307
19552.000000 0.832179 247.000000 255.000000 167.000000 0.097380 203.000000 0.222991 204.000000 0.212317 237.000000 0.004903 14.000000 -0.233508 122.000000 0.135121 167.000000 0.097380
19807.000000 0.798852 255.000000 250.000000 173.000000 0.063777 199.000000 0.200893 206.000000 0.131379 235.000000 0.006441 15.000000 -0.189031 117.000000 0.157743 165.000000 0.099170
20057.000000 0.808744 250.000000 257.000000 169.000000 0.067005 204.000000 0.216911 238.000000 0.009215 243.000000 -0.000815 15.000000 -0.267824 119.000000 0.141503 129.000000 0.115797
20314.000000 0.787443 257.000000 261.000000 123.000000 0.140154 209.000000 0.214387 235.000000 0.007538 246.000000 0.012163 14.000000 -0.250958 125.000000 0.145954 207.000000 0.194967
20575.000000 0.771973 261.000000 258.000000 168.000000 0.087947 205.000000 0.219797 239.000000 0.014012 242.000000 0.002053 15.000000 -0.287917 120.000000 0.155003 141.000000 0.103403
20833.000000 0.806754 258.000000 255.000000 167.000000 0.078527 206.000000 0.217335 229.000000 0.023039 240.000000 0.024168 15.000000 -0.266195 121.000000 0.103070 159.000000 0.069341
21088.000000 0.871550 255.000000 257.000000 166.000000 0.082699 204.000000 0.229456 231.000000 0.004344 243.000000 -0.009356 17.000000 -0.236944 119.000000 0.166429 130.000000 0.133280
21345.000000 0.848182 257.000000 257.000000 125.000000 0.142066 210.000000 0.216612 236.000000 0.009700 241.000000 -0.019408 15.000000 -0.141017 126.000000 0.142584 209.000000 0.212286
21858.000000 0.813855 256.000000 251.000000 166.000000 0.099278 203.000000 0.209341 229.000000 0.004435 235.000000 0.003761 15.000000 -0.181831 120.000000 0.153839 142.000000 0.106017
22109.000000 0.799217 251.000000 258.000000 167.000000 0.102652 204.000000 0.177886 206.000000 0.171899 242.000000 -0.033932 16.000000 -0.203323 121.000000 0.158683 169.000000 0.087323
22367.000000 0.723404 258.000000 244.000000 162.000000 0.082684 195.000000 0.184721 217.000000 -0.015500 224.000000 -0.024402 15.000000 -0.249873 116.000000 0.160406 136.000000 0.097526
22611.000000 0.860612 244.000000 254.000000 165.000000 0.106551 204.000000 0.220078 222.000000 0.047071 234.000000 -0.013274 17.000000 -0.287069 121.000000 0.243824 147.000000 0.093543
22865.000000 0.897448 254.000000 251.000000 165.000000 0.062944 200.000000 0.208151 202.000000 0.202884 235.000000 -0.000800 17.000000 -0.257222 119.000000 0.105218 122.000000 0.083179
23116.000000 0.969090 251.000000 257.000000 171.000000 0.118763 205.000000 0.216929 207.000000 0.200377 241.000000 0.031507 15.000000 -0.280362 130.000000 0.128466 171.000000 0.118763
23373.000000 0.964955 257.000000 248.000000 162.000000 0.127492 197.000000 0.229530 221.000000 -0.002052 228.000000 -0.023431 17.000000 -0.136737 125.000000 0.122680 165.000000 0.113245
23868.000000 0.893085 247.000000 257.000000 150.000000 0.057087 206.000000 0.235235 226.000000 0.010408 239.000000 0.001993 17.000000 -0.108559 125.000000 0.149172 137.000000 0.120301
24872.000000 0.923243 245.000000 252.000000 169.000000 0.102285 199.000000 0.214040 209.000000 0.187630 235.000000 -0.012447 18.000000 -0.221394 130.000000 0.158554 145.000000 0.114934
25124.000000 0.889529 252.000000 249.000000 166.000000 0.134326 200.000000 0.257258 201.000000 0.256474 230.000000 0.054579 17.000000 -0.268041 130.000000 0.177239 166.000000 0.134326
25626.000000 0.834044 253.000000 253.000000 165.000000 0.090750 202.000000 0.242365 228.000000 0.013370 238.000000 0.009591 17.000000 -0.263417 120.000000 0.172600 128.000000 0.112585
26125.000000 0.779954 246.000000 246.000000 165.000000 0.122978 194.000000 0.241897 220.000000 0.046601 225.000000 0.012604 15.000000 -0.278650 124.000000 0.136220 134.000000 0.093180
26618.000000 0.821788 247.000000 250.000000 163.000000 0.118776 199.000000 0.261504 222.000000 0.004845 231.000000 0.038246 20.000000 -0.124936 124.000000 0.153760 128.000000 0.125202
26868.000000 0.843889 250.000000 247.000000 162.000000 0.093154 198.000000 0.254832 222.000000 0.001430 229.000000 0.010663 17.000000 -0.208465 123.000000 0.152072 141.000000 0.091493
27115.000000 0.867495 247.000000 247.000000 163.000000 0.112540 202.000000 0.255078 219.000000 0.030642 227.000000 0.026772 18.000000 -0.230124 124.000000 0.158576 163.000000 0.112540
28107.000000 0.972544 249.000000 247.000000 170.000000 0.113686 196.000000 0.244390 219.000000 0.040077 230.000000 0.025279 17.000000 -0.176186 125.000000 0.139516 170.000000 0.113686
28354.000000 0.934544 247.000000 255.000000 162.000000 0.096522 206.000000 0.215959 234.000000 0.004215 240.000000 0.005625 17.000000 -0.264718 130.000000 0.108102 142.000000 0.097713
28609.000000 0.936425 255.000000 249.000000 121.000000 0.090394 199.000000 0.227993 227.000000 0.014042 234.000000 0.013400 14.000000 -0.207398 128.000000 0.117086 199.000000 0.227993
28858.000000 0.884986 249.000000 251.000000 142.000000 0.116350 202.000000 0.240881 227.000000 0.016665 235.000000 0.010740 15.000000 -0.194920 121.000000 0.130016 130.000000 0.124875
29360.000000 0.888483 251.000000 250.000000 171.000000 0.109137 198.000000 0.207083 203.000000 0.175327 231.000000 -0.010659 16.000000 -0.276045 123.000000 0.133121 126.000000 0.125630
29610.000000 0.907150 250.000000 256.000000 171.000000 0.094407 207.000000 0.207651 234.000000 0.008542 240.000000 0.004373 17.000000 -0.282033 134.000000 0.114578 171.000000 0.094407
29866.000000 0.925048 256.000000 244.000000 145.000000 0.108054 192.000000 0.231818 217.000000 0.040030 223.000000 0.013713 16.000000 -0.299951 121.000000 0.142582 145.000000 0.108054
30110.000000 0.946473 244.000000 251.000000 170.000000 0.095830 200.000000 0.255534 227.000000 0.025581 234.000000 0.024469 21.000000 -0.117413 127.000000 0.141470 170.000000 0.095830
30361.000000 0.914750 251.000000 247.000000 164.000000 0.091034 197.000000 0.210094 198.000000 0.204420 230.000000 -0.018853 16.000000 -0.078936 128.000000 0.130034 166.000000 0.078495
31105.000000 0.801143 248.000000 250.000000 168.000000 0.094153 201.000000 0.216662 225.000000 0.003995 232.000000 -0.024406 17.000000 -0.255204 121.000000 0.157272 128.000000 0.138869
31355.000000 0.865363 250.000000 244.000000 117.000000 0.135389 194.000000 0.207369 221.000000 -0.013776 227.000000 -0.009717 19.000000 -0.244243 119.000000 0.141894 191.000000 0.198795
31599.000000 0.903480 244.000000 249.000000 164.000000 0.095392 199.000000 0.236803 224.000000 0.012276 231.000000 0.000018 16.000000 -0.280219 118.000000 0.137621 126.000000 0.130818
32096.000000 0.906332 248.000000 249.000000 170.000000 0.131712 197.000000 0.224781 222.000000 -0.016301 230.000000 0.005015 16.000000 -0.156490 122.000000 0.131742 171.000000 0.126524
32594.000000 0.883434 249.000000 244.000000 115.000000 0.131280 189.000000 0.224971 219.000000 0.002133 225.000000 0.040346 17.000000 -0.126175 116.000000 0.141954 187.000000 0.200629
33083.000000 0.828026 245.000000 251.000000 159.000000 0.070349 200.000000 0.201991 201.000000 0.191019 233.000000 0.004652 17.000000 -0.190830 120.000000 0.161946 131.000000 0.136102
33581.000000 0.814922 247.000000 250.000000 166.000000 0.071506 198.000000 0.210814 203.000000 0.147397 229.000000 -0.055362 20.000000 -0.175296 127.000000 0.156065 166.000000 0.071506
34080.000000 0.912073 249.000000 243.000000 126.000000 0.158041 192.000000 0.286489 216.000000 0.047147 227.000000 0.056550 16.000000 -0.275938 119.000000 0.178463 126.000000 0.158041
34323.000000 0.957162 243.000000 243.000000 119.000000 0.129575 191.000000 0.243624 209.000000 0.060677 226.000000 0.041805 15.000000 -0.114704 119.000000 0.129575 193.000000 0.224471
34566.000000 0.916946 243.000000 251.000000 124.000000 0.137960 198.000000 0.256570 224.000000 0.026084 236.000000 0.029656 15.000000 -0.110719 125.000000 0.143854 197.000000 0.236507
34817.000000 0.882165 251.000000 243.000000 119.000000 0.113398 188.000000 0.220472 189.000000 0.205833 228.000000 0.009187 13.000000 -0.163290 127.000000 0.136470 189.000000 0.205833
35060.000000 0.879734 243.000000 243.000000 161.000000 0.126661 196.000000 0.232008 222.000000 0.007775 226.000000 -0.014246 17.000000 -0.110095 124.000000 0.160865 163.000000 0.123464
35303.000000 0.844028 243.000000 244.000000 114.000000 0.112866 193.000000 0.219531 220.000000 0.000693 228.000000 0.003247 16.000000 -0.142161 118.000000 0.136816 198.000000 0.135959
35789.000000 0.837430 242.000000 246.000000 163.000000 0.111582 199.000000 0.228306 214.000000 0.041063 228.000000 -0.009971 16.000000 -0.214872 120.000000 0.170860 163.000000 0.111582
36035.000000 0.825346 246.000000 248.000000 167.000000 0.100893 196.000000 0.213024 221.000000 -0.003860 231.000000 0.021658 15.000000 -0.269121 121.000000 0.161597 158.000000 0.091630
36535.000000 0.790421 252.000000 249.000000 173.000000 0.081913 200.000000 0.208868 201.000000 0.183273 231.000000 -0.023904 16.000000 -0.243655 116.000000 0.145567 150.000000 0.063779
36784.000000 0.779342 249.000000 247.000000 165.000000 0.086395 198.000000 0.176517 216.000000 0.004702 223.000000 -0.021802 17.000000 -0.191646 117.000000 0.158120 166.000000 0.092414
37031.000000 0.845850 247.000000 250.000000 160.000000 0.068214 195.000000 0.223197 196.000000 0.217617 232.000000 0.017085 17.000000 -0.274806 122.000000 0.123117 142.000000 0.052588
37785.000000 0.835989 251.000000 246.000000 165.000000 0.103120 195.000000 0.241663 221.000000 0.028418 224.000000 0.020016 14.000000 -0.227491 114.000000 0.138808 118.000000 0.115736
38284.000000 0.786945 253.000000 254.000000 150.000000 0.083162 202.000000 0.248605 229.000000 0.017382 233.000000 0.004185 16.000000 -0.266285 118.000000 0.162066 130.000000 0.138490
39042.000000 0.838305 256.000000 253.000000 171.000000 0.073703 202.000000 0.203326 229.000000 -0.030910 237.000000 0.014218 15.000000 -0.297729 117.000000 0.132650 122.000000 0.105112
39295.000000 0.895472 253.000000 252.000000 148.000000 0.081108 202.000000 0.228117 227.000000 0.014530 235.000000 0.031082 17.000000 -0.232802 127.000000 0.147205 148.000000 0.081108
39547.000000 0.953450 252.000000 246.000000 119.000000 0.129498 197.000000 0.252444 220.000000 0.040566 228.000000 0.029814 16.000000 -0.262443 116.000000 0.141771 119.000000 0.129498
39793.000000 0.954765 246.000000 258.000000 175.000000 0.098413 208.000000 0.258682 224.000000 0.061222 241.000000 0.043915 16.000000 -0.196692 122.000000 0.127930 126.000000 0.125986
40552.000000 0.890282 250.000000 252.000000 168.000000 0.102442 199.000000 0.214575 229.000000 0.009863 236.000000 -0.011314 14.000000 -0.294734 119.000000 0.164625 152.000000 0.072004
41310.000000 0.802102 252.000000 246.000000 162.000000 0.072963 192.000000 0.202868 194.000000 0.197383 229.000000 0.005485 15.000000 -0.265908 116.000000 0.137820 118.000000 0.128777
41556.000000 0.818508 246.000000 261.000000 167.000000 0.038906 211.000000 0.189173 224.000000 0.041431 244.000000 -0.008946 17.000000 -0.238322 123.000000 0.138606 147.000000 0.079845
41817.000000 0.847055 261.000000 247.000000 164.000000 0.132274 196.000000 0.237400 224.000000 0.033655 232.000000 0.008655 17.000000 -0.275927 127.000000 0.153794 165.000000 0.123560
42064.000000 0.905129 247.000000 250.000000 168.000000 0.115829 199.000000 0.224968 201.000000 0.223699 235.000000 0.003715 14.000000 -0.139148 133.000000 0.130845 168.000000 0.115829
42822.000000 0.837416 252.000000 253.000000 178.000000 0.107400 201.000000 0.215815 213.000000 0.099608 234.000000 -0.030595 14.000000 -0.239966 119.000000 0.143699 121.000000 0.130062
43573.000000 0.812807 255.000000 244.000000 167.000000 0.061252 191.000000 0.166990 192.000000 0.166160 227.000000 -0.031030 13.000000 -0.239639 115.000000 0.109716 118.000000 0.096598
43817.000000 0.895377 244.000000 252.000000 166.000000 0.106241 204.000000 0.236696 221.000000 0.040896 234.000000 0.023607 14.000000 -0.272069 121.000000 0.162759 126.000000 0.137775
44069.000000 0.915957 252.000000 248.000000 166.000000 0.097051 196.000000 0.222678 220.000000 0.024263 229.000000 0.022037 16.000000 -0.141867 121.000000 0.127114 150.000000 0.068241
44317.000000 0.870629 248.000000 247.000000 140.000000 0.089056 198.000000 0.235153 223.000000 0.022175 231.000000 0.020514 16.000000 -0.074745 125.000000 0.125420 140.000000 0.089056
44564.000000 0.841191 247.000000 249.000000 168.000000 0.093918 201.000000 0.218733 225.000000 0.004783 232.000000 -0.016111 18.000000 -0.122555 119.000000 0.129905 128.000000 0.101128
44813.000000 0.828277 249.000000 245.000000 156.000000 0.084297 194.000000 0.234502 222.000000 0.014300 231.000000 0.036384 17.000000 -0.107038 121.000000 0.140111 156.000000 0.084297
45058.000000 0.783718 245.000000 259.000000 154.000000 0.077071 207.000000 0.211132 237.000000 -0.011299 243.000000 -0.011769 16.000000 -0.152193 129.000000 0.129654 154.000000 0.077071
45317.000000 0.783370 259.000000 251.000000 169.000000 0.098261 199.000000 0.218589 225.000000 0.006536 233.000000 0.008934 15.000000 -0.206803 121.000000 0.151382 170.000000 0.103105
45817.000000 0.764057 249.000000 249.000000 117.000000 0.107635 196.000000 0.206693 223.000000 0.006471 233.000000 0.005122 20.000000 -0.131900 115.000000 0.116427 137.000000 0.068306
46321.000000 0.804811 255.000000 249.000000 119.000000 0.103654 200.000000 0.229093 223.000000 0.029391 232.000000 0.021038 16.000000 -0.164281 126.000000 0.146475 199.000000 0.214595
46570.000000 0.778481 249.000000 253.000000 162.000000 0.099763 202.000000 0.217146 212.000000 0.120327 236.000000 0.008168 17.000000 -0.192651 120.000000 0.131833 128.000000 0.120956
46823.000000 0.708120 253.000000 262.000000 179.000000 0.092635 201.000000 0.187665 210.000000 0.180595 241.000000 -0.023275 15.000000 -0.219514 128.000000 0.147838 164.000000 0.110816
47338.000000 0.677682 253.000000 252.000000 119.000000 0.132478 200.000000 0.226944 229.000000 -0.007539 240.000000 0.007398 16.000000 -0.224136 116.000000 0.141051 119.000000 0.132478
47590.000000 0.737320 252.000000 259.000000 165.000000 0.090424 204.000000 0.216426 237.000000 0.017332 243.000000 -0.008013 14.000000 -0.258652 120.000000 0.131897 165.000000 0.090424
48109.000000 0.795801 260.000000 254.000000 165.000000 0.105048 199.000000 0.234578 224.000000 0.042539 235.000000 0.028998 15.000000 -0.232838 117.000000 0.134983 126.000000 0.105248
48363.000000 0.784783 254.000000 247.000000 119.000000 0.120688 197.000000 0.228792 221.000000 0.027586 231.000000 0.000140 16.000000 -0.135687 124.000000 0.143557 191.000000 0.174106
48610.000000 0.811268 247.000000 261.000000 164.000000 0.091477 202.000000 0.208731 227.000000 0.014780 245.000000 -0.032162 18.000000 -0.187448 120.000000 0.134613 129.000000 0.119300
49122.000000 0.718948 251.000000 255.000000 165.000000 0.077351 200.000000 0.189577 227.000000 -0.017588 238.000000 -0.017915 15.000000 -0.250127 123.000000 0.123133 147.000000 0.088889
49377.000000 0.732020 255.000000 262.000000 119.000000 0.132979 208.000000 0.196897 232.000000 0.010376 245.000000 -0.003653 15.000000 -0.238843 119.000000 0.132979 203.000000 0.187978
49639.000000 0.757165 262.000000 257.000000 170.000000 0.099716 204.000000 0.209075 230.000000 0.041739 242.000000 0.015532 15.000000 -0.229699 123.000000 0.119748 147.000000 0.087834
50146.000000 0.830925 250.000000 253.000000 122.000000 0.123027 198.000000 0.205564 231.000000 0.012479 239.000000 0.014173 16.000000 -0.150611 119.000000 0.126051 122.000000 0.123027
50399.000000 0.791068 253.000000 266.000000 164.000000 0.080095 210.000000 0.200455 240.000000 0.001128 250.000000 0.000032 14.000000 -0.176692 122.000000 0.132541 126.000000 0.119407
50665.000000 0.776271 266.000000 255.000000 165.000000 0.104684 199.000000 0.224731 227.000000 0.005217 236.000000 0.015452 15.000000 -0.246676 118.000000 0.140641 143.000000 0.081360
50920.000000 0.767148 255.000000 258.000000 160.000000 0.077396 208.000000 0.213198 233.000000 -0.007537 242.000000 -0.020044 17.000000 -0.149340 126.000000 0.137066 160.000000 0.077396
51178.000000 0.788339 258.000000 259.000000 117.000000 0.121021 203.000000 0.213308 230.000000 -0.001943 242.000000 -0.011660 17.000000 -0.231913 119.000000 0.127949 203.000000 0.213308
51437.000000 0.827712 259.000000 257.000000 180.000000 0.069015 207.000000 0.208544 230.000000 0.016443 241.000000 -0.000784 13.000000 -0.247227 127.000000 0.129219 166.000000 0.090679
51694.000000 0.872668 257.000000 255.000000 169.000000 0.091897 202.000000 0.220911 229.000000 0.030707 237.000000 -0.001847 17.000000 -0.240267 120.000000 0.137650 138.000000 0.088967
51949.000000 0.896258 255.000000 257.000000 166.000000 0.106600 203.000000 0.240662 225.000000 0.037777 237.000000 0.015709 15.000000 -0.179433 129.000000 0.128970 166.000000 0.106600
52468.000000 0.832541 262.000000 254.000000 169.000000 0.083335 201.000000 0.218603 211.000000 0.144089 237.000000 0.016098 14.000000 -0.185752 128.000000 0.134595 169.000000 0.083335
52722.000000 0.808827 254.000000 256.000000 168.000000 0.074310 203.000000 0.198745 205.000000 0.183527 243.000000 0.019891 16.000000 -0.231048 123.000000 0.129607 168.000000 0.074310
52978.000000 0.859185 256.000000 259.000000 173.000000 0.049511 206.000000 0.182975 232.000000 -0.033498 241.000000 -0.005612 14.000000 -0.230500 122.000000 0.143807 141.000000 0.077630
53237.000000 0.883012 259.000000 257.000000 164.000000 0.118241 203.000000 0.202555 205.000000 0.201380 241.000000 -0.010514 18.000000 -0.272568 126.000000 0.138793 135.000000 0.115767
53494.000000 0.917871 257.000000 253.000000 166.000000 0.089092 202.000000 0.226772 223.000000 0.026692 235.000000 0.018339 16.000000 -0.257550 121.000000 0.124814 142.000000 0.083982
53747.000000 0.974407 253.000000 243.000000 162.000000 0.120799 189.000000 0.262600 219.000000 0.047866 228.000000 0.060702 16.000000 -0.178443 130.000000 0.153841 163.000000 0.113698
53990.000000 0.949357 243.000000 253.000000 129.000000 0.050518 191.000000 0.292305 199.000000 0.265331 236.000000 0.063339 10.000000 -0.339092 150.000000 0.067995 192.000000 0.282478
54737.000000 0.853791 249.000000 256.000000 165.000000 0.081441 202.000000 0.218542 222.000000 0.025845 243.000000 0.000781 16.000000 -0.091630 125.000000 0.116016 165.000000 0.081441
55491.000000 0.910802 248.000000 251.000000 167.000000 0.100850 198.000000 0.225865 224.000000 0.028780 230.000000 0.018513 16.000000 -0.230737 119.000000 0.121383 122.000000 0.113499
55995.000000 0.860531 253.000000 249.000000 167.000000 0.093856 198.000000 0.215363 216.000000 0.028936 232.000000 -0.012614 9.000000 -0.201724 119.000000 0.116692 122.000000 0.093666
56244.000000 0.858388 249.000000 253.000000 163.000000 0.076911 203.000000 0.228793 232.000000 0.003543 237.000000 -0.010689 16.000000 -0.169592 122.000000 0.154624 163.000000 0.076911
56747.000000 0.795095 250.000000 253.000000 170.000000 0.092461 202.000000 0.194782 224.000000 -0.004732 241.000000 -0.000422 19.000000 -0.213009 122.000000 0.170390 176.000000 0.062053
57000.000000 0.782350 253.000000 252.000000 158.000000 0.065598 203.000000 0.185531 223.000000 -0.030144 234.000000 -0.033732 8.000000 -0.281320 122.000000 0.158641 158.000000 0.065598
57252.000000 0.833808 252.000000 251.000000 165.000000 0.054263 197.000000 0.185581 230.000000 0.010988 238.000000 -0.007711 16.000000 -0.269609 121.000000 0.152037 165.000000 0.054263
57503.000000 0.848448 251.000000 259.000000 168.000000 0.099670 207.000000 0.231754 235.000000 0.007146 242.000000 0.005328 14.000000 -0.257054 124.000000 0.155922 168.000000 0.099670
58010.000000 0.852288 248.000000 253.000000 165.000000 0.070267 201.000000 0.204937 218.000000 0.039247 239.000000 -0.000847 14.000000 -0.196739 120.000000 0.158167 142.000000 0.081410
58263.000000 0.831522 253.000000 254.000000 117.000000 0.135752 201.000000 0.203591 228.000000 0.007728 239.000000 0.006646 14.000000 -0.265626 119.000000 0.146818 197.000000 0.174954
58517.000000 0.819592 254.000000 251.000000 167.000000 0.094139 201.000000 0.213905 208.000000 0.098278 215.000000 0.071538 15.000000 -0.284531 122.000000 0.164263 128.000000 0.156222
58768.000000 0.782006 251.000000 255.000000 166.000000 0.076176 203.000000 0.214921 227.000000 0.014340 240.000000 -0.005988 19.000000 -0.214187 122.000000 0.165611 169.000000 0.071739
59023.000000 0.764951 255.000000 249.000000 161.000000 0.052384 199.000000 0.208136 225.000000 0.000297 234.000000 -0.006896 18.000000 -0.220613 116.000000 0.193497 120.000000 0.146460
59272.000000 0.796959 249.000000 256.000000 175.000000 0.064595 205.000000 0.189000 229.000000 0.000440 237.000000 -0.031473 15.000000 -0.258684 120.000000 0.177134 122.000000 0.153294
59528.000000 0.764967 256.000000 251.000000 164.000000 0.079580 199.000000 0.219080 224.000000 -0.003837 234.000000 -0.011673 17.000000 -0.247479 116.000000 0.189139 164.000000 0.079580
59779.000000 0.752352 251.000000 252.000000 122.000000 0.133105 200.000000 0.197136 220.000000 -0.015529 234.000000 -0.032772 16.000000 -0.280158 116.000000 0.168967 122.000000 0.133105
60031.000000 0.749904 252.000000 253.000000 166.000000 0.093077 199.000000 0.217247 204.000000 0.164221 237.000000 -0.015202 17.000000 -0.263500 117.000000 0.180755 119.000000 0.177010
60537.000000 0.816147 253.000000 249.000000 119.000000 0.142928 199.000000 0.220659 226.000000 0.006097 232.000000 0.006098 16.000000 -0.224919 115.000000 0.150452 119.000000 0.142928
60786.000000 0.837320 249.000000 248.000000 121.000000 0.122807 189.000000 0.198496 194.000000 0.173105 231.000000 -0.018401 17.000000 -0.154467 118.000000 0.145784 125.000000 0.110173
61034.000000 0.830564 248.000000 256.000000 169.000000 0.076142 206.000000 0.204435 233.000000 -0.003259 239.000000 -0.014246 14.000000 -0.238747 122.000000 0.153620 123.000000 0.143981
61290.000000 0.795800 256.000000 248.000000 163.000000 0.057401 195.000000 0.208058 218.000000 -0.003321 229.000000 0.001365 15.000000 -0.259998 119.000000 0.175345 163.000000 0.057401
61789.000000 0.766302 251.000000 246.000000 148.000000 0.067871 193.000000 0.210676 220.000000 0.003104 226.000000 -0.036755 14.000000 -0.281002 111.000000 0.175423 113.000000 0.157084
62035.000000 0.767070 246.000000 251.000000 165.000000 0.081865 200.000000 0.206740 227.000000 -0.003933 237.000000 -0.005955 15.000000 -0.248069 120.000000 0.168573 167.000000 0.073041
62286.000000 0.774877 251.000000 253.000000 163.000000 0.063950 200.000000 0.199688 226.000000 -0.004638 241.000000 0.014970 16.000000 -0.254260 118.000000 0.165108 119.000000 0.150860
62791.000000 0.800504 252.000000 257.000000 160.000000 0.025627 202.000000 0.206068 203.000000 0.205551 239.000000 0.011112 18.000000 -0.227302 119.000000 0.139108 142.000000 0.076128
63048.000000 0.795738 257.000000 249.000000 161.000000 0.097207 197.000000 0.224920 226.000000 -0.007475 233.000000 0.015141 15.000000 -0.243886 115.000000 0.135750 121.000000 0.117960
63297.000000 0.859671 249.000000 254.000000 169.000000 0.075298 201.000000 0.212071 227.000000 0.004236 238.000000 0.013359 16.000000 -0.195799 127.000000 0.147303 169.000000 0.075298
63551.000000 0.812998 254.000000 256.000000 155.000000 0.058639 199.000000 0.216474 216.000000 0.047647 238.000000 -0.002180 15.000000 -0.259622 126.000000 0.136489 155.000000 0.058639
63807.000000 0.793651 256.000000 263.000000 170.000000 0.096334 209.000000 0.216460 235.000000 0.005471 245.000000 0.006081 15.000000 -0.247918 124.000000 0.155301 135.000000 0.133202
64070.000000 0.788073 263.000000 259.000000 159.000000 0.065268 204.000000 0.208401 235.000000 -0.003936 244.000000 0.008385 18.000000 -0.191535 123.000000 0.147023 160.000000 0.078355
64329.000000 0.803748 259.000000 254.000000 165.000000 0.088090 202.000000 0.192684 230.000000 0.014501 237.000000 0.010190 18.000000 -0.224748 120.000000 0.149499 122.000000 0.130941
64583.000000 0.851584 254.000000 259.000000 170.000000 0.056630 204.000000 0.195171 232.000000 -0.010534 244.000000 -0.003888 18.000000 -0.200360 117.000000 0.110595 127.000000 0.090281
65100.000000 0.923277 258.000000 254.000000 165.000000 0.073605 200.000000 0.231629 226.000000 0.007742 238.000000 0.000218 16.000000 -0.141300 126.000000 0.114778 165.000000 0.073605
65354.000000 0.897650 254.000000 258.000000 168.000000 0.067775 200.000000 0.206837 232.000000 0.024470 243.000000 0.019923 15.000000 -0.116660 125.000000 0.139639 147.000000 0.088966
65612.000000 0.891347 258.000000 258.000000 175.000000 0.081085 204.000000 0.231069 229.000000 0.029233 243.000000 -0.002853 15.000000 -0.164814 120.000000 0.105569 124.000000 0.087811
65870.000000 0.818792 258.000000 256.000000 164.000000 0.107131 197.000000 0.208730 209.000000 0.156694 239.000000 0.004671 13.000000 -0.226758 122.000000 0.116688 130.000000 0.091766
66126.000000 0.886333 256.000000 254.000000 119.000000 0.089612 200.000000 0.213560 230.000000 0.033906 239.000000 0.042702 18.000000 -0.216628 119.000000 0.089612 199.000000 0.208716
66380.000000 0.933377 254.000000 265.000000 166.000000 0.099595 211.000000 0.213437 241.000000 0.008265 251.000000 0.023279 16.000000 -0.238038 128.000000 0.113200 166.000000 0.099595
66645.000000 0.951412 265.000000 257.000000 163.000000 0.064466 203.000000 0.233057 220.000000 0.029105 237.000000 -0.003730 15.000000 -0.134703 121.000000 0.121681 125.000000 0.098374
66902.000000 0.889998 257.000000 258.000000 172.000000 0.118168 199.000000 0.236347 201.000000 0.211362 241.000000 -0.007244 19.000000 -0.111775 125.000000 0.141035 149.000000 0.103199
67160.000000 0.868227 258.000000 261.000000 169.000000 0.088372 204.000000 0.206993 229.000000 0.023605 243.000000 0.004358 15.000000 -0.187553 120.000000 0.117867 170.000000 0.083168
67421.000000 0.875675 261.000000 258.000000 172.000000 0.100389 203.000000 0.185283 232.000000 0.003343 239.000000 -0.039854 15.000000 -0.248214 122.000000 0.135345 172.000000 0.100389
67942.000000 0.941281 263.000000 259.000000 167.000000 0.097725 204.000000 0.225407 232.000000 0.009404 242.000000 0.013103 14.000000 -0.179954 122.000000 0.120187 146.000000 0.083101
68201.000000 0.924871 259.000000 264.000000 166.000000 0.075015 208.000000 0.227035 234.000000 0.017663 246.000000 0.014904 17.000000 -0.081898 135.000000 0.108776 166.000000 0.075015
68465.000000 0.871535 264.000000 258.000000 167.000000 0.059354 205.000000 0.234873 228.000000 0.026740 243.000000 0.015440 19.000000 -0.133259 123.000000 0.123116 156.000000 0.066923
68723.000000 0.836020 258.000000 258.000000 178.000000 0.093446 204.000000 0.245670 219.000000 0.046659 240.000000 0.004871 14.000000 -0.178868 119.000000 0.120139 124.000000 0.097755
68981.000000 0.812128 258.000000 267.000000 165.000000 0.074934 212.000000 0.209999 246.000000 0.005406 251.000000 -0.019155 15.000000 -0.194247 124.000000 0.149182 165.000000 0.074934
69248.000000 0.809999 267.000000 263.000000 163.000000 0.074811 205.000000 0.216520 206.000000 0.216520 246.000000 -0.020424 17.000000 -0.206912 121.000000 0.165314 124.000000 0.152163
69771.000000 0.771961 260.000000 256.000000 171.000000 0.087429 199.000000 0.214780 234.000000 0.017648 236.000000 0.005643 16.000000 -0.215564 115.000000 0.152396 118.000000 0.119544
70284.000000 0.811738 257.000000 254.000000 165.000000 0.088589 201.000000 0.213467 225.000000 0.001805 238.000000 0.003497 16.000000 -0.260629 119.000000 0.156724 121.000000 0.137821
70538.000000 0.778888 254.000000 257.000000 175.000000 0.095892 204.000000 0.214841 229.000000 -0.004983 242.000000 -0.018667 15.000000 -0.267492 127.000000 0.158805 175.000000 0.095892
70795.000000 0.773026 257.000000 259.000000 174.000000 0.072711 205.000000 0.209482 222.000000 0.021803 244.000000 0.013717 15.000000 -0.267209 122.000000 0.175626 158.000000 0.076754
71054.000000 0.744956 259.000000 255.000000 162.000000 0.075032 201.000000 0.194060 202.000000 0.188700 237.000000 -0.016095 16.000000 -0.224497 128.000000 0.155987 145.000000 0.060109
71309.000000 0.759248 255.000000 246.000000 166.000000 0.089361 193.000000 0.179468 221.000000 0.006630 233.000000 0.006112 16.000000 -0.241632 115.000000 0.150346 118.000000 0.137588
71555.000000 0.810594 246.000000 263.000000 167.000000 0.073962 209.000000 0.196128 232.000000 -0.010092 248.000000 -0.013479 13.000000 -0.247491 122.000000 0.129560 169.000000 0.073006
71818.000000 0.859468 263.000000 251.000000 165.000000 0.083696 196.000000 0.222616 229.000000 0.024342 237.000000 0.027791 15.000000 -0.197305 120.000000 0.144917 123.000000 0.131108
72069.000000 0.875814 251.000000 257.000000 121.000000 0.129169 204.000000 0.220813 222.000000 0.010972 241.000000 0.018888 14.000000 -0.162944 122.000000 0.129560 204.000000 0.220813
72326.000000 0.815660 257.000000 250.000000 116.000000 0.154684 193.000000 0.220517 227.000000 0.010942 236.000000 0.033387 17.000000 -0.183854 116.000000 0.154684 192.000000 0.195266
73090.000000 0.788275 255.000000 252.000000 121.000000 0.139766 197.000000 0.176194 228.000000 -0.007273 237.000000 -0.002963 14.000000 -0.256036 121.000000 0.139766 199.000000 0.170254
73342.000000 0.874233 252.000000 262.000000 124.000000 0.134966 204.000000 0.214421 231.000000 -0.005109 243.000000 0.006614 15.000000 -0.257085 122.000000 0.149496 131.000000 0.105359
73604.000000 0.884198 262.000000 249.000000 164.000000 0.061287 198.000000 0.212855 212.000000 0.067744 230.000000 0.004517 15.000000 -0.144752 124.000000 0.129878 164.000000 0.061287
73853.000000 0.845267 249.000000 252.000000 153.000000 0.077228 198.000000 0.224422 227.000000 0.005894 235.000000 0.018166 15.000000 -0.131459 127.000000 0.134910 147.000000 0.073389
74105.000000 0.822539 252.000000 249.000000 163.000000 0.104671 196.000000 0.232193 226.000000 0.009749 231.000000 0.011081 16.000000 -0.117963 117.000000 0.138948 164.000000 0.097006
74354.000000 0.802963 249.000000 255.000000 174.000000 0.070347 203.000000 0.235425 228.000000 0.006363 238.000000 -0.011460 20.000000 -0.152304 128.000000 0.146319 141.000000 0.088655
74609.000000 0.806394 255.000000 249.000000 165.000000 0.105579 196.000000 0.208808 225.000000 0.003151 233.000000 -0.007570 17.000000 -0.240553 117.000000 0.153046 165.000000 0.105579
75098.000000 0.841898 240.000000 254.000000 141.000000 0.080341 201.000000 0.223983 221.000000 0.015049 234.000000 0.004780 17.000000 -0.218540 117.000000 0.129606 121.000000 0.121345
75352.000000 0.897318 254.000000 248.000000 165.000000 0.116627 197.000000 0.213680 215.000000 0.054513 228.000000 0.002304 18.000000 -0.157085 129.000000 0.127754 168.000000 0.085733
75600.000000 0.882603 248.000000 249.000000 124.000000 0.087849 193.000000 0.214714 195.000000 0.214526 233.000000 0.005905 18.000000 -0.140451 121.000000 0.111046 134.000000 0.097645
76359.000000 0.779984 257.000000 257.000000 170.000000 0.081489 204.000000 0.226348 229.000000 0.019372 237.000000 0.016881 16.000000 -0.271459 120.000000 0.144247 149.000000 0.050797
76869.000000 0.730690 253.000000 266.000000 163.000000 0.081705 212.000000 0.204246 238.000000 -0.009796 250.000000 -0.034373 16.000000 -0.252554 124.000000 0.144921 137.000000 0.110737
77135.000000 0.816536 266.000000 257.000000 124.000000 0.132839 206.000000 0.206612 231.000000 0.002757 240.000000 0.002994 17.000000 -0.242085 124.000000 0.132839 202.000000 0.158337
77392.000000 0.841488 257.000000 255.000000 167.000000 0.088451 204.000000 0.201146 230.000000 0.002430 236.000000 0.001804 17.000000 -0.259328 130.000000 0.123779 142.000000 0.117088
77647.000000 0.909922 255.000000 251.000000 140.000000 0.082275 198.000000 0.221193 223.000000 0.021646 237.000000 0.026474 17.000000 -0.128151 115.000000 0.116412 118.000000 0.113232
77898.000000 0.867572 251.000000 256.000000 165.000000 0.104878 202.000000 0.232524 228.000000 0.010626 238.000000 0.020625 15.000000 -0.185265 128.000000 0.134107 141.000000 0.088512
78154.000000 0.803588 256.000000 256.000000 171.000000 0.077807 196.000000 0.201583 204.000000 0.198839 238.000000 -0.012480 17.000000 -0.160472 124.000000 0.153764 171.000000 0.077807
78410.000000 0.792348 256.000000 252.000000 168.000000 0.098465 201.000000 0.204608 229.000000 0.011644 238.000000 0.001064 16.000000 -0.206227 120.000000 0.168546 168.000000 0.098465
78662.000000 0.773495 252.000000 263.000000 175.000000 0.050972 209.000000 0.200046 234.000000 -0.018778 245.000000 -0.029689 15.000000 -0.221801 120.000000 0.144544 131.000000 0.127945
78925.000000 0.754467 263.000000 249.000000 169.000000 0.094217 197.000000 0.183837 198.000000 0.183320 232.000000 -0.023732 16.000000 -0.239686 115.000000 0.133560 169.000000 0.094217
79174.000000 0.788179 249.000000 247.000000 156.000000 0.055548 197.000000 0.206287 219.000000 0.012305 227.000000 -0.052023 15.000000 -0.258764 124.000000 0.139859 156.000000 0.055548
79421.000000 0.834325 247.000000 261.000000 166.000000 0.088890 204.000000 0.204704 230.000000 0.021379 244.000000 0.007729 17.000000 -0.269970 118.000000 0.121476 124.000000 0.092714
79935.000000 0.855050 253.000000 253.000000 169.000000 0.092383 199.000000 0.202760 200.000000 0.197054 234.000000 0.005457 14.000000 -0.126768 121.000000 0.121346 131.000000 0.084247
80188.000000 0.837947 253.000000 247.000000 149.000000 0.050223 192.000000 0.204986 194.000000 0.204438 226.000000 0.019091 19.000000 -0.136130 120.000000 0.140474 150.000000 0.055819
80435.000000 0.746395 247.000000 259.000000 167.000000 0.077416 208.000000 0.223574 224.000000 0.021316 243.000000 0.008744 17.000000 -0.152275 124.000000 0.142289 167.000000 0.077416
80694.000000 0.772868 259.000000 253.000000 121.000000 0.149825 201.000000 0.240264 212.000000 0.121048 236.000000 -0.008104 16.000000 -0.208680 119.000000 0.158822 121.000000 0.149825
80947.000000 0.761475 253.000000 259.000000 169.000000 0.092273 202.000000 0.199749 225.000000 0.021333 240.000000 -0.010595 15.000000 -0.254935 121.000000 0.141643 169.000000 0.092273
81467.000000 0.749268 261.000000 260.000000 173.000000 0.089438 207.000000 0.190344 235.000000 -0.015361 244.000000 -0.002571 16.000000 -0.256111 128.000000 0.137290 150.000000 0.074358
81727.000000 0.786256 260.000000 249.000000 121.000000 0.113009 199.000000 0.213653 223.000000 0.005159 234.000000 -0.006597 14.000000 -0.266880 120.000000 0.122507 141.000000 0.077850
81976.000000 0.812618 249.000000 257.000000 164.000000 0.066695 204.000000 0.217480 230.000000 0.036304 237.000000 0.018904 13.000000 -0.222634 121.000000 0.139092 164.000000 0.066695
82233.000000 0.783590 257.000000 260.000000 163.000000 0.097402 211.000000 0.222995 235.000000 0.020535 244.000000 0.016677 15.000000 -0.118230 127.000000 0.113780 163.000000 0.097402
82493.000000 0.750751 260.000000 256.000000 160.000000 0.081977 204.000000 0.223089 230.000000 0.021834 238.000000 0.009592 17.000000 -0.155895 122.000000 0.127024 131.000000 0.106100
82749.000000 0.714780 256.000000 250.000000 170.000000 0.060537 202.000000 0.207682 228.000000 -0.004186 242.000000 0.038682 20.000000 -0.114639 119.000000 0.137118 127.000000 0.121303
82999.000000 0.736628 250.000000 258.000000 167.000000 0.094859 203.000000 0.211648 227.000000 0.016051 240.000000 0.003997 5.000000 0.203086 119.000000 0.154563 167.000000 0.094859
83509.000000 0.715391 252.000000 255.000000 167.000000 0.068872 195.000000 0.186694 199.000000 0.161161 238.000000 -0.024939 15.000000 -0.235581 124.000000 0.147164 167.000000 0.068872
83764.000000 0.731644 255.000000 255.000000 121.000000 0.125409 204.000000 0.219214 235.000000 -0.002727 240.000000 0.011724 15.000000 -0.253168 120.000000 0.135017 121.000000 0.125409
84019.000000 0.772901 255.000000 263.000000 168.000000 0.092165 211.000000 0.204357 236.000000 0.016114 244.000000 -0.016301 19.000000 -0.187195 131.000000 0.144029 168.000000 0.092165
84282.000000 0.752866 263.000000 250.000000 168.000000 0.096348 200.000000 0.209170 223.000000 -0.001912 230.000000 -0.002477 15.000000 -0.235612 120.000000 0.153732 168.000000 0.096348
84532.000000 0.708355 250.000000 256.000000 124.000000 0.132662 206.000000 0.213276 232.000000 0.009830 239.000000 -0.010249 17.000000 -0.201065 123.000000 0.141973 133.000000 0.127505
84788.000000 0.678467 256.000000 267.000000 169.000000 0.063967 213.000000 0.200279 228.000000 0.047193 249.000000 -0.005408 16.000000 -0.232633 119.000000 0.134202 123.000000 0.118999
85055.000000 0.677443 267.000000 262.000000 175.000000 0.095818 209.000000 0.207165 236.000000 0.015923 249.000000 0.012663 17.000000 -0.216460 126.000000 0.134926 175.000000 0.095818
85317.000000 0.741943 262.000000 263.000000 168.000000 0.066002 211.000000 0.191769 238.000000 -0.011992 246.000000 -0.022397 15.000000 -0.225500 120.000000 0.131597 128.000000 0.112161
85580.000000 0.779517 263.000000 257.000000 118.000000 0.122223 201.000000 0.214212 230.000000 0.002586 237.000000 -0.017413 18.000000 -0.227020 118.000000 0.122223 200.000000 0.194572
86099.000000 0.886894 262.000000 253.000000 166.000000 0.090561 200.000000 0.226847 229.000000 0.002162 240.000000 0.004810 16.000000 -0.173588 118.000000 0.125044 166.000000 0.090561
86352.000000 0.836268 253.000000 263.000000 171.000000 0.077883 211.000000 0.237490 237.000000 0.004889 247.000000 0.024105 14.000000 -0.203009 127.000000 0.130095 139.000000 0.098963
86615.000000 0.825580 263.000000 268.000000 161.000000 0.067206 212.000000 0.216958 246.000000 -0.005250 253.000000 -0.001113 16.000000 -0.165655 128.000000 0.135642 161.000000 0.067206
87404.000000 0.894293 258.000000 267.000000 170.000000 0.086395 215.000000 0.197666 242.000000 -0.000518 251.000000 0.007286 15.000000 -0.292119 132.000000 0.104281 144.000000 0.095754
87671.000000 0.891188 267.000000 260.000000 165.000000 0.105064 211.000000 0.220487 236.000000 0.020408 243.000000 -0.002053 17.000000 -0.243372 129.000000 0.131601 140.000000 0.117590
88191.000000 0.867789 260.000000 254.000000 169.000000 0.074637 202.000000 0.208743 217.000000 0.037020 236.000000 0.015421 14.000000 -0.126503 126.000000 0.121221 169.000000 0.074637
88445.000000 0.838981 254.000000 260.000000 165.000000 0.063167 208.000000 0.222761 235.000000 -0.019826 246.000000 -0.004794 15.000000 -0.157854 125.000000 0.131396 168.000000 0.071584
88705.000000 0.788215 260.000000 257.000000 165.000000 0.080364 202.000000 0.180799 230.000000 -0.012979 241.000000 -0.019485 15.000000 -0.236945 118.000000 0.123765 121.000000 0.110723
88962.000000 0.840832 257.000000 255.000000 171.000000 0.085238 206.000000 0.225112 222.000000 0.055753 236.000000 0.009768 15.000000 -0.254762 122.000000 0.115048 146.000000 0.083841
89217.000000 0.878261 255.000000 265.000000 164.000000 0.072307 204.000000 0.201099 207.000000 0.196366 246.000000 -0.009509 18.000000 -0.200362 133.000000 0.106600 164.000000 0.072307
89482.000000 0.879754 265.000000 253.000000 165.000000 0.055606 203.000000 0.177691 229.000000 -0.005894 235.000000 -0.038637 17.000000 -0.120890 119.000000 0.094326 123.000000 0.084105
89993.000000 0.751487 258.000000 254.000000 171.000000 0.099687 200.000000 0.197713 202.000000 0.177979 230.000000 0.015894 11.000000 -0.276492 123.000000 0.139969 163.000000 0.090095
90247.000000 0.723229 254.000000 262.000000 165.000000 0.073480 208.000000 0.185801 233.000000 0.016316 244.000000 0.014904 19.000000 -0.148104 125.000000 0.145014 146.000000 0.106567
90509.000000 0.678355 262.000000 252.000000 166.000000 0.057682 200.000000 0.193934 229.000000 0.018259 235.000000 0.016363 15.000000 -0.197462 116.000000 0.122884 121.000000 0.102462
90761.000000 0.691097 252.000000 253.000000 169.000000 0.068057 206.000000 0.199105 235.000000 0.015814 238.000000 0.006614 15.000000 -0.234560 127.000000 0.123435 169.000000 0.068057
91014.000000 0.708904 253.000000 252.000000 163.000000 0.070627 201.000000 0.179465 206.000000 0.154481 230.000000 0.001832 16.000000 -0.169323 114.000000 0.105250 124.000000 0.099010
91266.000000 0.725421 252.000000 250.000000 167.000000 0.062586 196.000000 0.180710 199.000000 0.170412 233.000000 0.013181 16.000000 -0.220597 123.000000 0.138761 167.000000 0.062586
91516.000000 0.723795 250.000000 249.000000 166.000000 0.097256 199.000000 0.225751 200.000000 0.225595 232.000000 0.004827 16.000000 -0.232142 117.000000 0.143447 125.000000 0.118666
91765.000000 0.762807 249.000000 251.000000 170.000000 0.057587 201.000000 0.165923 202.000000 0.160641 235.000000 -0.028649 18.000000 -0.148694 129.000000 0.120159 170.000000 0.057587
92016.000000 0.775565 251.000000 249.000000 122.000000 0.085739 194.000000 0.169782 208.000000 0.094594 231.000000 0.002212 19.000000 -0.227648 118.000000 0.109736 128.000000 0.099061
92265.000000 0.857306 249.000000 246.000000 132.000000 0.086361 199.000000 0.186143 200.000000 0.184498 224.000000 -0.036175 15.000000 -0.285828 134.000000 0.104919 191.000000 0.177037
92511.000000 0.897010 246.000000 247.000000 126.000000 0.095285 199.000000 0.221505 215.000000 0.060469 225.000000 0.040201 18.000000 -0.182237 128.000000 0.113906 200.000000 0.209765
92758.000000 0.975484 247.000000 253.000000 168.000000 0.170203 203.000000 0.248995 234.000000 0.048354 241.000000 0.065723 20.000000 -0.136383 121.000000 0.162699 126.000000 0.142323
93257.000000 0.814672 246.000000 252.000000 170.000000 0.073588 199.000000 0.208416 225.000000 0.020472 234.000000 0.010328 16.000000 -0.232913 126.000000 0.137836 170.000000 0.073588
93509.000000 0.811395 252.000000 242.000000 138.000000 0.103289 190.000000 0.212224 193.000000 0.192272 226.000000 0.011849 14.000000 -0.217413 115.000000 0.142837 118.000000 0.131144
93751.000000 0.803638 242.000000 249.000000 166.000000 0.077886 200.000000 0.206147 201.000000 0.205833 243.000000 0.169801 14.000000 -0.247319 124.000000 0.170769 166.000000 0.077886
94000.000000 0.801964 249.000000 241.000000 143.000000 0.042175 188.000000 0.202459 189.000000 0.196989 221.000000 -0.023058 9.000000 -0.217000 118.000000 0.179495 143.000000 0.042175
94241.000000 0.828148 241.000000 248.000000 164.000000 0.096224 188.000000 0.293699 200.000000 0.217773 231.000000 0.072805 14.000000 -0.217838 118.000000 0.158982 129.000000 0.085125
94489.000000 0.858073 248.000000 243.000000 134.000000 0.139654 193.000000 0.222441 202.000000 0.206923 227.000000 0.039746 18.000000 -0.120782 136.000000 0.180938 179.000000 0.189541
94732.000000 0.919012 243.000000 246.000000 164.000000 0.219432 201.000000 0.272051 226.000000 0.044594 233.000000 0.061130 17.000000 -0.277475 131.000000 0.215375 164.000000 0.219432
95462.000000 0.865097 241.000000 250.000000 141.000000 0.123997 188.000000 0.261210 207.000000 0.191868 231.000000 0.060316 18.000000 -0.117096 126.000000 0.157868 129.000000 0.149153
95712.000000 0.853654 250.000000 242.000000 123.000000 0.170657 194.000000 0.254418 195.000000 0.223509 227.000000 -0.005063 13.000000 -0.344277 122.000000 0.180186 124.000000 0.161252
95954.000000 0.901144 242.000000 249.000000 151.000000 0.055705 202.000000 0.260956 226.000000 0.017886 230.000000 0.027478 17.000000 -0.219437 116.000000 0.217899 128.000000 0.203383
96441.000000 0.839468 238.000000 247.000000 163.000000 0.048372 200.000000 0.251474 215.000000 0.021364 223.000000 -0.015203 15.000000 -0.226362 118.000000 0.170519 123.000000 0.157400
96932.000000 0.702207 244.000000 247.000000 159.000000 0.104417 198.000000 0.261600 224.000000 0.027527 232.000000 0.005678 17.000000 -0.201821 125.000000 0.168447 159.000000 0.104417
97422.000000 0.802576 243.000000 248.000000 161.000000 0.108397 200.000000 0.210891 226.000000 0.019517 230.000000 -0.025217 17.000000 -0.288285 129.000000 0.122097 140.000000 0.113005
97670.000000 0.856756 248.000000 240.000000 157.000000 0.114078 183.000000 0.218655 218.000000 0.041112 223.000000 -0.018355 18.000000 -0.266741 119.000000 0.158467 122.000000 0.139894
98155.000000 0.844594 245.000000 249.000000 163.000000 0.141710 199.000000 0.256630 200.000000 0.246301 226.000000 0.018321 16.000000 -0.290203 142.000000 0.150095 163.000000 0.141710
98649.000000 0.852930 245.000000 248.000000 168.000000 0.103292 198.000000 0.219418 213.000000 0.105344 232.000000 0.013462 20.000000 -0.126491 128.000000 0.146475 168.000000 0.103292
98897.000000 0.846581 248.000000 244.000000 162.000000 0.106351 190.000000 0.244910 192.000000 0.219268 228.000000 0.036353 16.000000 -0.230219 118.000000 0.146772 144.000000 0.079407
99387.000000 0.834685 246.000000 255.000000 164.000000 0.090186 206.000000 0.227930 231.000000 0.030189 239.000000 0.033683 14.000000 -0.285752 121.000000 0.139762 126.000000 0.118006
99642.000000 0.784878 255.000000 253.000000 165.000000 0.115693 202.000000 0.231805 227.000000 -0.010108 239.000000 0.007320 17.000000 -0.210938 118.000000 0.127429 148.000000 0.079187
99895.000000 0.783826 253.000000 255.000000 168.000000 0.104937 202.000000 0.222603 204.000000 0.222525 237.000000 0.015957 16.000000 -0.234152 127.000000 0.167510 168.000000 0.104937
100150.000000 0.812899 255.000000 248.000000 165.000000 0.122852 198.000000 0.260030 208.000000 0.158824 230.000000 0.015344 18.000000 -0.251537 115.000000 0.142067 125.000000 0.090686
100398.000000 0.858117 248.000000 252.000000 175.000000 0.111896 203.000000 0.208855 204.000000 0.198307 239.000000 0.024904 15.000000 -0.313180 130.000000 0.133290 136.000000 0.100485
100650.000000 0.865860 252.000000 249.000000 156.000000 0.121786 194.000000 0.229391 225.000000 0.034344 231.000000 0.010300 14.000000 -0.279655 120.000000 0.138821 136.000000 0.089198
101154.000000 0.840202 255.000000 257.000000 133.000000 0.086526 203.000000 0.217636 227.000000 -0.004087 241.000000 -0.023039 17.000000 -0.134249 130.000000 0.105742 140.000000 0.078014
101411.000000 0.779171 257.000000 249.000000 171.000000 0.069816 199.000000 0.166807 226.000000 -0.010980 235.000000 0.010228 15.000000 -0.186849 125.000000 0.087931 171.000000 0.069816
101660.000000 0.735353 249.000000 257.000000 165.000000 0.132269 203.000000 0.217632 228.000000 0.030719 238.000000 0.029451 17.000000 -0.170118 119.000000 0.148763 130.000000 0.139373
101917.000000 0.743168 257.000000 249.000000 120.000000 0.112933 197.000000 0.182323 220.000000 0.030664 228.000000 -0.015497 18.000000 -0.173211 124.000000 0.145191 204.000000 0.133468
102166.000000 0.772730 249.000000 258.000000 170.000000 0.064169 208.000000 0.158954 209.000000 0.149267 237.000000 0.007041 19.000000 -0.176578 128.000000 0.119278 138.000000 0.095360
102424.000000 0.760785 258.000000 249.000000 155.000000 0.061099 196.000000 0.174418 203.000000 0.156597 232.000000 0.017021 17.000000 -0.172630 121.000000 0.122637 127.000000 0.096931
102673.000000 0.791535 249.000000 261.000000 168.000000 0.044188 211.000000 0.181194 234.000000 0.005394 243.000000 -0.005827 17.000000 -0.080060 126.000000 0.126508 135.000000 0.117779
102934.000000 0.768497 261.000000 251.000000 169.000000 0.071566 199.000000 0.189795 227.000000 0.006147 235.000000 -0.001627 16.000000 -0.130565 115.000000 0.119715 119.000000 0.089745
103185.000000 0.753825 251.000000 249.000000 122.000000 0.140388 201.000000 0.197902 225.000000 0.001240 232.000000 -0.027082 16.000000 -0.165580 117.000000 0.144511 122.000000 0.140388
103434.000000 0.745082 249.000000 258.000000 174.000000 0.066804 201.000000 0.215547 202.000000 0.205359 240.000000 0.002208 16.000000 -0.241549 120.000000 0.167682 150.000000 0.069047
103944.000000 0.743824 252.000000 252.000000 168.000000 0.046794 198.000000 0.177169 199.000000 0.176275 234.000000 -0.034687 14.000000 -0.305940 126.000000 0.148262 168.000000 0.046794
104196.000000 0.725530 252.000000 241.000000 116.000000 0.168575 187.000000 0.196181 189.000000 0.185241 226.000000 0.008466 17.000000 -0.189157 114.000000 0.177572 154.000000 0.046790
104437.000000 0.757039 241.000000 250.000000 166.000000 0.056237 201.000000 0.175967 224.000000 -0.017054 232.000000 -0.011551 15.000000 -0.261363 125.000000 0.149609 141.000000 0.057352
104687.000000 0.793388 250.000000 243.000000 145.000000 0.084557 190.000000 0.231520 191.000000 0.220830 225.000000 0.011097 18.000000 -0.226393 116.000000 0.162082 125.000000 0.143523
104930.000000 0.806407 243.000000 246.000000 166.000000 0.089857 196.000000 0.228229 197.000000 0.227648 229.000000 -0.004951 15.000000 -0.178262 123.000000 0.160688 166.000000 0.089857
105176.000000 0.849435 246.000000 251.000000 163.000000 0.069375 201.000000 0.197069 225.000000 0.013872 236.000000 -0.007257 13.000000 -0.194577 120.000000 0.140660 140.000000 0.087793
105427.000000 0.813056 251.000000 244.000000 163.000000 0.078151 193.000000 0.235346 226.000000 0.019202 230.000000 0.016208 14.000000 -0.237056 120.000000 0.160929 163.000000 0.078151
105671.000000 0.781366 244.000000 246.000000 124.000000 0.122493 199.000000 0.185987 220.000000 -0.027461 227.000000 0.002790 13.000000 -0.227191 129.000000 0.149985 196.000000 0.168087
105917.000000 0.765864 246.000000 242.000000 117.000000 0.117304 193.000000 0.195560 198.000000 0.112723 222.000000 -0.013700 17.000000 -0.182755 113.000000 0.139217 117.000000 0.117304
106159.000000 0.768981 242.000000 250.000000 166.000000 0.099908 203.000000 0.207775 231.000000 0.021697 235.000000 0.005238 18.000000 -0.196206 120.000000 0.167163 124.000000 0.149061
106409.000000 0.738888 250.000000 247.000000 114.000000 0.135644 196.000000 0.176805 222.000000 -0.023088 232.000000 0.000016 14.000000 -0.178242 113.000000 0.149468 123.000000 0.129140
106656.000000 0.690598 247.000000 242.000000 164.000000 0.083899 193.000000 0.173325 221.000000 -0.009481 225.000000 0.006977 16.000000 -0.256080 118.000000 0.154873 119.000000 0.150218
106898.000000 0.721476 242.000000 244.000000 167.000000 0.094471 194.000000 0.185000 218.000000 -0.000159 227.000000 -0.024938 18.000000 -0.104935 116.000000 0.143263 125.000000 0.141273
107142.000000 0.766944 244.000000 245.000000 124.000000 0.123091 198.000000 0.148963 221.000000 -0.045501 228.000000 -0.038306 18.000000 -0.227520 123.000000 0.123624 144.000000 0.059969
107387.000000 0.728168 245.000000 245.000000 158.000000 0.088354 195.000000 0.213761 217.000000 0.013683 227.000000 0.047447 17.000000 -0.283868 120.000000 0.173962 140.000000 0.116534
107632.000000 0.696649 245.000000 240.000000 139.000000 0.128676 192.000000 0.196928 211.000000 0.046474 222.000000 0.037807 16.000000 -0.178506 123.000000 0.174102 139.000000 0.128676
108609.000000 0.802930 241.000000 247.000000 168.000000 0.102729 194.000000 0.186050 204.000000 0.137507 233.000000 -0.009497 14.000000 -0.145862 120.000000 0.115176 132.000000 0.094721
108856.000000 0.744281 247.000000 252.000000 171.000000 0.082101 197.000000 0.186537 222.000000 0.003746 235.000000 0.007914 14.000000 -0.214764 125.000000 0.120222 137.000000 0.106553
109108.000000 0.734530 252.000000 244.000000 121.000000 0.115578 195.000000 0.219204 198.000000 0.208248 226.000000 0.008607 15.000000 -0.191360 125.000000 0.144168 191.000000 0.174627
109352.000000 0.790347 244.000000 239.000000 123.000000 0.097479 193.000000 0.236080 217.000000 0.059480 222.000000 0.041816 17.000000 -0.310750 122.000000 0.112134 125.000000 0.093106
109591.000000 0.882523 239.000000 251.000000 160.000000 0.129169 197.000000 0.244359 226.000000 0.024639 233.000000 0.036331 17.000000 -0.275611 122.000000 0.158544 147.000000 0.111175
109842.000000 0.871660 251.000000 243.000000 160.000000 0.122159 193.000000 0.220547 199.000000 0.178368 225.000000 0.024795 16.000000 -0.186929 124.000000 0.140370 136.000000 0.117018
110085.000000 0.873274 243.000000 244.000000 122.000000 0.124388 193.000000 0.197683 195.000000 0.182542 226.000000 -0.009953 17.000000 -0.134875 123.000000 0.125360 182.000000 0.145488
110329.000000 0.864469 244.000000 247.000000 164.000000 0.109250 189.000000 0.170861 192.000000 0.155046 228.000000 -0.007210 16.000000 -0.280529 119.000000 0.123950 125.000000 0.066458
110576.000000 0.921162 247.000000 254.000000 170.000000 0.153338 205.000000 0.263653 206.000000 0.252163 237.000000 0.045627 15.000000 -0.328054 134.000000 0.122351 170.000000 0.153338
111078.000000 0.883621 248.000000 244.000000 149.000000 0.092540 198.000000 0.230876 214.000000 0.023948 228.000000 0.006191 17.000000 -0.092086 124.000000 0.125584 150.000000 0.078230
111322.000000 0.879968 244.000000 263.000000 180.000000 0.089138 207.000000 0.199216 225.000000 0.050784 245.000000 -0.010250 14.000000 -0.163246 123.000000 0.112400 132.000000 0.105909
111835.000000 0.819796 250.000000 256.000000 171.000000 0.154624 197.000000 0.239215 200.000000 0.204576 238.000000 -0.072854 15.000000 -0.220782 124.000000 0.177714 128.000000 0.161335
112596.000000 0.791019 258.000000 253.000000 119.000000 0.137900 203.000000 0.210892 229.000000 0.007618 235.000000 -0.002382 17.000000 -0.236644 120.000000 0.143496 202.000000 0.196535
113365.000000 0.817900 259.000000 255.000000 167.000000 0.093218 205.000000 0.195131 231.000000 -0.000669 238.000000 -0.000105 17.000000 -0.238652 119.000000 0.162856 153.000000 0.048594
113872.000000 0.783294 252.000000 258.000000 171.000000 0.051741 206.000000 0.191129 210.000000 0.187744 237.000000 0.007037 16.000000 -0.233148 118.000000 0.166349 127.000000 0.138324
114130.000000 0.774466 258.000000 259.000000 163.000000 0.082834 207.000000 0.215375 234.000000 0.019969 242.000000 0.010706 18.000000 -0.266161 124.000000 0.188871 163.000000 0.082834
114389.000000 0.784737 259.000000 259.000000 171.000000 0.078385 210.000000 0.187508 237.000000 0.009606 246.000000 0.006018 17.000000 -0.236924 118.000000 0.159764 127.000000 0.153714
114648.000000 0.800926 259.000000 248.000000 169.000000 0.122930 196.000000 0.212363 227.000000 -0.001635 231.000000 0.001751 16.000000 -0.251659 111.000000 0.166770 120.000000 0.164999
114896.000000 0.745451 248.000000 259.000000 166.000000 0.060655 210.000000 0.180187 232.000000 -0.010362 241.000000 -0.051350 16.000000 -0.254687 125.000000 0.155045 166.000000 0.060655
115155.000000 0.832789 259.000000 250.000000 168.000000 0.091633 199.000000 0.208500 225.000000 -0.003116 235.000000 0.000128 19.000000 -0.238966 118.000000 0.127322 149.000000 0.043907
115405.000000 0.852808 250.000000 254.000000 172.000000 0.118575 204.000000 0.223265 230.000000 0.025773 238.000000 0.004972 15.000000 -0.264167 120.000000 0.166021 172.000000 0.118575
115659.000000 0.859658 254.000000 262.000000 125.000000 0.107427 207.000000 0.208257 225.000000 0.061220 243.000000 -0.005206 17.000000 -0.141423 132.000000 0.121190 207.000000 0.208257
116175.000000 0.847507 254.000000 253.000000 123.000000 0.114015 203.000000 0.216272 227.000000 0.020767 240.000000 0.012978 17.000000 -0.164909 119.000000 0.150598 123.000000 0.114015
116428.000000 0.810095 253.000000 252.000000 150.000000 0.051521 202.000000 0.192209 222.000000 -0.016208 230.000000 -0.016599 13.000000 -0.274637 118.000000 0.167789 153.000000 0.074358
116680.000000 0.873905 252.000000 264.000000 172.000000 0.062191 213.000000 0.203586 214.000000 0.192771 245.000000 -0.022775 18.000000 -0.271957 130.000000 0.118618 157.000000 0.074071
116944.000000 0.870828 264.000000 256.000000 161.000000 0.077558 203.000000 0.207682 204.000000 0.197211 241.000000 0.018009 18.000000 -0.167934 131.000000 0.123951 161.000000 0.077558
117200.000000 0.879059 256.000000 253.000000 165.000000 0.111329 201.000000 0.223851 226.000000 0.021926 238.000000 0.019655 16.000000 -0.217052 126.000000 0.141749 165.000000 0.111329
117708.000000 0.766444 255.000000 254.000000 172.000000 0.115127 194.000000 0.206303 196.000000 0.201742 237.000000 0.006676 16.000000 -0.163476 124.000000 0.115392 147.000000 0.099751
117962.000000 0.729624 254.000000 254.000000 152.000000 0.069670 205.000000 0.217380 231.000000 0.047474 241.000000 0.057409 14.000000 -0.175753 133.000000 0.123542 152.000000 0.069670
118216.000000 0.736391 254.000000 264.000000 175.000000 0.105896 212.000000 0.216834 229.000000 0.045799 245.000000 0.006034 15.000000 -0.223231 119.000000 0.136503 125.000000 0.089826
118999.000000 0.760722 254.000000 259.000000 177.000000 0.088419 209.000000 0.203763 210.000000 0.203136 240.000000 -0.000346 6.000000 0.121114 129.000000 0.133871 150.000000 0.063353
119258.000000 0.777851 259.000000 267.000000 165.000000 0.052214 216.000000 0.194530 243.000000 0.018746 250.000000 -0.014906 18.000000 -0.213480 122.000000 0.129986 124.000000 0.116318
119525.000000 0.798401 267.000000 263.000000 181.000000 0.089092 203.000000 0.207226 241.000000 0.021395 246.000000 0.006458 18.000000 -0.229437 131.000000 0.129907 169.000000 0.082730
119788.000000 0.802996 263.000000 253.000000 169.000000 0.066814 204.000000 0.191253 231.000000 -0.008981 236.000000 -0.025830 16.000000 -0.243916 121.000000 0.120452 139.000000 0.070153
120041.000000 0.829859 253.000000 263.000000 169.000000 0.121648 205.000000 0.233981 210.000000 0.201051 247.000000 0.024640 17.000000 -0.296268 120.000000 0.152557 124.000000 0.132744
121584.000000 0.772635 254.000000 255.000000 170.000000 0.064080 197.000000 0.178498 198.000000 0.173405 237.000000 -0.023275 18.000000 -0.246366 122.000000 0.152182 170.000000 0.064080
121839.000000 0.790000 255.000000 257.000000 170.000000 0.082212 206.000000 0.203620 229.000000 0.004436 239.000000 -0.030406 16.000000 -0.163370 123.000000 0.169390 140.000000 0.059310
122096.000000 0.805719 257.000000 255.000000 169.000000 0.087414 204.000000 0.221724 214.000000 0.151362 239.000000 0.032508 18.000000 -0.184859 124.000000 0.157433 141.000000 0.096463
122351.000000 0.761363 255.000000 252.000000 168.000000 0.058736 200.000000 0.174533 225.000000 -0.008227 237.000000 -0.009624 15.000000 -0.265411 115.000000 0.137246 119.000000 0.116243
122603.000000 0.817382 252.000000 241.000000 144.000000 0.043775 192.000000 0.178630 217.000000 -0.022496 226.000000 0.004793 15.000000 -0.290191 117.000000 0.112805 126.000000 0.095782
122844.000000 0.834231 241.000000 258.000000 163.000000 0.092587 211.000000 0.219704 235.000000 0.013842 245.000000 0.016490 17.000000 -0.271767 126.000000 0.146867 163.000000 0.092587
123102.000000 0.926693 258.000000 244.000000 121.000000 0.131176 195.000000 0.224827 216.000000 0.042839 223.000000 0.012228 17.000000 -0.159109 124.000000 0.132729 194.000000 0.205250
123346.000000 0.857116 244.000000 250.000000 165.000000 0.128397 199.000000 0.215765 226.000000 0.017446 231.000000 -0.021096 19.000000 -0.133026 127.000000 0.140969 143.000000 0.110574
123847.000000 0.837198 251.000000 254.000000 167.000000 0.102712 205.000000 0.235033 229.000000 0.011632 239.000000 0.025893 16.000000 -0.238978 122.000000 0.136787 127.000000 0.130722
124101.000000 0.792445 254.000000 248.000000 143.000000 0.107034 190.000000 0.208856 195.000000 0.185110 234.000000 0.020910 16.000000 -0.251755 122.000000 0.140906 143.000000 0.107034
124349.000000 0.821630 248.000000 253.000000 155.000000 0.098201 194.000000 0.189406 202.000000 0.174296 236.000000 -0.011240 16.000000 -0.271741 125.000000 0.151289 155.000000 0.098201
124602.000000 0.798591 253.000000 257.000000 170.000000 0.086421 206.000000 0.213697 230.000000 0.018277 241.000000 0.020785 14.000000 -0.328698 122.000000 0.151956 123.000000 0.137144
124859.000000 0.769531 257.000000 250.000000 159.000000 0.055157 200.000000 0.222178 226.000000 0.003403 234.000000 -0.009121 14.000000 -0.283510 129.000000 0.156771 159.000000 0.055157
125109.000000 0.765706 250.000000 253.000000 166.000000 0.110139 201.000000 0.224621 225.000000 0.002489 236.000000 -0.000082 15.000000 -0.244277 118.000000 0.176269 166.000000 0.110139
125854.000000 0.814988 246.000000 250.000000 166.000000 0.108866 202.000000 0.194372 224.000000 0.008214 236.000000 0.030689 16.000000 -0.272206 121.000000 0.140387 131.000000 0.102409
126845.000000 0.910156 240.000000 248.000000 169.000000 0.136049 196.000000 0.311315 224.000000 0.073840 229.000000 0.040877 20.000000 -0.183808 124.000000 0.183169 125.000000 0.149298
127093.000000 0.887088 248.000000 247.000000 167.000000 0.097930 196.000000 0.246754 200.000000 0.204858 231.000000 0.027616 18.000000 -0.029763 127.000000 0.189120 171.000000 0.069937
127340.000000 0.917679 247.000000 254.000000 149.000000 0.068229 194.000000 0.262336 211.000000 0.124186 232.000000 0.015596 16.000000 -0.185644 124.000000 0.267022 149.000000 0.068229
127594.000000 0.849687 254.000000 250.000000 150.000000 0.132695 185.000000 0.220844 204.000000 0.168649 233.000000 -0.046521 14.000000 -0.244811 115.000000 0.197524 150.000000 0.132695
127844.000000 0.826555 250.000000 249.000000 166.000000 0.087867 202.000000 0.170594 204.000000 0.164294 234.000000 -0.021739 14.000000 -0.289338 121.000000 0.208196 155.000000 0.039385
128093.000000 0.705127 249.000000 256.000000 169.000000 0.070373 201.000000 0.187600 230.000000 -0.023981 237.000000 -0.030424 15.000000 -0.258993 117.000000 0.172068 169.000000 0.070373
128349.000000 0.776630 256.000000 242.000000 158.000000 0.080609 192.000000 0.192003 197.000000 0.140780 222.000000 -0.022917 14.000000 -0.284169 121.000000 0.191473 158.000000 0.080609
128591.000000 0.859374 242.000000 256.000000 170.000000 0.076472 199.000000 0.187332 229.000000 -0.008074 240.000000 -0.004656 19.000000 -0.235939 131.000000 0.119201 149.000000 0.075767
128847.000000 0.864468 256.000000 248.000000 152.000000 0.103932 198.000000 0.259982 223.000000 0.112602 229.000000 0.084827 16.000000 -0.344088 127.000000 0.164733 152.000000 0.103932
129095.000000 0.949669 248.000000 258.000000 171.000000 0.120392 203.000000 0.247415 212.000000 0.206943 237.000000 0.033231 20.000000 -0.166286 144.000000 0.134879 171.000000 0.120392
129353.000000 0.952338 258.000000 246.000000 172.000000 0.172982 194.000000 0.266539 219.000000 0.024251 226.000000 0.025130 19.000000 -0.191066 125.000000 0.177900 166.000000 0.159454
129599.000000 0.921555 246.000000 249.000000 169.000000 0.145877 205.000000 0.253776 222.000000 -0.025673 229.000000 0.056740 14.000000 -0.250845 120.000000 0.181943 130.000000 0.163809
130102.000000 0.930218 254.000000 251.000000 121.000000 0.147789 204.000000 0.171443 205.000000 0.165174 232.000000 0.003763 17.000000 -0.168544 123.000000 0.148635 197.000000 0.129107
130353.000000 0.935376 251.000000 253.000000 120.000000 0.181835 206.000000 0.211004 223.000000 -0.033855 234.000000 0.001881 19.000000 -0.171508 121.000000 0.196913 205.000000 0.202477
130852.000000 0.848826 246.000000 253.000000 175.000000 0.177241 208.000000 0.266724 224.000000 0.005830 237.000000 -0.000424 20.000000 -0.100501 118.000000 0.176567 144.000000 0.122854
131606.000000 0.867676 251.000000 256.000000 168.000000 0.086365 212.000000 0.178809 232.000000 0.002491 242.000000 0.010736 16.000000 -0.243326 121.000000 0.191305 156.000000 0.059895
131862.000000 0.784639 256.000000 252.000000 149.000000 0.085407 196.000000 0.175064 207.000000 0.159092 235.000000 0.000269 16.000000 -0.233164 119.000000 0.193089 137.000000 0.118120
132114.000000 0.807591 252.000000 256.000000 162.000000 0.114581 207.000000 0.150883 230.000000 -0.059415 237.000000 -0.025183 15.000000 -0.363694 113.000000 0.165580 120.000000 0.162758
132370.000000 0.758485 256.000000 249.000000 165.000000 0.060063 200.000000 0.172463 201.000000 0.171898 232.000000 -0.020390 15.000000 -0.326844 113.000000 0.172775 141.000000 0.089748
132619.000000 0.720220 249.000000 257.000000 171.000000 0.060265 207.000000 0.163228 209.000000 0.161990 238.000000 -0.035282 18.000000 -0.239706 128.000000 0.175063 171.000000 0.060265
132876.000000 0.802432 257.000000 251.000000 183.000000 0.125129 202.000000 0.182997 204.000000 0.182025 232.000000 -0.001064 19.000000 -0.234762 121.000000 0.161802 129.000000 0.137776
133376.000000 0.908606 249.000000 252.000000 172.000000 0.104214 195.000000 0.232567 203.000000 0.146203 235.000000 0.045688 16.000000 -0.303729 124.000000 0.105991 172.000000 0.104214
133628.000000 0.888384 252.000000 242.000000 161.000000 0.152319 193.000000 0.230594 211.000000 0.052791 224.000000 0.001256 16.000000 -0.233888 124.000000 0.163838 145.000000 0.102678
133870.000000 0.851414 242.000000 252.000000 168.000000 0.081491 199.000000 0.209376 224.000000 -0.007508 234.000000 0.021364 14.000000 -0.175702 126.000000 0.135895 145.000000 0.094048
134122.000000 0.850348 252.000000 246.000000 166.000000 0.049829 197.000000 0.206396 216.000000 0.016098 229.000000 -0.004560 15.000000 -0.159794 123.000000 0.132761 166.000000 0.049829
134368.000000 0.853292 246.000000 252.000000 156.000000 0.069872 201.000000 0.235534 202.000000 0.230189 235.000000 -0.004561 18.000000 -0.240954 128.000000 0.136455 166.000000 0.112429
134620.000000 0.880877 252.000000 247.000000 165.000000 0.118090 197.000000 0.202806 211.000000 0.067900 228.000000 0.011928 15.000000 -0.332650 129.000000 0.117936 141.000000 0.100600
134867.000000 0.917368 247.000000 245.000000 170.000000 0.156456 194.000000 0.228824 195.000000 0.218150 227.000000 -0.000376 16.000000 -0.185530 124.000000 0.147522 136.000000 0.129215
135613.000000 0.956704 250.000000 250.000000 166.000000 0.103196 198.000000 0.227804 229.000000 0.009592 234.000000 0.005187 14.000000 -0.087323 121.000000 0.122898 124.000000 0.109841
136357.000000 0.835173 248.000000 250.000000 122.000000 0.139227 196.000000 0.210064 218.000000 0.031677 233.000000 0.020108 17.000000 -0.176471 122.000000 0.139227 196.000000 0.210064
136856.000000 0.793904 249.000000 253.000000 159.000000 0.059815 201.000000 0.198574 227.000000 -0.003544 234.000000 0.007350 17.000000 -0.212730 128.000000 0.158609 144.000000 0.069785
137614.000000 0.892895 253.000000 249.000000 162.000000 0.119468 197.000000 0.253062 200.000000 0.216148 230.000000 0.016681 17.000000 -0.194139 127.000000 0.149159 165.000000 0.099515
137863.000000 0.898654 249.000000 253.000000 170.000000 0.065756 201.000000 0.225613 203.000000 0.209767 237.000000 0.022197 18.000000 -0.097869 129.000000 0.124471 141.000000 0.103469
138116.000000 0.855974 253.000000 250.000000 164.000000 0.098007 200.000000 0.232976 226.000000 0.013150 232.000000 -0.006238 17.000000 -0.124514 128.000000 0.139953 166.000000 0.091455
138366.000000 0.844452 250.000000 251.000000 162.000000 0.065033 191.000000 0.201208 196.000000 0.175110 240.000000 0.018701 18.000000 -0.173713 131.000000 0.141267 162.000000 0.065033
138617.000000 0.815677 251.000000 244.000000 118.000000 0.151784 192.000000 0.232460 202.000000 0.121081 229.000000 -0.009702 14.000000 -0.236549 119.000000 0.152442 193.000000 0.217130
138861.000000 0.762524 244.000000 251.000000 170.000000 0.072222 201.000000 0.206880 224.000000 0.004140 236.000000 -0.006911 15.000000 -0.281252 127.000000 0.170716 137.000000 0.124132
139112.000000 0.770832 251.000000 248.000000 119.000000 0.138588 198.000000 0.213386 222.000000 -0.006456 230.000000 -0.017396 17.000000 -0.208037 117.000000 0.162303 121.000000 0.144889
139855.000000 0.867635 248.000000 251.000000 162.000000 0.068336 201.000000 0.218823 208.000000 0.121174 233.000000 0.005317 17.000000 -0.309320 129.000000 0.129418 142.000000 0.075420
140106.000000 0.894264 251.000000 246.000000 157.000000 0.105519 192.000000 0.241616 219.000000 0.008246 228.000000 0.019468 18.000000 -0.234954 119.000000 0.158530 129.000000 0.116994
140352.000000 0.848370 246.000000 246.000000 165.000000 0.093417 195.000000 0.226832 199.000000 0.185124 228.000000 -0.007228 15.000000 -0.123857 124.000000 0.143752 167.000000 0.089703
140598.000000 0.873168 246.000000 256.000000 167.000000 0.075958 205.000000 0.200879 230.000000 -0.027733 240.000000 -0.008173 15.000000 -0.205015 131.000000 0.153917 169.000000 0.075111
141102.000000 0.816351 248.000000 247.000000 163.000000 0.087494 199.000000 0.209044 217.000000 0.027055 228.000000 0.015832 16.000000 -0.192756 121.000000 0.177634 132.000000 0.147432
141349.000000 0.735347 247.000000 254.000000 161.000000 0.089796 198.000000 0.200140 222.000000 0.022635 235.000000 -0.012712 18.000000 -0.159808 114.000000 0.146707 124.000000 0.132835
141850.000000 0.724625 247.000000 247.000000 165.000000 0.096018 194.000000 0.182382 213.000000 0.030045 226.000000 -0.001272 17.000000 -0.303919 120.000000 0.161550 142.000000 0.102570
142346.000000 0.827728 249.000000 255.000000 169.000000 0.098982 206.000000 0.201395 234.000000 0.011646 238.000000 0.002666 17.000000 -0.307666 124.000000 0.158119 125.000000 0.153354
143087.000000 0.791113 240.000000 251.000000 165.000000 0.102336 200.000000 0.228809 226.000000 0.005609 238.000000 0.018869 14.000000 -0.200596 128.000000 0.136079 165.000000 0.102336
143338.000000 0.766647 251.000000 248.000000 121.000000 0.135531 194.000000 0.208496 225.000000 0.028763 234.000000 -0.000658 14.000000 -0.227003 117.000000 0.153510 121.000000 0.135531
143586.000000 0.770014 248.000000 252.000000 165.000000 0.070111 202.000000 0.202428 223.000000 -0.008261 234.000000 0.001111 14.000000 -0.212384 122.000000 0.149611 145.000000 0.102307
144079.000000 0.766929 241.000000 255.000000 168.000000 0.105549 203.000000 0.202836 231.000000 0.005266 239.000000 -0.006427 14.000000 -0.250203 121.000000 0.157556 168.000000 0.105549
144334.000000 0.746377 255.000000 251.000000 117.000000 0.124249 200.000000 0.193969 228.000000 -0.003086 238.000000 0.006945 16.000000 -0.254329 118.000000 0.124876 198.000000 0.165505
144585.000000 0.765925 251.000000 250.000000 167.000000 0.099747 201.000000 0.191678 217.000000 0.025332 231.000000 -0.023917 13.000000 -0.251614 118.000000 0.161802 129.000000 0.120092
144835.000000 0.807963 250.000000 257.000000 170.000000 0.086836 205.000000 0.224891 230.000000 0.020802 242.000000 0.047494 18.000000 -0.246192 121.000000 0.132713 132.000000 0.104924
145092.000000 0.837496 257.000000 254.000000 167.000000 0.116679 202.000000 0.229562 225.000000 0.026145 234.000000 0.017447 18.000000 -0.213712 128.000000 0.129330 145.000000 0.080599
145346.000000 0.833373 254.000000 255.000000 130.000000 0.115115 202.000000 0.219877 226.000000 0.011821 239.000000 -0.004451 17.000000 -0.152741 126.000000 0.138406 137.000000 0.112889
145601.000000 0.786850 255.000000 252.000000 166.000000 0.090344 199.000000 0.220800 223.000000 0.005344 235.000000 -0.000752 15.000000 -0.239390 124.000000 0.129800 147.000000 0.100913
145853.000000 0.778621 252.000000 267.000000 172.000000 0.095972 212.000000 0.190958 214.000000 0.185314 248.000000 -0.017255 16.000000 -0.238292 124.000000 0.138935 128.000000 0.131441
146378.000000 0.769904 258.000000 256.000000 175.000000 0.112004 209.000000 0.202551 225.000000 0.023933 236.000000 0.009356 15.000000 -0.258920 127.000000 0.137289 145.000000 0.085156
146634.000000 0.763824 256.000000 259.000000 171.000000 0.101675 207.000000 0.205124 237.000000 -0.027555 242.000000 -0.011615 16.000000 -0.250108 121.000000 0.132601 171.000000 0.101675
146893.000000 0.779248 259.000000 259.000000 177.000000 0.088056 207.000000 0.181457 233.000000 -0.017836 242.000000 -0.028902 17.000000 -0.267962 128.000000 0.136754 165.000000 0.087854
147152.000000 0.806082 259.000000 253.000000 163.000000 0.041203 202.000000 0.181394 203.000000 0.180705 233.000000 -0.007975 17.000000 -0.227353 120.000000 0.124795 163.000000 0.041203
147405.000000 0.854217 253.000000 260.000000 172.000000 0.091318 206.000000 0.217333 231.000000 0.031737 240.000000 0.025421 18.000000 -0.246271 122.000000 0.142100 172.000000 0.091318
147665.000000 0.872787 260.000000 255.000000 167.000000 0.091455 206.000000 0.210512 222.000000 0.060843 234.000000 0.018664 17.000000 -0.129717 125.000000 0.131144 127.000000 0.126786
147920.000000 0.863023 255.000000 254.000000 166.000000 0.092035 196.000000 0.205735 201.000000 0.194183 236.000000 -0.023057 17.000000 -0.146331 123.000000 0.154417 134.000000 0.128680
148174.000000 0.828871 254.000000 249.000000 168.000000 0.112804 197.000000 0.216394 221.000000 0.000188 230.000000 0.022399 16.000000 -0.195516 121.000000 0.131439 146.000000 0.086595
148687.000000 0.765704 264.000000 254.000000 170.000000 0.078449 202.000000 0.186019 233.000000 0.004278 240.000000 -0.016490 16.000000 -0.233230 121.000000 0.150645 170.000000 0.078449
148941.000000 0.807443 254.000000 257.000000 169.000000 0.109704 208.000000 0.202573 233.000000 -0.013789 243.000000 0.012918 16.000000 -0.268154 124.000000 0.143452 125.000000 0.123718
149198.000000 0.834922 257.000000 252.000000 117.000000 0.131018 199.000000 0.234056 224.000000 0.040924 231.000000 -0.013857 16.000000 -0.279047 117.000000 0.131018 199.000000 0.234056
149450.000000 0.863119 252.000000 259.000000 176.000000 0.104546 204.000000 0.211520 229.000000 0.008903 242.000000 0.017509 16.000000 -0.212509 130.000000 0.137397 166.000000 0.115421
149963.000000 0.777820 254.000000 260.000000 161.000000 0.077005 205.000000 0.226363 229.000000 0.019938 242.000000 0.004687 14.000000 -0.303700 120.000000 0.136113 124.000000 0.129420
150489.000000 0.777209 266.000000 259.000000 168.000000 0.088797 204.000000 0.196898 232.000000 0.009860 242.000000 0.020610 16.000000 -0.265566 123.000000 0.154189 149.000000 0.087108
150748.000000 0.767618 259.000000 255.000000 163.000000 0.090359 202.000000 0.217666 236.000000 -0.001329 248.000000 0.131445 15.000000 -0.244372 128.000000 0.143772 149.000000 0.061344
151003.000000 0.748261 255.000000 266.000000 120.000000 0.100457 209.000000 0.194827 246.000000 0.010627 250.000000 -0.012102 12.000000 -0.343824 124.000000 0.124156 206.000000 0.179780
151529.000000 0.820549 260.000000 260.000000 168.000000 0.089216 201.000000 0.209452 236.000000 0.016992 245.000000 0.002806 14.000000 -0.255329 127.000000 0.121205 148.000000 0.084262
152554.000000 0.760940 255.000000 258.000000 171.000000 0.110567 199.000000 0.194026 201.000000 0.193791 240.000000 0.000532 16.000000 -0.243701 119.000000 0.140127 172.000000 0.109877
152812.000000 0.730579 258.000000 266.000000 175.000000 0.083092 210.000000 0.180455 246.000000 -0.015519 250.000000 -0.003263 17.000000 -0.232068 129.000000 0.135881 175.000000 0.083092
153078.000000 0.719404 266.000000 256.000000 176.000000 0.093383 201.000000 0.183588 211.000000 0.119890 238.000000 -0.011380 17.000000 -0.232162 119.000000 0.133242 177.000000 0.093462
153334.000000 0.735062 256.000000 257.000000 174.000000 0.094090 204.000000 0.186849 222.000000 0.027116 236.000000 0.000078 17.000000 -0.259517 123.000000 0.119592 124.000000 0.109701
153591.000000 0.815547 257.000000 260.000000 170.000000 0.082335 204.000000 0.221440 228.000000 0.021049 239.000000 0.014984 16.000000 -0.209826 120.000000 0.124120 172.000000 0.076943
154109.000000 0.833229 258.000000 257.000000 165.000000 0.115582 201.000000 0.225130 227.000000 0.014280 240.000000 -0.021002 15.000000 -0.195738 119.000000 0.132763 129.000000 0.118267
154366.000000 0.806113 257.000000 249.000000 166.000000 0.071439 197.000000 0.205515 223.000000 -0.012979 237.000000 0.019326 14.000000 -0.252821 124.000000 0.128652 172.000000 0.106783
154877.000000 0.868720 262.000000 255.000000 166.000000 0.106280 202.000000 0.237442 219.000000 0.026912 239.000000 0.018401 18.000000 -0.228973 120.000000 0.118333 128.000000 0.109226
155647.000000 0.801866 261.000000 256.000000 166.000000 0.120676 202.000000 0.197259 204.000000 0.197196 240.000000 -0.013719 15.000000 -0.221393 127.000000 0.141430 138.000000 0.097857
155903.000000 0.751848 256.000000 257.000000 171.000000 0.077586 202.000000 0.188999 231.000000 0.006114 238.000000 -0.028808 13.000000 -0.275799 125.000000 0.132240 153.000000 0.042412
156160.000000 0.818701 257.000000 254.000000 167.000000 0.106909 193.000000 0.169840 200.000000 0.168711 237.000000 -0.006801 17.000000 -0.223415 119.000000 0.114827 132.000000 0.104154
156414.000000 0.809891 254.000000 263.000000 180.000000 0.117306 210.000000 0.201256 231.000000 0.004452 247.000000 0.006882 17.000000 -0.258605 130.000000 0.145876 167.000000 0.105975
156926.000000 0.859844 249.000000 249.000000 169.000000 0.097493 196.000000 0.202084 199.000000 0.200517 232.000000 0.018903 14.000000 -0.209015 122.000000 0.142762 169.000000 0.097493
157175.000000 0.847006 249.000000 252.000000 122.000000 0.136744 197.000000 0.223890 230.000000 -0.008024 239.000000 -0.015203 15.000000 -0.219186 126.000000 0.148563 195.000000 0.193890
157427.000000 0.810080 252.000000 251.000000 158.000000 0.075718 199.000000 0.207571 226.000000 -0.035141 235.000000 -0.001254 13.000000 -0.300359 125.000000 0.156956 158.000000 0.075718
157678.000000 0.782791 251.000000 243.000000 120.000000 0.122723 190.000000 0.205999 213.000000 0.010267 225.000000 0.014654 17.000000 -0.274606 124.000000 0.144636 191.000000 0.200545
157921.000000 0.813949 243.000000 254.000000 165.000000 0.066883 203.000000 0.185909 231.000000 0.006361 236.000000 -0.009266 15.000000 -0.237870 121.000000 0.153200 135.000000 0.090678
158424.000000 0.831805 249.000000 249.000000 164.000000 0.095579 198.000000 0.222663 201.000000 0.186598 230.000000 -0.015660 18.000000 -0.168448 124.000000 0.139518 149.000000 0.083152
158673.000000 0.804952 249.000000 246.000000 123.000000 0.148573 188.000000 0.204625 197.000000 0.188072 232.000000 -0.003744 17.000000 -0.203512 129.000000 0.156598 195.000000 0.184013
158919.000000 0.824891 246.000000 258.000000 168.000000 0.089684 204.000000 0.207976 227.000000 0.008512 243.000000 0.016601 15.000000 -0.269105 124.000000 0.149482 147.000000 0.088227
159177.000000 0.783342 258.000000 249.000000 164.000000 0.097104 199.000000 0.211053 225.000000 0.015612 231.000000 -0.033792 14.000000 -0.266157 128.000000 0.156741 164.000000 0.097104
159426.000000 0.782855 249.000000 251.000000 167.000000 0.108403 191.000000 0.176648 197.000000 0.166287 231.000000 -0.037663 16.000000 -0.254606 122.000000 0.164969 124.000000 0.151599
159677.000000 0.716524 251.000000 239.000000 115.000000 0.135627 190.000000 0.194185 216.000000 0.022792 222.000000 -0.020782 17.000000 -0.257003 121.000000 0.154906 190.000000 0.194185
159916.000000 0.837384 239.000000 258.000000 168.000000 0.082040 206.000000 0.209251 211.000000 0.154172 239.000000 -0.006238 16.000000 -0.277365 131.000000 0.116098 168.000000 0.082040
160174.000000 0.871863 258.000000 245.000000 139.000000 0.109292 191.000000 0.232396 215.000000 0.022912 227.000000 0.016358 18.000000 -0.190691 116.000000 0.147333 127.000000 0.121377
160419.000000 0.894762 245.000000 247.000000 157.000000 0.083307 197.000000 0.237961 220.000000 0.020406 232.000000 0.034826 16.000000 -0.122149 122.000000 0.137866 157.000000 0.083307
160666.000000 0.870738 247.000000 254.000000 165.000000 0.088605 200.000000 0.228321 224.000000 0.016032 239.000000 0.005813 14.000000 -0.225202 129.000000 0.145170 167.000000 0.085940
161171.000000 0.802931 251.000000 250.000000 167.000000 0.102447 199.000000 0.227978 216.000000 0.007226 231.000000 -0.014545 19.000000 -0.174168 126.000000 0.148246 167.000000 0.102447
161421.000000 0.786127 250.000000 250.000000 167.000000 0.090395 200.000000 0.208467 226.000000 0.011977 235.000000 0.003826 18.000000 -0.234816 119.000000 0.134468 128.000000 0.113950
161671.000000 0.840128 250.000000 258.000000 168.000000 0.088666 205.000000 0.207113 230.000000 -0.008514 242.000000 -0.009987 18.000000 -0.279541 132.000000 0.134905 173.000000 0.060955
161929.000000 0.795392 258.000000 253.000000 138.000000 0.119816 200.000000 0.231227 223.000000 0.032195 236.000000 0.025626 15.000000 -0.272615 125.000000 0.132166 139.000000 0.114628
162182.000000 0.870375 253.000000 254.000000 170.000000 0.091536 201.000000 0.209108 230.000000 0.000456 237.000000 0.003967 15.000000 -0.116318 125.000000 0.135095 170.000000 0.091536
162436.000000 0.847884 254.000000 251.000000 167.000000 0.089922 196.000000 0.233103 223.000000 0.021049 235.000000 0.010580 14.000000 -0.201317 123.000000 0.130156 141.000000 0.074355
162687.000000 0.832086 251.000000 253.000000 156.000000 0.070363 204.000000 0.200597 205.000000 0.200048 235.000000 -0.000736 15.000000 -0.169811 126.000000 0.151331 156.000000 0.070363
162940.000000 0.816630 253.000000 255.000000 170.000000 0.077443 205.000000 0.205374 234.000000 0.000627 243.000000 0.012696 16.000000 -0.234594 124.000000 0.144877 163.000000 0.082317
163195.000000 0.818511 255.000000 258.000000 172.000000 0.078070 206.000000 0.200079 233.000000 -0.019825 244.000000 -0.014153 13.000000 -0.266505 122.000000 0.167222 172.000000 0.078070
163453.000000 0.821208 258.000000 258.000000 167.000000 0.071289 200.000000 0.205553 202.000000 0.199658 239.000000 -0.016913 14.000000 -0.287085 127.000000 0.138264 167.000000 0.071289
163711.000000 0.820911 258.000000 253.000000 168.000000 0.100049 202.000000 0.213858 204.000000 0.212368 237.000000 0.001679 14.000000 -0.244637 120.000000 0.145329 121.000000 0.140424
163964.000000 0.883858 253.000000 254.000000 163.000000 0.073071 204.000000 0.214245 229.000000 0.030156 238.000000 -0.007650 16.000000 -0.219889 121.000000 0.154621 133.000000 0.099416
164218.000000 0.844592 254.000000 261.000000 166.000000 0.097008 204.000000 0.209312 205.000000 0.204642 244.000000 -0.016659 14.000000 -0.225769 119.000000 0.146694 130.000000 0.124672
164479.000000 0.848136 261.000000 259.000000 168.000000 0.115265 205.000000 0.222070 230.000000 0.012572 241.000000 0.010301 15.000000 -0.265406 121.000000 0.152739 124.000000 0.129854
165502.000000 0.919030 258.000000 247.000000 166.000000 0.107961 193.000000 0.249137 218.000000 0.016738 230.000000 0.021614 14.000000 -0.218370 122.000000 0.147650 166.000000 0.107961
165749.000000 0.876628 247.000000 255.000000 171.000000 0.086881 207.000000 0.203777 234.000000 0.010514 246.000000 0.053774 14.000000 -0.143731 124.000000 0.119999 171.000000 0.086881
166004.000000 0.850733 255.000000 257.000000 168.000000 0.099000 205.000000 0.231975 232.000000 0.000437 244.000000 0.019057 12.000000 -0.250675 134.000000 0.131395 168.000000 0.099000
166261.000000 0.809326 257.000000 253.000000 166.000000 0.099356 204.000000 0.213201 207.000000 0.181195 237.000000 0.012839 15.000000 -0.224638 127.000000 0.137191 168.000000 0.090735
166514.000000 0.789154 253.000000 255.000000 166.000000 0.089045 201.000000 0.207212 202.000000 0.206914 240.000000 -0.006080 17.000000 -0.189672 128.000000 0.141865 169.000000 0.068951
166769.000000 0.764610 255.000000 250.000000 163.000000 0.095690 198.000000 0.202709 229.000000 -0.009030 237.000000 -0.014893 15.000000 -0.252977 123.000000 0.148718 164.000000 0.087602
167019.000000 0.776268 250.000000 262.000000 176.000000 0.067789 211.000000 0.189056 237.000000 0.001283 247.000000 0.008132 16.000000 -0.259279 127.000000 0.159467 164.000000 0.076520
167281.000000 0.808352 262.000000 250.000000 153.000000 0.080566 200.000000 0.204309 227.000000 0.016409 237.000000 0.016974 16.000000 -0.278199 118.000000 0.140360 129.000000 0.110143
167531.000000 0.855625 250.000000 256.000000 180.000000 0.101692 206.000000 0.203652 230.000000 0.001597 238.000000 -0.010956 16.000000 -0.241772 130.000000 0.147824 154.000000 0.072541
167787.000000 0.828008 256.000000 249.000000 143.000000 0.079298 197.000000 0.201098 231.000000 -0.012196 236.000000 0.012930 17.000000 -0.201272 116.000000 0.143874 143.000000 0.079298
168036.000000 0.811440 249.000000 251.000000 123.000000 0.132400 203.000000 0.225567 229.000000 0.008387 234.000000 -0.010908 14.000000 -0.286615 121.000000 0.146255 129.000000 0.124736
168287.000000 0.799123 251.000000 252.000000 168.000000 0.098373 201.000000 0.205330 231.000000 0.008041 238.000000 0.026443 17.000000 -0.235487 120.000000 0.149185 169.000000 0.093262
168539.000000 0.784389 252.000000 255.000000 164.000000 0.069939 205.000000 0.222164 235.000000 -0.014029 241.000000 0.024954 15.000000 -0.228574 121.000000 0.156882 122.000000 0.147383
168794.000000 0.768122 255.000000 258.000000 170.000000 0.082702 204.000000 0.207654 227.000000 0.002416 239.000000 -0.003761 15.000000 -0.267350 130.000000 0.145239 145.000000 0.086619
169304.000000 0.757365 252.000000 253.000000 120.000000 0.136745 198.000000 0.194969 199.000000 0.189703 236.000000 -0.009686 15.000000 -0.258105 121.000000 0.152324 199.000000 0.189703
169811.000000 0.797776 254.000000 256.000000 180.000000 0.113874 205.000000 0.230081 230.000000 0.013292 237.000000 -0.003213 18.000000 -0.222320 123.000000 0.145662 132.000000 0.129017
170067.000000 0.779858 256.000000 258.000000 166.000000 0.081916 205.000000 0.201476 230.000000 -0.018308 242.000000 -0.008339 15.000000 -0.266254 118.000000 0.141304 121.000000 0.128499
170578.000000 0.775345 253.000000 257.000000 165.000000 0.058059 206.000000 0.187995 207.000000 0.187603 244.000000 0.013402 15.000000 -0.243245 124.000000 0.133920 165.000000 0.058059
170835.000000 0.831537 257.000000 256.000000 165.000000 0.083640 201.000000 0.176865 232.000000 -0.021901 240.000000 -0.011666 14.000000 -0.245347 118.000000 0.133969 120.000000 0.120333
171091.000000 0.876376 256.000000 256.000000 167.000000 0.108508 206.000000 0.216690 235.000000 0.034182 244.000000 0.036519 14.000000 -0.313514 125.000000 0.125594 139.000000 0.113352
171347.000000 0.935220 256.000000 260.000000 161.000000 0.096379 206.000000 0.246224 232.000000 0.029358 245.000000 0.020834 14.000000 -0.241330 122.000000 0.137789 123.000000 0.128259
171607.000000 0.942197 260.000000 255.000000 169.000000 0.102260 204.000000 0.234608 233.000000 0.017052 239.000000 0.017334 13.000000 -0.227822 126.000000 0.116336 169.000000 0.102260
172123.000000 0.854562 261.000000 258.000000 174.000000 0.110125 206.000000 0.183513 230.000000 -0.020154 238.000000 -0.018869 16.000000 -0.221958 119.000000 0.146409 121.000000 0.143039
173165.000000 0.942522 255.000000 261.000000 172.000000 0.083950 210.000000 0.216833 227.000000 0.026911 240.000000 -0.004233 14.000000 -0.201130 128.000000 0.120062 173.000000 0.089200
173426.000000 0.918670 261.000000 255.000000 169.000000 0.106273 204.000000 0.218732 231.000000 -0.008902 241.000000 -0.002523 16.000000 -0.272005 122.000000 0.116663 131.000000 0.106412
173681.000000 0.913185 255.000000 261.000000 176.000000 0.144686 209.000000 0.231428 229.000000 0.038700 244.000000 0.007946 15.000000 -0.350812 128.000000 0.135986 154.000000 0.121864
173942.000000 0.985582 261.000000 254.000000 164.000000 0.097900 204.000000 0.259154 231.000000 0.023558 238.000000 0.005830 17.000000 -0.134261 132.000000 0.115830 142.000000 0.089842
174196.000000 0.942494 254.000000 260.000000 130.000000 0.131977 207.000000 0.224566 229.000000 0.018422 243.000000 0.000288 16.000000 -0.128228 131.000000 0.142416 206.000000 0.214567
174456.000000 0.908216 260.000000 253.000000 125.000000 0.114845 203.000000 0.224953 228.000000 0.015377 235.000000 -0.006316 19.000000 -0.158748 122.000000 0.133105 160.000000 0.101253
174709.000000 0.885517 253.000000 254.000000 170.000000 0.127306 204.000000 0.231381 227.000000 0.015096 234.000000 -0.002537 17.000000 -0.184407 122.000000 0.134831 124.000000 0.130897
174963.000000 0.864092 254.000000 259.000000 173.000000 0.070504 206.000000 0.220049 232.000000 -0.008574 241.000000 0.006019 16.000000 -0.217243 120.000000 0.136241 123.000000 0.132573
175222.000000 0.806664 259.000000 258.000000 169.000000 0.098887 208.000000 0.217195 232.000000 0.013353 243.000000 0.000783 16.000000 -0.241360 125.000000 0.148070 135.000000 0.115860
175480.000000 0.800549 258.000000 254.000000 170.000000 0.125533 203.000000 0.224780 205.000000 0.213354 238.000000 0.001176 15.000000 -0.295877 121.000000 0.152711 149.000000 0.086695
175734.000000 0.797992 254.000000 251.000000 118.000000 0.146429 201.000000 0.202304 228.000000 0.009685 237.000000 0.016019 16.000000 -0.273813 118.000000 0.146429 197.000000 0.189013
176243.000000 0.847228 258.000000 256.000000 164.000000 0.105988 203.000000 0.213870 223.000000 0.033289 236.000000 0.011706 14.000000 -0.236411 126.000000 0.160248 134.000000 0.127208
176499.000000 0.893759 256.000000 256.000000 175.000000 0.070580 204.000000 0.209183 206.000000 0.208870 240.000000 0.003948 15.000000 -0.144120 122.000000 0.126740 143.000000 0.081816
176755.000000 0.853274 256.000000 262.000000 178.000000 0.094044 211.000000 0.220769 245.000000 -0.007881 249.000000 0.027856 14.000000 -0.262726 130.000000 0.147728 163.000000 0.085752
177017.000000 0.857056 262.000000 255.000000 165.000000 0.079341 203.000000 0.224280 226.000000 0.016662 239.000000 0.009922 17.000000 -0.212300 121.000000 0.153007 143.000000 0.098475
177272.000000 0.816960 255.000000 255.000000 164.000000 0.096931 203.000000 0.204282 235.000000 -0.018103 240.000000 -0.002617 15.000000 -0.266710 126.000000 0.154437 174.000000 0.082133
177527.000000 0.760692 255.000000 262.000000 122.000000 0.122911 209.000000 0.187305 234.000000 0.002793 246.000000 0.000411 17.000000 -0.214700 125.000000 0.144213 208.000000 0.177744
178048.000000 0.760799 259.000000 257.000000 165.000000 0.057698 206.000000 0.198574 217.000000 0.118150 242.000000 -0.001379 16.000000 -0.223054 121.000000 0.160394 165.000000 0.057698
178305.000000 0.762399 257.000000 251.000000 118.000000 0.159184 199.000000 0.214199 226.000000 -0.013933 235.000000 0.008214 16.000000 -0.266520 118.000000 0.159184 199.000000 0.214199
178556.000000 0.746601 251.000000 255.000000 161.000000 0.057336 201.000000 0.188900 205.000000 0.187083 238.000000 0.002273 16.000000 -0.228053 119.000000 0.152996 128.000000 0.147367
178811.000000 0.754955 255.000000 256.000000 176.000000 0.090626 202.000000 0.195328 226.000000 -0.003214 236.000000 -0.011114 16.000000 -0.244306 122.000000 0.153383 158.000000 0.069496
179579.000000 0.735282 258.000000 255.000000 170.000000 0.076946 199.000000 0.188087 202.000000 0.182398 237.000000 0.005062 18.000000 -0.220549 127.000000 0.138701 170.000000 0.076946
179834.000000 0.712005 255.000000 254.000000 172.000000 0.091740 205.000000 0.184387 229.000000 -0.007494 236.000000 -0.023497 16.000000 -0.236649 124.000000 0.151350 159.000000 0.072665
180088.000000 0.748462 254.000000 259.000000 159.000000 0.068686 205.000000 0.202961 231.000000 0.004120 244.000000 -0.002211 14.000000 -0.266098 124.000000 0.152668 162.000000 0.067431
180347.000000 0.758698 259.000000 262.000000 163.000000 0.091613 211.000000 0.193148 237.000000 -0.009593 243.000000 -0.024639 15.000000 -0.285768 128.000000 0.140140 163.000000 0.091613
180609.000000 0.827037 262.000000 259.000000 176.000000 0.075409 211.000000 0.181175 238.000000 -0.015267 242.000000 -0.024091 17.000000 -0.244027 122.000000 0.124359 129.000000 0.111459
180868.000000 0.866425 259.000000 253.000000 171.000000 0.102788 201.000000 0.185595 204.000000 0.178385 234.000000 0.017385 17.000000 -0.283890 123.000000 0.131346 133.000000 0.102443
181121.000000 0.883684 253.000000 258.000000 160.000000 0.090141 205.000000 0.212334 231.000000 0.015154 241.000000 0.019855 14.000000 -0.199155 125.000000 0.139798 146.000000 0.104721
181379.000000 0.878772 258.000000 256.000000 167.000000 0.100516 202.000000 0.228242 220.000000 0.037881 238.000000 0.041895 17.000000 -0.117997 128.000000 0.118183 167.000000 0.100516
181892.000000 0.841679 257.000000 264.000000 180.000000 0.106651 208.000000 0.185804 234.000000 -0.001287 247.000000 -0.011914 18.000000 -0.212257 121.000000 0.132827 140.000000 0.084693
182416.000000 0.851092 260.000000 259.000000 171.000000 0.105846 208.000000 0.249970 233.000000 0.045519 239.000000 0.012965 14.000000 -0.290802 122.000000 0.119640 145.000000 0.092320
182675.000000 0.912653 259.000000 255.000000 169.000000 0.098654 202.000000 0.232355 228.000000 0.028734 238.000000 0.028859 18.000000 -0.132723 129.000000 0.110880 141.000000 0.090802
182930.000000 0.896541 255.000000 266.000000 174.000000 0.100137 213.000000 0.245765 238.000000 0.000908 250.000000 0.000329 16.000000 -0.116786 129.000000 0.121220 147.000000 0.071517
183196.000000 0.862602 266.000000 261.000000 167.000000 0.094372 208.000000 0.211643 222.000000 0.054356 245.000000 -0.001349 16.000000 -0.163963 126.000000 0.118434 147.000000 0.079104
183457.000000 0.855203 261.000000 256.000000 175.000000 0.097569 201.000000 0.192364 224.000000 0.035577 238.000000 0.000874 16.000000 -0.283180 118.000000 0.117726 123.000000 0.085077
184236.000000 0.921443 258.000000 261.000000 177.000000 0.088933 207.000000 0.223337 238.000000 0.006204 245.000000 0.009119 18.000000 -0.134499 121.000000 0.117037 140.000000 0.095737
184497.000000 0.884008 261.000000 268.000000 168.000000 0.090908 213.000000 0.197821 245.000000 0.014013 250.000000 0.013261 16.000000 -0.149138 133.000000 0.112508 146.000000 0.077601
184765.000000 0.823009 268.000000 269.000000 186.000000 0.095503 214.000000 0.219450 238.000000 0.018574 250.000000 0.012021 16.000000 -0.216692 128.000000 0.122962 166.000000 0.104262
185300.000000 0.824906 266.000000 266.000000 169.000000 0.079465 210.000000 0.197620 234.000000 0.025144 249.000000 -0.002819 14.000000 -0.236048 123.000000 0.111893 133.000000 0.090561
185566.000000 0.836317 266.000000 271.000000 163.000000 0.088224 217.000000 0.227223 246.000000 -0.005797 254.000000 0.010832 20.000000 -0.190505 132.000000 0.136345 136.000000 0.102850
185837.000000 0.828825 271.000000 270.000000 163.000000 0.081284 211.000000 0.236643 244.000000 0.028166 252.000000 -0.020251 16.000000 -0.220326 126.000000 0.141255 137.000000 0.100658
186362.000000 0.772462 255.000000 271.000000 177.000000 0.102820 215.000000 0.214530 239.000000 0.014924 253.000000 -0.023994 17.000000 -0.232632 128.000000 0.144796 177.000000 0.102820
186896.000000 0.725092 263.000000 260.000000 183.000000 0.090736 207.000000 0.203243 234.000000 0.008334 246.000000 -0.014549 15.000000 -0.211381 122.000000 0.132338 161.000000 0.076302
187156.000000 0.774104 260.000000 267.000000 177.000000 0.081489 211.000000 0.176457 240.000000 -0.018570 249.000000 -0.008554 15.000000 -0.259609 128.000000 0.117818 177.000000 0.081489
187423.000000 0.812917 267.000000 259.000000 174.000000 0.097900 209.000000 0.214591 235.000000 0.016675 243.000000 0.017301 16.000000 -0.244076 125.000000 0.139374 126.000000 0.134390
187941.000000 0.868544 259.000000 258.000000 180.000000 0.095045 207.000000 0.221360 235.000000 -0.001869 241.000000 0.011014 15.000000 -0.142662 123.000000 0.124122 180.000000 0.095045
188199.000000 0.798836 258.000000 267.000000 160.000000 0.068460 214.000000 0.194123 216.000000 0.193292 245.000000 -0.000265 18.000000 -0.170925 129.000000 0.145859 138.000000 0.123806
188466.000000 0.725143 267.000000 263.000000 169.000000 0.083762 210.000000 0.211708 236.000000 0.008057 249.000000 0.008307 17.000000 -0.182865 127.000000 0.151598 169.000000 0.083762
188729.000000 0.706802 263.000000 256.000000 174.000000 0.068386 205.000000 0.175658 206.000000 0.175455 239.000000 -0.010754 17.000000 -0.215344 125.000000 0.135880 174.000000 0.068386
188985.000000 0.714356 256.000000 268.000000 184.000000 0.090577 215.000000 0.160846 248.000000 -0.013335 254.000000 -0.003867 15.000000 -0.227225 123.000000 0.130169 124.000000 0.116188
189253.000000 0.802055 268.000000 261.000000 125.000000 0.099105 214.000000 0.197336 231.000000 0.021146 242.000000 0.011411 13.000000 -0.284796 123.000000 0.108855 132.000000 0.093400
189514.000000 0.853886 261.000000 258.000000 177.000000 0.086408 207.000000 0.220718 234.000000 0.025342 243.000000 0.031486 16.000000 -0.184877 126.000000 0.128054 177.000000 0.086408
189772.000000 0.833242 258.000000 265.000000 165.000000 0.095469 213.000000 0.203745 227.000000 0.062037 250.000000 0.018384 14.000000 -0.192805 130.000000 0.119528 141.000000 0.094621
190037.000000 0.790517 265.000000 262.000000 162.000000 0.089907 210.000000 0.212570 239.000000 0.010767 244.000000 -0.013748 18.000000 -0.150642 129.000000 0.139215 162.000000 0.089907
190299.000000 0.790484 262.000000 262.000000 169.000000 0.091227 204.000000 0.196050 209.000000 0.184373 243.000000 -0.007899 18.000000 -0.202713 131.000000 0.131664 169.000000 0.091227
191348.000000 0.716288 258.000000 253.000000 163.000000 0.117398 201.000000 0.220893 225.000000 0.018933 235.000000 0.029121 12.000000 -0.277756 121.000000 0.133867 163.000000 0.117398
191601.000000 0.782837 253.000000 262.000000 162.000000 0.089732 210.000000 0.209544 235.000000 0.013682 248.000000 0.017085 15.000000 -0.180530 127.000000 0.130985 149.000000 0.086298
191863.000000 0.803150 262.000000 254.000000 170.000000 0.076255 204.000000 0.206475 228.000000 0.000815 238.000000 0.005346 14.000000 -0.291523 119.000000 0.126741 128.000000 0.126099
192117.000000 0.775128 254.000000 259.000000 124.000000 0.138353 211.000000 0.226864 235.000000 0.018509 240.000000 -0.001286 16.000000 -0.227786 126.000000 0.143902 202.000000 0.195563
192376.000000 0.810453 259.000000 261.000000 169.000000 0.065442 209.000000 0.210251 239.000000 0.026756 247.000000 0.005955 18.000000 -0.228715 120.000000 0.129983 124.000000 0.117789
192637.000000 0.797209 261.000000 258.000000 157.000000 0.077066 206.000000 0.189703 208.000000 0.178952 239.000000 -0.027854 15.000000 -0.251410 135.000000 0.150451 159.000000 0.107944
193146.000000 0.902129 251.000000 259.000000 172.000000 0.103681 206.000000 0.208133 207.000000 0.193023 240.000000 0.011550 16.000000 -0.308372 130.000000 0.159261 172.000000 0.103681
193405.000000 0.880674 259.000000 258.000000 165.000000 0.088917 203.000000 0.229403 204.000000 0.224654 241.000000 -0.006065 16.000000 -0.180924 123.000000 0.134264 127.000000 0.122760
193663.000000 0.881534 258.000000 256.000000 166.000000 0.109029 202.000000 0.194438 206.000000 0.193105 240.000000 0.007604 18.000000 -0.168010 129.000000 0.124469 166.000000 0.109029
193919.000000 0.843997 256.000000 252.000000 162.000000 0.139737 199.000000 0.216254 228.000000 -0.016316 235.000000 0.021333 16.000000 -0.173888 129.000000 0.150330 164.000000 0.164204
194672.000000 0.782620 255.000000 247.000000 165.000000 0.115550 197.000000 0.212069 199.000000 0.211175 229.000000 -0.018278 15.000000 -0.221991 119.000000 0.143735 127.000000 0.143173
195165.000000 0.836194 246.000000 251.000000 138.000000 0.067086 200.000000 0.234417 224.000000 0.050452 231.000000 0.020170 16.000000 -0.277722 120.000000 0.096380 138.000000 0.067086
195416.000000 0.885094 251.000000 247.000000 123.000000 0.129324 198.000000 0.207368 200.000000 0.196160 231.000000 0.012777 16.000000 -0.217021 127.000000 0.140391 200.000000 0.196160
195663.000000 0.909987 247.000000 237.000000 119.000000 0.131197 185.000000 0.238262 209.000000 0.018122 221.000000 0.029156 14.000000 -0.210250 123.000000 0.134379 182.000000 0.204077
195900.000000 0.876019 237.000000 249.000000 168.000000 0.100718 198.000000 0.247490 219.000000 0.034186 233.000000 0.029846 16.000000 -0.169375 126.000000 0.123653 149.000000 0.096235
196149.000000 0.883934 249.000000 252.000000 130.000000 0.146510 202.000000 0.249716 224.000000 0.040578 238.000000 0.023260 17.000000 -0.231413 130.000000 0.146510 202.000000 0.249716
196401.000000 0.811474 252.000000 250.000000 165.000000 0.095736 199.000000 0.185879 226.000000 -0.012883 231.000000 -0.026206 13.000000 -0.332444 117.000000 0.155423 127.000000 0.123322
196890.000000 0.817305 239.000000 256.000000 160.000000 0.073248 203.000000 0.199876 230.000000 -0.004983 237.000000 -0.012804 16.000000 -0.276129 120.000000 0.161147 149.000000 0.073798
197146.000000 0.858339 256.000000 241.000000 121.000000 0.134599 189.000000 0.236663 210.000000 0.027447 225.000000 0.006303 18.000000 -0.164701 119.000000 0.148314 123.000000 0.135743
197387.000000 0.823669 241.000000 250.000000 145.000000 0.073652 200.000000 0.239263 224.000000 0.012493 235.000000 0.033904 17.000000 -0.164202 128.000000 0.153779 145.000000 0.073652
197637.000000 0.827009 250.000000 253.000000 164.000000 0.086191 199.000000 0.236613 227.000000 0.009027 236.000000 -0.008811 16.000000 -0.230014 118.000000 0.150877 122.000000 0.134309
198145.000000 0.771817 255.000000 247.000000 167.000000 0.080126 199.000000 0.207993 223.000000 0.009263 236.000000 0.034434 16.000000 -0.234045 122.000000 0.147432 167.000000 0.080126
198392.000000 0.780860 247.000000 247.000000 167.000000 0.100173 190.000000 0.198870 200.000000 0.189373 229.000000 0.011928 14.000000 -0.297729 123.000000 0.135690 168.000000 0.095470
198639.000000 0.785691 247.000000 257.000000 168.000000 0.066820 205.000000 0.209422 232.000000 -0.005722 243.000000 -0.007007 15.000000 -0.271551 125.000000 0.150455 168.000000 0.066820
198896.000000 0.749360 257.000000 250.000000 161.000000 0.075733 202.000000 0.214921 224.000000 0.013044 231.000000 0.005912 15.000000 -0.280842 121.000000 0.138212 123.000000 0.133979
199146.000000 0.752150 250.000000 252.000000 164.000000 0.071774 202.000000 0.206897 221.000000 0.009170 234.000000 -0.012664 14.000000 -0.238508 122.000000 0.163403 164.000000 0.071774
199398.000000 0.766804 252.000000 244.000000 169.000000 0.089562 194.000000 0.205062 195.000000 0.194293 223.000000 -0.016585 15.000000 -0.246269 119.000000 0.148562 148.000000 0.059236
199889.000000 0.886287 247.000000 249.000000 162.000000 0.099656 196.000000 0.203776 200.000000 0.191316 234.000000 0.017805 16.000000 -0.285545 123.000000 0.139966 124.000000 0.130405
200138.000000 0.867961 249.000000 249.000000 166.000000 0.115896 198.000000 0.243891 215.000000 0.049973 232.000000 0.011477 14.000000 -0.242177 124.000000 0.143372 143.000000 0.096193
200387.000000 0.903247 249.000000 251.000000 125.000000 0.106914 199.000000 0.220379 227.000000 0.026084 238.000000 0.025442 15.000000 -0.147976 129.000000 0.123920 198.000000 0.215410
200892.000000 0.843260 254.000000 248.000000 122.000000 0.119309 200.000000 0.218887 217.000000 0.015284 228.000000 0.000865 15.000000 -0.191396 119.000000 0.137131 122.000000 0.119309
201393.000000 0.837523 253.000000 260.000000 171.000000 0.074919 206.000000 0.211693 208.000000 0.200784 241.000000 0.002527 16.000000 -0.260154 132.000000 0.150452 144.000000 0.115043
201653.000000 0.779672 260.000000 253.000000 171.000000 0.112651 204.000000 0.237636 222.000000 0.017697 234.000000 0.021647 18.000000 -0.220549 126.000000 0.154408 171.000000 0.112651
201906.000000 0.822088 253.000000 254.000000 161.000000 0.078544 205.000000 0.208652 210.000000 0.169984 235.000000 -0.004531 19.000000 -0.231851 124.000000 0.152007 133.000000 0.127759
202160.000000 0.840253 254.000000 253.000000 140.000000 0.052833 203.000000 0.197035 218.000000 0.045987 235.000000 -0.010045 16.000000 -0.282175 122.000000 0.111675 140.000000 0.052833
202413.000000 0.903840 253.000000 251.000000 170.000000 0.117386 201.000000 0.216116 232.000000 0.032464 237.000000 0.017573 15.000000 -0.300929 122.000000 0.147304 131.000000 0.129234
202664.000000 0.922526 251.000000 250.000000 165.000000 0.093042 194.000000 0.214626 195.000000 0.194721 232.000000 0.003343 16.000000 -0.169217 126.000000 0.127434 135.000000 0.111463
202914.000000 0.880064 250.000000 250.000000 169.000000 0.123621 198.000000 0.236004 222.000000 0.029797 234.000000 0.019373 16.000000 -0.128356 122.000000 0.134768 147.000000 0.103275
203164.000000 0.813683 250.000000 253.000000 167.000000 0.090831 201.000000 0.209748 225.000000 0.020375 234.000000 0.019983 17.000000 -0.134015 128.000000 0.117086 167.000000 0.090831
203417.000000 0.853450 253.000000 248.000000 163.000000 0.113853 197.000000 0.226863 222.000000 0.019561 232.000000 0.010079 17.000000 -0.275953 127.000000 0.140592 164.000000 0.130858
203665.000000 0.864140 248.000000 246.000000 165.000000 0.115331 196.000000 0.207978 216.000000 0.053350 226.000000 0.032427 16.000000 -0.252099 120.000000 0.143402 142.000000 0.102087
203911.000000 0.944637 246.000000 248.000000 160.000000 0.116519 197.000000 0.248008 222.000000 0.012823 231.000000 0.040047 17.000000 -0.175110 124.000000 0.106878 163.000000 0.096519
204159.000000 0.852867 248.000000 252.000000 167.000000 0.127007 201.000000 0.232337 227.000000 0.028763 234.000000 0.022007 16.000000 -0.236052 127.000000 0.150845 167.000000 0.127007
204411.000000 0.849185 252.000000 247.000000 166.000000 0.111391 198.000000 0.213837 215.000000 0.037099 226.000000 0.023840 17.000000 -0.171300 127.000000 0.139435 167.000000 0.111971
204658.000000 0.842996 247.000000 248.000000 167.000000 0.113433 198.000000 0.217898 214.000000 0.050687 228.000000 0.050013 18.000000 -0.248102 124.000000 0.163103 133.000000 0.159748
204906.000000 0.792726 248.000000 253.000000 167.000000 0.100157 200.000000 0.219371 224.000000 0.013727 235.000000 0.003321 15.000000 -0.276643 125.000000 0.150811 148.000000 0.096378
205406.000000 0.808044 247.000000 251.000000 120.000000 0.144417 198.000000 0.180283 200.000000 0.169405 234.000000 -0.022132 16.000000 -0.302519 119.000000 0.153382 138.000000 0.082707
205657.000000 0.856079 251.000000 252.000000 122.000000 0.121162 201.000000 0.224311 203.000000 0.217979 235.000000 0.012944 16.000000 -0.334110 120.000000 0.135676 122.000000 0.121162
205909.000000 0.900671 252.000000 253.000000 172.000000 0.118449 202.000000 0.228842 228.000000 0.033419 239.000000 0.023766 16.000000 -0.292917 129.000000 0.162994 152.000000 0.104719
206162.000000 0.877245 253.000000 247.000000 134.000000 0.108057 194.000000 0.221738 198.000000 0.206565 227.000000 0.027537 16.000000 -0.141614 130.000000 0.134953 142.000000 0.118714
206409.000000 0.851486 247.000000 250.000000 124.000000 0.130388 197.000000 0.199940 219.000000 0.038183 236.000000 0.003104 16.000000 -0.188825 124.000000 0.130388 198.000000 0.194642
206659.000000 0.804921 250.000000 249.000000 149.000000 0.104574 198.000000 0.222868 225.000000 0.020172 232.000000 0.008636 16.000000 -0.205987 127.000000 0.139998 149.000000 0.104574
207156.000000 0.781895 248.000000 251.000000 168.000000 0.069957 196.000000 0.182340 202.000000 0.157496 237.000000 -0.016174 18.000000 -0.221067 121.000000 0.138090 141.000000 0.063796
207407.000000 0.801366 251.000000 238.000000 114.000000 0.138510 185.000000 0.185185 187.000000 0.173853 221.000000 -0.001287 14.000000 -0.298977 111.000000 0.142209 114.000000 0.138510
207896.000000 0.885532 251.000000 247.000000 161.000000 0.157615 197.000000 0.225825 200.000000 0.204478 231.000000 0.001173 14.000000 -0.353042 125.000000 0.191833 161.000000 0.157615
208387.000000 0.839168 244.000000 252.000000 171.000000 0.108452 199.000000 0.219657 225.000000 -0.004122 236.000000 0.019310 16.000000 -0.255581 117.000000 0.195380 126.000000 0.159832
208639.000000 0.793462 252.000000 246.000000 164.000000 0.106381 197.000000 0.207778 203.000000 0.166382 226.000000 -0.007163 16.000000 -0.286412 117.000000 0.190296 126.000000 0.148400
209134.000000 0.812541 249.000000 248.000000 141.000000 0.065113 196.000000 0.222490 208.000000 0.090137 215.000000 0.006971 17.000000 -0.272302 124.000000 0.194266 170.000000 0.116755
209636.000000 0.775628 254.000000 250.000000 121.000000 0.157276 198.000000 0.242038 226.000000 0.027007 236.000000 0.009201 17.000000 -0.275954 126.000000 0.170316 197.000000 0.202524
209886.000000 0.825410 250.000000 252.000000 160.000000 0.087755 203.000000 0.174621 210.000000 0.156219 231.000000 0.027678 16.000000 -0.417287 116.000000 0.193931 117.000000 0.179761
210138.000000 0.811066 252.000000 248.000000 173.000000 0.112541 198.000000 0.200160 226.000000 0.004705 230.000000 -0.072460 21.000000 -0.139371 116.000000 0.227664 176.000000 0.091444
210386.000000 0.790627 248.000000 249.000000 166.000000 0.097598 199.000000 0.168977 220.000000 -0.022462 227.000000 -0.037382 15.000000 -0.318528 121.000000 0.205140 177.000000 0.065654
210635.000000 0.799703 249.000000 248.000000 164.000000 0.081613 197.000000 0.194120 223.000000 -0.031568 230.000000 -0.013823 19.000000 -0.229497 123.000000 0.171816 170.000000 0.086378
211136.000000 0.831022 253.000000 249.000000 120.000000 0.126222 199.000000 0.198400 226.000000 -0.011569 234.000000 0.006144 15.000000 -0.265640 117.000000 0.139545 125.000000 0.122867
211385.000000 0.882476 249.000000 245.000000 164.000000 0.071268 192.000000 0.210596 219.000000 0.015238 229.000000 0.010662 15.000000 -0.201532 121.000000 0.130449 157.000000 0.066769
211630.000000 0.814831 245.000000 244.000000 120.000000 0.142056 193.000000 0.217934 213.000000 -0.012398 224.000000 -0.006585 14.000000 -0.262301 124.000000 0.164877 193.000000 0.217934
211874.000000 0.812430 244.000000 246.000000 135.000000 0.105853 196.000000 0.247007 219.000000 0.019605 228.000000 0.029324 16.000000 -0.314294 124.000000 0.134252 135.000000 0.105853
212120.000000 0.869841 246.000000 249.000000 124.000000 0.148168 200.000000 0.243273 226.000000 0.033683 232.000000 0.045736 17.000000 -0.288671 128.000000 0.175299 190.000000 0.199198
212369.000000 0.922428 249.000000 246.000000 119.000000 0.145096 193.000000 0.208557 197.000000 0.187898 231.000000 -0.000372 16.000000 -0.296600 121.000000 0.147321 197.000000 0.187898
212615.000000 0.829110 246.000000 239.000000 122.000000 0.164839 185.000000 0.206254 189.000000 0.194829 223.000000 0.017936 14.000000 -0.253414 125.000000 0.171671 189.000000 0.194829
212854.000000 0.830396 239.000000 246.000000 149.000000 0.086503 196.000000 0.197760 222.000000 0.014954 226.000000 -0.008086 14.000000 -0.250167 117.000000 0.148651 125.000000 0.144026
