614.000000 2.332277 313.000000 274.000000 164.000000 0.063525 217.000000 0.136147 231.000000 0.119486 245.000000 0.006226 19.000000 -0.059525 160.000000 0.069559 166.000000 0.066676
1206.000000 2.263451 318.000000 211.000000 165.000000 0.140424 190.000000 0.241237 182.000000 0.192570 189.000000 0.236518 18.000000 -0.019996 20.000000 -0.030936 38.000000 -0.176955
1417.000000 2.430626 211.000000 292.000000 194.000000 0.031109 231.000000 0.122505 259.000000 0.001752 274.000000 0.037836 19.000000 -0.096021 172.000000 0.055878 182.000000 0.035202
1924.000000 2.439794 215.000000 283.000000 204.000000 0.070910 230.000000 0.117994 249.000000 0.078949 260.000000 0.050217 19.000000 -0.017840 167.000000 0.052525 168.000000 0.047932
2207.000000 2.381285 283.000000 271.000000 37.000000 -0.169732 172.000000 0.155331 183.000000 0.121097 249.000000 0.092947 19.000000 -0.050315 161.000000 0.096570 177.000000 0.120487
2478.000000 2.377459 271.000000 246.000000 198.000000 0.133984 225.000000 0.159609 221.000000 0.128401 228.000000 0.146476 18.000000 -0.074204 145.000000 0.003386 171.000000 0.088405
2724.000000 2.388905 246.000000 287.000000 164.000000 0.087600 220.000000 0.157444 265.000000 0.090125 276.000000 0.156537 20.000000 -0.140735 160.000000 0.117772 164.000000 0.087600
3011.000000 2.421161 287.000000 219.000000 161.000000 0.127598 198.000000 0.203164 195.000000 0.189966 202.000000 0.180735 15.000000 -0.047039 130.000000 -0.077839 166.000000 0.158789
3230.000000 2.465483 219.000000 227.000000 128.000000 -0.105473 169.000000 0.201188 171.000000 0.187662 209.000000 0.117319 15.000000 0.085673 23.000000 -0.022008 28.000000 -0.051146
3457.000000 2.401287 227.000000 407.000000 339.000000 0.000535 386.000000 0.096709 382.000000 0.082321 389.000000 0.101474 17.000000 0.024138 172.000000 0.153986 183.000000 0.129033
3864.000000 2.382684 407.000000 414.000000 315.000000 -0.006051 376.000000 0.118620 381.000000 0.079687 392.000000 0.044233 18.000000 -0.047709 184.000000 0.172625 191.000000 0.134318
4580.000000 2.416915 302.000000 323.000000 227.000000 0.017837 253.000000 0.057994 274.000000 0.036112 302.000000 0.027619 21.000000 -0.065954 164.000000 0.086647 165.000000 0.083637
4903.000000 2.411427 323.000000 302.000000 136.000000 -0.040864 189.000000 0.096552 216.000000 0.081459 284.000000 0.101112 16.000000 -0.006362 177.000000 0.107996 216.000000 0.081459
5205.000000 2.445737 302.000000 367.000000 317.000000 0.021691 344.000000 0.117164 338.000000 0.062224 345.000000 0.107305 17.000000 -0.077444 201.000000 0.175880 222.000000 0.040957
6059.000000 2.453746 211.000000 296.000000 234.000000 0.077555 269.000000 0.101084 271.000000 0.089657 278.000000 0.062430 17.000000 -0.011849 174.000000 0.094860 195.000000 0.010455
6355.000000 2.395159 296.000000 333.000000 288.000000 0.035124 310.000000 0.099860 305.000000 0.054060 312.000000 0.095362 17.000000 -0.069262 166.000000 0.178562 169.000000 0.178405
7387.000000 2.397524 268.000000 414.000000 361.000000 0.028903 383.000000 0.104953 387.000000 0.076739 394.000000 0.063199 17.000000 -0.088697 188.000000 0.161648 190.000000 0.161036
8448.000000 2.447476 235.000000 282.000000 216.000000 0.069966 236.000000 0.154669 249.000000 0.089561 265.000000 0.022836 18.000000 -0.033385 166.000000 0.079748 171.000000 0.096738
8730.000000 2.357258 282.000000 260.000000 145.000000 -0.002604 203.000000 0.191802 216.000000 0.094467 237.000000 0.114060 19.000000 -0.032476 144.000000 0.001785 145.000000 -0.002604
8990.000000 2.388008 260.000000 246.000000 170.000000 0.095173 197.000000 0.183966 202.000000 0.125313 219.000000 0.154905 8.000000 -0.063011 146.000000 -0.029119 171.000000 0.101223
9236.000000 2.373291 246.000000 307.000000 240.000000 0.072822 262.000000 0.109092 270.000000 0.043010 289.000000 0.036316 21.000000 -0.046662 168.000000 0.049561 194.000000 0.075488
9882.000000 2.341598 339.000000 353.000000 261.000000 -0.017119 289.000000 0.057177 301.000000 0.007007 334.000000 0.058810 15.000000 0.001831 165.000000 0.168840 171.000000 0.152335
10235.000000 2.336055 353.000000 297.000000 193.000000 0.074985 248.000000 0.156019 257.000000 0.101583 278.000000 0.066378 18.000000 -0.065217 177.000000 0.132114 193.000000 0.074985
10532.000000 2.396640 297.000000 260.000000 175.000000 0.035062 203.000000 0.196504 216.000000 0.181473 242.000000 0.091629 15.000000 -0.015021 155.000000 0.028717 160.000000 0.029545
11023.000000 2.405941 231.000000 254.000000 145.000000 -0.004276 193.000000 0.144767 202.000000 0.136742 236.000000 0.096399 16.000000 0.038731 147.000000 0.002213 189.000000 0.128404
11277.000000 2.379846 254.000000 266.000000 181.000000 0.099783 236.000000 0.141586 242.000000 0.118420 249.000000 0.107073 16.000000 -0.015905 158.000000 0.014876 181.000000 0.099783
11543.000000 2.352245 266.000000 265.000000 131.000000 -0.010998 176.000000 0.143887 193.000000 0.109263 243.000000 0.095547 14.000000 -0.025153 129.000000 -0.002048 131.000000 -0.010998
12147.000000 2.348841 339.000000 201.000000 150.000000 0.098495 170.000000 0.214449 174.000000 0.198307 181.000000 0.142649 20.000000 -0.103071 27.000000 -0.088181 65.000000 -0.402930
12348.000000 2.454438 201.000000 358.000000 308.000000 0.036897 337.000000 0.082335 332.000000 0.070266 339.000000 0.092899 20.000000 -0.013416 175.000000 0.154569 232.000000 0.031632
12706.000000 2.376899 358.000000 307.000000 187.000000 0.071659 213.000000 0.102194 225.000000 0.091630 294.000000 0.014027 19.000000 -0.101191 166.000000 0.103244 180.000000 0.067897
13013.000000 2.344826 307.000000 303.000000 259.000000 0.051611 281.000000 0.101329 275.000000 0.070717 282.000000 0.090858 14.000000 0.036612 168.000000 0.087025 191.000000 0.050330
13607.000000 2.348465 291.000000 257.000000 203.000000 0.201989 236.000000 0.354609 233.000000 0.283700 240.000000 0.534108 16.000000 -0.024388 142.000000 0.001643 169.000000 0.053574
14141.000000 2.275972 277.000000 275.000000 168.000000 0.079515 209.000000 0.162038 222.000000 0.139247 257.000000 0.103620 16.000000 0.000000 164.000000 0.076019 168.000000 0.079515
14642.000000 2.254433 226.000000 320.000000 269.000000 0.046878 296.000000 0.114746 297.000000 0.104903 304.000000 0.120953 20.000000 -0.027434 187.000000 0.075485 225.000000 0.011364
14962.000000 2.182036 320.000000 269.000000 205.000000 0.122914 227.000000 0.167195 235.000000 0.140534 249.000000 0.089077 16.000000 -0.020298 160.000000 0.046004 173.000000 0.127712
15845.000000 2.249216 266.000000 248.000000 192.000000 0.111051 220.000000 0.173059 218.000000 0.159141 225.000000 0.135348 14.000000 0.019857 135.000000 -0.007289 149.000000 -0.033950
16093.000000 2.191428 248.000000 269.000000 179.000000 0.075060 209.000000 0.172051 228.000000 0.089291 252.000000 0.088575 17.000000 -0.024812 155.000000 0.039324 167.000000 0.092944
16362.000000 2.197556 269.000000 256.000000 197.000000 0.115644 220.000000 0.169030 221.000000 0.168497 237.000000 0.118982 17.000000 -0.017851 147.000000 -0.000834 172.000000 0.168606
17469.000000 2.054657 273.000000 281.000000 204.000000 0.068384 241.000000 0.160486 246.000000 0.117617 263.000000 0.090924 18.000000 -0.032258 166.000000 0.101144 175.000000 0.099781
17750.000000 2.075533 281.000000 242.000000 187.000000 0.120923 221.000000 0.140095 216.000000 0.139045 223.000000 0.153401 19.000000 0.000628 140.000000 0.004199 143.000000 -0.007667
17992.000000 2.104905 242.000000 298.000000 205.000000 0.018539 236.000000 0.089151 247.000000 0.075389 281.000000 0.079668 10.000000 -0.103591 162.000000 0.038209 184.000000 0.073367
18290.000000 2.112646 298.000000 277.000000 197.000000 0.071973 223.000000 0.153965 242.000000 0.091786 258.000000 0.097131 15.000000 -0.005048 164.000000 0.132962 172.000000 0.112632
18567.000000 2.039905 277.000000 225.000000 163.000000 0.122197 188.000000 0.196791 192.000000 0.181196 205.000000 0.146461 15.000000 0.047176 129.000000 -0.029998 136.000000 -0.031533
18792.000000 2.281787 225.000000 380.000000 333.000000 0.049767 358.000000 0.108765 352.000000 0.058342 359.000000 0.103780 16.000000 0.060893 190.000000 0.111394 192.000000 0.105924
19172.000000 2.181473 380.000000 285.000000 167.000000 0.073822 205.000000 0.137493 222.000000 0.079467 262.000000 0.097695 16.000000 0.014715 170.000000 0.103917 205.000000 0.137493
19457.000000 2.231489 285.000000 368.000000 308.000000 0.028718 345.000000 0.075583 343.000000 0.070442 350.000000 0.110317 18.000000 -0.102119 172.000000 0.139750 197.000000 0.112056
19825.000000 2.252729 368.000000 205.000000 58.000000 -0.275548 167.000000 0.235285 168.000000 0.220630 183.000000 0.163043 17.000000 -0.053730 20.000000 -0.079748 37.000000 -0.139702
20030.000000 2.269422 205.000000 251.000000 174.000000 0.048372 202.000000 0.162243 214.000000 0.125566 228.000000 0.084844 18.000000 0.066818 20.000000 0.089733 40.000000 -0.115926
20653.000000 2.156553 372.000000 292.000000 127.000000 0.006193 180.000000 0.135095 225.000000 0.094455 273.000000 0.097902 18.000000 -0.079247 169.000000 0.116711 179.000000 0.134766
20945.000000 2.100411 292.000000 233.000000 175.000000 0.120206 210.000000 0.169393 203.000000 0.123106 210.000000 0.169393 17.000000 -0.033805 138.000000 -0.034200 166.000000 0.051569
21178.000000 2.105679 233.000000 419.000000 363.000000 0.013687 397.000000 0.114689 389.000000 0.050786 396.000000 0.109846 21.000000 -0.003884 169.000000 0.094519 199.000000 0.052449
21597.000000 2.282260 419.000000 244.000000 40.000000 -0.110591 194.000000 0.227321 206.000000 0.171002 223.000000 0.112052 19.000000 -0.095609 145.000000 0.003888 187.000000 0.210472
21841.000000 2.250550 244.000000 207.000000 56.000000 -0.307444 167.000000 0.180973 177.000000 0.128212 190.000000 0.136803 18.000000 0.009703 21.000000 0.003590 36.000000 -0.130031
22048.000000 2.319940 207.000000 251.000000 164.000000 0.064719 201.000000 0.141113 216.000000 0.095455 230.000000 0.085077 15.000000 0.055772 140.000000 0.000455 185.000000 0.128622
22299.000000 2.236268 251.000000 249.000000 200.000000 0.082130 227.000000 0.204546 223.000000 0.173355 230.000000 0.196459 16.000000 -0.036868 142.000000 -0.022324 166.000000 0.155453
23352.000000 2.268528 299.000000 281.000000 124.000000 -0.061833 180.000000 0.110786 217.000000 0.081914 260.000000 0.042367 14.000000 0.015049 167.000000 0.099061 176.000000 0.079202
23879.000000 2.277555 246.000000 351.000000 180.000000 0.143541 216.000000 0.066646 228.000000 0.032743 330.000000 0.005845 17.000000 -0.032696 180.000000 0.143541 218.000000 0.055925
24230.000000 2.300093 351.000000 207.000000 134.000000 0.025064 186.000000 1.391226 155.000000 0.161287 162.000000 0.189469 17.000000 -0.015080 21.000000 -0.050722 28.000000 -0.145331
25015.000000 2.206318 266.000000 296.000000 132.000000 -0.010125 211.000000 0.129325 215.000000 0.101364 275.000000 0.052836 16.000000 0.020473 176.000000 0.040879 215.000000 0.101364
25515.000000 2.442713 204.000000 316.000000 266.000000 0.012569 295.000000 0.077806 290.000000 0.044435 297.000000 0.077101 16.000000 0.045832 166.000000 0.031863 176.000000 0.018806
25831.000000 2.253745 316.000000 271.000000 135.000000 -0.004107 184.000000 0.170407 189.000000 0.157162 251.000000 0.129292 18.000000 -0.046223 161.000000 0.012225 177.000000 0.157665
26440.000000 2.319094 338.000000 212.000000 45.000000 -0.169453 179.000000 0.197226 182.000000 0.167288 193.000000 0.138747 22.000000 -0.082820 20.000000 -0.062350 45.000000 -0.169453
26652.000000 2.380408 212.000000 292.000000 242.000000 0.070141 267.000000 0.099498 266.000000 0.095548 273.000000 0.089561 18.000000 0.033403 170.000000 0.047584 182.000000 0.034952
27173.000000 2.428980 229.000000 302.000000 249.000000 0.034250 281.000000 0.079986 275.000000 0.070599 282.000000 0.089781 17.000000 -0.044125 166.000000 0.065375 169.000000 0.036832
27475.000000 2.305392 302.000000 220.000000 37.000000 -0.197837 199.000000 1.690440 200.000000 1.830236 207.000000 2.138575 19.000000 -0.074419 131.000000 -0.074389 210.000000 2.047618
27987.000000 2.371171 292.000000 318.000000 203.000000 0.072426 264.000000 0.095659 276.000000 0.083966 301.000000 0.031268 13.000000 -0.018625 178.000000 0.082741 191.000000 0.076315
28305.000000 2.363730 318.000000 213.000000 126.000000 -0.051802 192.000000 1.433416 178.000000 0.405391 185.000000 0.785092 19.000000 -0.086365 126.000000 -0.051802 206.000000 2.107633
28783.000000 2.338119 265.000000 303.000000 224.000000 0.024186 248.000000 0.087538 259.000000 0.079686 282.000000 0.053949 16.000000 -0.047540 177.000000 0.064623 185.000000 0.046318
29086.000000 2.285139 303.000000 268.000000 223.000000 0.100547 244.000000 0.167332 241.000000 0.156894 248.000000 0.140765 16.000000 -0.028873 159.000000 0.044549 179.000000 0.091144
29596.000000 2.378667 242.000000 248.000000 166.000000 0.066729 202.000000 0.128186 210.000000 0.091696 228.000000 0.088217 18.000000 -0.053321 143.000000 -0.003365 166.000000 0.066729
30378.000000 2.250095 324.000000 297.000000 159.000000 0.050097 187.000000 0.116258 200.000000 0.112996 278.000000 0.054530 18.000000 -0.057882 177.000000 0.102338 187.000000 0.116258
30675.000000 2.263307 297.000000 292.000000 165.000000 0.083920 193.000000 0.111506 228.000000 0.110972 268.000000 -0.016458 18.000000 -0.078370 166.000000 0.091319 192.000000 0.101224
30967.000000 2.291739 292.000000 218.000000 127.000000 -0.056177 166.000000 0.163277 172.000000 0.144671 192.000000 0.089515 21.000000 -0.071694 129.000000 -0.044327 156.000000 0.016584
31185.000000 2.303575 218.000000 269.000000 195.000000 0.026393 233.000000 0.135095 236.000000 0.117008 250.000000 0.090077 22.000000 0.001160 20.000000 0.028715 46.000000 -0.179374
31725.000000 2.141708 271.000000 255.000000 178.000000 0.065422 222.000000 0.163461 227.000000 0.130060 234.000000 0.143133 16.000000 0.012836 151.000000 -0.012336 165.000000 0.078822
31980.000000 2.061725 255.000000 305.000000 185.000000 0.077307 242.000000 0.113606 244.000000 0.094531 284.000000 0.041788 16.000000 0.017071 182.000000 0.071304 185.000000 0.077307
32285.000000 2.164845 305.000000 348.000000 298.000000 0.051205 324.000000 0.099123 321.000000 0.078636 328.000000 0.105016 22.000000 -0.057148 177.000000 0.137944 227.000000 0.053304
32633.000000 2.213155 348.000000 361.000000 310.000000 0.033182 335.000000 0.058196 331.000000 0.048086 338.000000 0.038511 18.000000 -0.080607 192.000000 0.167358 218.000000 0.012372
33245.000000 2.539169 251.000000 323.000000 178.000000 0.150723 202.000000 0.106224 231.000000 0.073355 303.000000 0.054470 25.000000 -0.225801 178.000000 0.150723 190.000000 0.125958
34413.000000 2.226990 294.000000 237.000000 139.000000 0.010817 186.000000 0.238118 198.000000 0.191206 216.000000 0.098898 18.000000 -0.008842 127.000000 0.023357 139.000000 0.010817
34650.000000 2.237648 237.000000 203.000000 134.000000 0.039796 182.000000 1.607052 149.000000 0.113839 156.000000 0.169889 17.000000 0.007836 21.000000 -0.007760 26.000000 -0.095564
35214.000000 2.298651 361.000000 238.000000 139.000000 0.013967 180.000000 0.192429 191.000000 0.178589 216.000000 0.173117 18.000000 -0.071538 141.000000 0.035002 178.000000 0.179843
35452.000000 2.375596 238.000000 194.000000 140.000000 0.076209 173.000000 0.494986 167.000000 0.304281 174.000000 0.565456 16.000000 0.018870 20.000000 -0.066647 30.000000 -0.198746
36799.000000 2.287572 341.000000 252.000000 201.000000 0.139918 226.000000 0.141394 226.000000 0.141394 233.000000 0.125140 18.000000 0.009718 22.000000 0.008198 48.000000 -0.262225
37354.000000 2.314986 303.000000 306.000000 230.000000 0.064812 284.000000 0.139183 278.000000 0.066127 285.000000 0.134089 17.000000 -0.080185 164.000000 0.130813 167.000000 0.123633
37890.000000 2.232146 230.000000 292.000000 241.000000 0.040455 271.000000 0.117147 266.000000 0.069091 273.000000 0.126599 15.000000 0.049340 169.000000 0.046177 179.000000 0.030220
38182.000000 2.265205 292.000000 224.000000 151.000000 0.006113 176.000000 0.193589 184.000000 0.146646 206.000000 0.075830 16.000000 -0.047271 129.000000 -0.019218 140.000000 -0.031897
38688.000000 2.302447 282.000000 256.000000 209.000000 0.119075 234.000000 0.188292 228.000000 0.089217 235.000000 0.182352 17.000000 -0.010766 135.000000 -0.006552 149.000000 -0.021850
39235.000000 2.284705 291.000000 290.000000 167.000000 0.060280 216.000000 0.127146 240.000000 0.068588 272.000000 0.086804 17.000000 -0.073305 166.000000 0.068979 193.000000 0.054090
39525.000000 2.282339 290.000000 224.000000 143.000000 -0.060531 178.000000 0.155816 189.000000 0.134171 204.000000 0.124216 17.000000 -0.047131 129.000000 -0.061943 149.000000 -0.062208
40021.000000 2.224011 272.000000 307.000000 172.000000 0.080190 208.000000 0.105565 210.000000 0.100973 281.000000 0.090736 19.000000 0.003777 173.000000 0.100299 209.000000 0.100769
40328.000000 2.186285 307.000000 313.000000 170.000000 0.040175 212.000000 0.127306 263.000000 0.100708 294.000000 0.032808 18.000000 -0.067929 144.000000 0.076884 147.000000 0.074142
40641.000000 2.215944 313.000000 352.000000 289.000000 -0.022774 319.000000 0.073903 325.000000 0.038668 332.000000 0.053511 16.000000 -0.004151 189.000000 0.159518 237.000000 0.049592
40993.000000 2.167836 352.000000 247.000000 165.000000 -0.031535 187.000000 0.139687 198.000000 0.124421 239.000000 1.287336 6.000000 0.859216 137.000000 -0.012411 165.000000 -0.031535
41240.000000 2.338199 247.000000 258.000000 213.000000 0.134436 230.000000 0.200973 233.000000 -0.042021 240.000000 -0.022804 12.000000 -0.140280 44.000000 0.972430 45.000000 0.331944
41498.000000 2.133307 258.000000 431.000000 384.000000 0.013246 410.000000 0.130441 402.000000 0.123355 409.000000 0.115331 15.000000 -0.116756 184.000000 0.160088 213.000000 0.102062
41929.000000 2.302559 431.000000 295.000000 191.000000 0.048936 224.000000 0.139939 233.000000 0.116882 275.000000 0.062133 21.000000 -0.125826 165.000000 0.113858 172.000000 0.107605
42449.000000 2.297691 225.000000 444.000000 402.000000 0.037665 422.000000 0.078919 416.000000 0.034311 423.000000 0.078778 19.000000 -0.069191 181.000000 0.116424 212.000000 0.054281
42893.000000 2.277947 444.000000 202.000000 148.000000 0.051648 171.000000 0.235345 167.000000 0.212461 174.000000 0.204843 18.000000 -0.080015 25.000000 -0.083054 34.000000 -0.156047
43095.000000 2.295671 202.000000 326.000000 285.000000 0.027196 305.000000 0.110378 298.000000 0.028043 305.000000 0.110378 20.000000 0.038040 160.000000 0.108077 207.000000 0.059751
43421.000000 2.109561 326.000000 272.000000 171.000000 0.116614 205.000000 0.160313 220.000000 0.133274 252.000000 0.107491 18.000000 -0.077021 161.000000 0.094623 171.000000 0.116614
43693.000000 2.117350 272.000000 331.000000 288.000000 0.042838 306.000000 0.092996 300.000000 0.028982 307.000000 0.082901 21.000000 -0.066206 164.000000 0.137415 167.000000 0.106537
44024.000000 2.228137 331.000000 225.000000 144.000000 -0.021850 180.000000 0.246255 188.000000 0.210768 207.000000 0.182760 17.000000 -0.005798 132.000000 -0.029214 144.000000 -0.021850
44536.000000 2.183278 287.000000 319.000000 244.000000 0.011821 292.000000 0.118122 292.000000 0.118122 299.000000 0.080363 15.000000 -0.000078 137.000000 0.083181 144.000000 0.073087
45196.000000 2.184436 341.000000 262.000000 195.000000 0.127178 220.000000 0.147099 226.000000 0.089013 241.000000 0.108589 17.000000 -0.023683 156.000000 -0.022838 178.000000 0.111989
46445.000000 2.061143 313.000000 341.000000 166.000000 0.153807 221.000000 0.103151 248.000000 -0.033793 322.000000 0.059170 22.000000 -0.060016 163.000000 0.172113 171.000000 0.168320
46786.000000 2.078732 341.000000 328.000000 228.000000 0.064939 289.000000 0.100770 302.000000 0.048134 310.000000 0.043698 20.000000 -0.132242 167.000000 0.111662 218.000000 0.039359
47439.000000 2.067399 325.000000 219.000000 165.000000 0.122415 186.000000 0.190017 189.000000 0.174704 197.000000 0.177244 19.000000 -0.050941 24.000000 -0.046708 31.000000 -0.078102
47658.000000 2.126617 219.000000 303.000000 214.000000 0.000910 244.000000 0.083464 256.000000 0.056411 284.000000 0.069606 18.000000 0.042949 135.000000 0.040018 140.000000 0.016051
47961.000000 2.061270 303.000000 272.000000 46.000000 -0.158274 180.000000 0.150908 220.000000 0.089358 252.000000 0.096287 21.000000 -0.084089 161.000000 0.063449 181.000000 0.136582
48233.000000 1.998732 272.000000 277.000000 220.000000 0.082729 244.000000 0.128025 246.000000 0.120486 258.000000 0.086756 23.000000 -0.075064 164.000000 0.065720 185.000000 0.116773
48783.000000 1.856837 273.000000 324.000000 210.000000 0.046913 237.000000 0.088448 260.000000 0.035405 305.000000 0.107006 20.000000 -0.034166 175.000000 0.096667 186.000000 0.072686
49107.000000 1.901520 324.000000 258.000000 185.000000 0.088765 211.000000 0.142119 220.000000 0.106946 239.000000 0.114985 15.000000 -0.033136 152.000000 0.063060 168.000000 0.112856
49581.000000 1.986753 216.000000 227.000000 181.000000 0.148635 205.000000 0.150110 200.000000 0.078433 207.000000 0.138808 15.000000 0.112772 25.000000 0.045093 36.000000 -0.057242
49808.000000 2.032349 227.000000 323.000000 279.000000 0.042192 301.000000 0.082100 297.000000 0.062852 304.000000 0.091552 16.000000 0.047130 182.000000 0.099810 194.000000 0.059777
51108.000000 2.047369 366.000000 256.000000 176.000000 0.151724 203.000000 0.155156 226.000000 0.119404 239.000000 0.157805 16.000000 0.021821 142.000000 -0.007162 148.000000 -0.008589
51364.000000 1.961912 256.000000 340.000000 166.000000 0.093210 206.000000 0.107182 232.000000 0.006634 322.000000 0.080768 16.000000 -0.040564 164.000000 0.097049 167.000000 0.089386
51704.000000 2.030472 340.000000 314.000000 133.000000 0.042274 190.000000 0.110737 239.000000 0.043797 295.000000 0.064847 18.000000 -0.002065 185.000000 0.115767 188.000000 0.095909
52018.000000 2.009500 314.000000 280.000000 129.000000 -0.067293 180.000000 0.105551 204.000000 0.099391 256.000000 0.075897 15.000000 0.040452 167.000000 0.076912 178.000000 0.100080
52588.000000 2.021272 290.000000 369.000000 252.000000 -0.000849 319.000000 0.091190 321.000000 0.083118 353.000000 0.023196 17.000000 -0.047396 174.000000 0.160440 190.000000 0.122853
53277.000000 2.077151 320.000000 327.000000 279.000000 0.059606 303.000000 0.094888 296.000000 0.040657 303.000000 0.094888 18.000000 -0.069404 170.000000 0.089968 214.000000 0.020783
53604.000000 2.086050 327.000000 240.000000 134.000000 -0.021677 191.000000 0.159406 194.000000 0.149813 220.000000 0.113575 21.000000 -0.051253 134.000000 -0.021677 194.000000 0.149813
54099.000000 2.065847 255.000000 204.000000 141.000000 0.021551 166.000000 0.176865 178.000000 0.141426 188.000000 0.163354 15.000000 0.024531 20.000000 -0.024543 30.000000 -0.108226
54303.000000 2.120092 204.000000 330.000000 274.000000 0.042992 308.000000 0.086351 301.000000 0.066555 308.000000 0.086351 18.000000 0.041268 165.000000 0.065716 206.000000 0.011312
54911.000000 2.083571 278.000000 249.000000 199.000000 0.065569 228.000000 0.157038 223.000000 0.116177 230.000000 0.155267 17.000000 -0.068921 144.000000 -0.038287 170.000000 0.143734
55160.000000 2.104013 249.000000 267.000000 161.000000 0.058367 210.000000 0.167395 218.000000 0.152692 251.000000 0.055011 15.000000 0.018981 159.000000 0.064573 164.000000 0.072035
55427.000000 2.132268 267.000000 293.000000 173.000000 0.078358 218.000000 0.090096 229.000000 0.088152 271.000000 0.032555 15.000000 -0.022385 173.000000 0.078358 227.000000 0.076899
56300.000000 2.094200 369.000000 280.000000 34.000000 -0.142462 169.000000 0.150177 183.000000 0.121837 259.000000 0.074925 19.000000 -0.058607 167.000000 0.139534 183.000000 0.121837
56899.000000 2.173948 319.000000 254.000000 198.000000 0.131162 221.000000 0.142700 223.000000 0.126478 233.000000 0.113514 24.000000 -0.084315 140.000000 0.016284 185.000000 0.109202
57153.000000 2.200663 254.000000 247.000000 184.000000 0.094283 207.000000 0.131604 220.000000 0.129879 229.000000 0.118624 17.000000 -0.015623 137.000000 -0.018498 148.000000 -0.021663
57400.000000 2.134314 247.000000 300.000000 235.000000 0.023589 260.000000 0.080675 267.000000 0.041803 283.000000 0.035942 16.000000 -0.033385 176.000000 0.098862 195.000000 0.017433
57700.000000 2.169988 300.000000 236.000000 149.000000 -0.010157 201.000000 0.192129 202.000000 0.171627 216.000000 0.161535 15.000000 -0.052956 140.000000 0.012492 149.000000 -0.010157
57936.000000 2.260220 236.000000 244.000000 167.000000 0.038605 206.000000 0.118337 211.000000 0.095752 227.000000 0.091050 16.000000 0.026082 133.000000 -0.005641 167.000000 0.038605
58180.000000 2.244574 244.000000 216.000000 142.000000 0.076176 195.000000 1.280579 196.000000 1.394874 203.000000 2.049121 16.000000 0.010044 128.000000 -0.018215 145.000000 0.075690
58665.000000 2.151303 269.000000 288.000000 181.000000 0.097631 232.000000 0.135063 246.000000 0.081050 271.000000 -0.017478 16.000000 0.007699 171.000000 0.082601 183.000000 0.102976
58953.000000 2.154621 288.000000 296.000000 129.000000 -0.005624 186.000000 0.126209 189.000000 0.086742 273.000000 0.051238 16.000000 -0.020504 164.000000 0.065615 189.000000 0.086742
59249.000000 2.204782 296.000000 381.000000 322.000000 0.015076 353.000000 0.079074 353.000000 0.079074 360.000000 0.034294 18.000000 -0.058321 164.000000 0.132412 169.000000 0.107256
60194.000000 2.230235 329.000000 269.000000 166.000000 0.073558 203.000000 0.125344 222.000000 0.068213 247.000000 0.028903 18.000000 -0.084199 157.000000 0.026521 167.000000 0.080031
60751.000000 2.200266 288.000000 268.000000 184.000000 0.095942 210.000000 0.145673 222.000000 0.109434 248.000000 0.059498 19.000000 -0.080940 158.000000 -0.016770 184.000000 0.095942
61350.000000 2.265360 331.000000 331.000000 261.000000 0.027322 307.000000 0.103463 303.000000 0.054891 310.000000 0.082898 20.000000 -0.075800 163.000000 0.114958 169.000000 0.082888
62207.000000 2.277619 297.000000 231.000000 49.000000 -0.162194 194.000000 0.212537 195.000000 0.212286 212.000000 0.159371 20.000000 -0.097318 137.000000 -0.037258 180.000000 0.121800
62438.000000 2.216068 231.000000 292.000000 218.000000 0.048920 239.000000 0.100317 261.000000 0.040691 271.000000 0.019357 15.000000 0.027557 172.000000 0.001364 198.000000 0.060346
62730.000000 2.183024 292.000000 296.000000 123.000000 -0.000009 179.000000 0.105128 204.000000 0.037432 270.000000 0.053213 17.000000 -0.041461 174.000000 0.138059 204.000000 0.037432
63905.000000 2.113951 324.000000 225.000000 132.000000 -0.034783 177.000000 0.164938 191.000000 0.095660 206.000000 0.059048 15.000000 -0.000438 132.000000 -0.034783 166.000000 0.149624
64383.000000 2.168777 253.000000 314.000000 252.000000 0.039684 293.000000 0.084888 288.000000 0.079449 295.000000 0.090123 19.000000 -0.066583 179.000000 0.085719 229.000000 0.051833
64991.000000 2.172024 294.000000 389.000000 321.000000 0.014919 351.000000 0.074041 354.000000 0.050326 367.000000 0.000234 13.000000 -0.034606 172.000000 0.126425 198.000000 0.101597
65380.000000 2.185187 389.000000 276.000000 132.000000 -0.042994 168.000000 0.161633 179.000000 0.146978 253.000000 0.094905 18.000000 -0.086849 164.000000 0.113780 170.000000 0.141931
65656.000000 2.098165 276.000000 306.000000 208.000000 0.033996 259.000000 0.117433 265.000000 0.101680 286.000000 0.060236 19.000000 -0.056458 132.000000 0.058839 138.000000 0.023824
65962.000000 1.901662 306.000000 353.000000 231.000000 0.029200 305.000000 0.071537 312.000000 0.039970 332.000000 0.028717 17.000000 0.014907 184.000000 0.170830 209.000000 0.034308
66315.000000 2.156252 353.000000 233.000000 169.000000 0.063634 203.000000 0.171596 206.000000 0.165797 213.000000 0.118321 22.000000 -0.057931 138.000000 0.005845 156.000000 0.078963
66548.000000 2.272086 233.000000 286.000000 208.000000 0.050031 235.000000 0.075377 247.000000 0.062491 265.000000 0.048841 19.000000 -0.024181 168.000000 0.032698 170.000000 0.027965
66834.000000 2.219485 286.000000 269.000000 214.000000 0.119012 240.000000 0.134843 247.000000 0.109983 253.000000 0.105438 18.000000 -0.057928 152.000000 0.011646 164.000000 0.041143
67103.000000 2.206990 269.000000 317.000000 269.000000 0.030252 296.000000 0.080425 291.000000 0.045518 298.000000 0.085519 16.000000 -0.004719 185.000000 0.077321 194.000000 0.058072
67420.000000 2.265205 317.000000 289.000000 127.000000 -0.015796 180.000000 0.095142 217.000000 0.082648 271.000000 0.014782 17.000000 -0.076646 167.000000 0.117449 180.000000 0.095142
67891.000000 2.283695 182.000000 319.000000 274.000000 0.113136 298.000000 0.130078 290.000000 0.089060 297.000000 0.120642 13.000000 0.031376 163.000000 0.053652 181.000000 -0.010376
68446.000000 1.987607 236.000000 275.000000 177.000000 0.096069 233.000000 0.167744 239.000000 0.124281 256.000000 0.050799 20.000000 -0.064806 164.000000 0.043672 177.000000 0.096069
68721.000000 2.021424 275.000000 249.000000 131.000000 -0.024124 188.000000 0.212151 189.000000 0.198562 233.000000 0.083920 19.000000 -0.012338 138.000000 0.016222 189.000000 0.198562
68970.000000 2.094625 249.000000 244.000000 123.000000 -0.079164 178.000000 0.139202 193.000000 0.083261 221.000000 0.126470 16.000000 0.018103 118.000000 -0.037503 130.000000 -0.049790
69214.000000 2.074119 244.000000 272.000000 116.000000 -0.079561 164.000000 0.121728 168.000000 0.111727 254.000000 0.028917 17.000000 -0.056037 161.000000 0.102497 168.000000 0.111727
69486.000000 2.079245 272.000000 293.000000 238.000000 0.065531 263.000000 0.129185 265.000000 0.112242 272.000000 0.111711 17.000000 -0.033011 165.000000 0.054589 172.000000 0.016250
69779.000000 2.171555 293.000000 288.000000 170.000000 0.079968 222.000000 0.116597 233.000000 0.095658 270.000000 0.073180 22.000000 -0.149559 169.000000 0.090531 174.000000 0.099795
70067.000000 2.201062 288.000000 260.000000 205.000000 0.095031 234.000000 0.139421 231.000000 0.102179 238.000000 0.130549 17.000000 -0.011291 137.000000 -0.022381 149.000000 -0.032539
70327.000000 2.271272 260.000000 262.000000 178.000000 0.050798 213.000000 0.144323 220.000000 0.098854 244.000000 0.117305 16.000000 -0.059981 155.000000 0.053337 165.000000 0.066864
70589.000000 2.209140 262.000000 324.000000 223.000000 0.054766 289.000000 0.098773 297.000000 0.070467 307.000000 0.005499 16.000000 -0.074528 162.000000 0.108811 185.000000 0.003938
70913.000000 2.280345 324.000000 336.000000 156.000000 0.113688 216.000000 0.103357 263.000000 0.056335 316.000000 0.050754 20.000000 -0.068622 157.000000 0.114127 207.000000 0.080144
71249.000000 2.272147 336.000000 312.000000 131.000000 0.036039 191.000000 0.128371 217.000000 0.038653 292.000000 0.017712 18.000000 -0.042054 179.000000 0.128464 185.000000 0.114045
71561.000000 2.274421 312.000000 257.000000 135.000000 0.010819 191.000000 0.171554 194.000000 0.149909 235.000000 0.095470 18.000000 -0.066598 134.000000 0.020318 141.000000 0.003657
72112.000000 2.347181 294.000000 346.000000 302.000000 0.063199 324.000000 0.118105 321.000000 0.053811 328.000000 0.072729 16.000000 -0.012238 169.000000 0.118204 180.000000 0.109315
73322.000000 1.642693 212.000000 560.000000 495.000000 0.106225 520.000000 0.195645 531.000000 0.185676 541.000000 0.183199 18.000000 0.108020 313.000000 1.155929 354.000000 -0.114289
73882.000000 1.554186 560.000000 240.000000 43.000000 -0.164734 190.000000 0.127211 201.000000 0.122195 221.000000 0.091315 16.000000 0.058918 20.000000 0.009217 31.000000 -0.089560
74122.000000 1.810942 240.000000 279.000000 130.000000 -0.024186 189.000000 0.130518 211.000000 0.109860 258.000000 0.117459 17.000000 0.009609 165.000000 0.071817 189.000000 0.130518
74401.000000 1.922446 279.000000 248.000000 49.000000 -0.217208 186.000000 0.167353 197.000000 0.157603 229.000000 0.108715 20.000000 -0.032334 147.000000 -0.005528 186.000000 0.167353
74649.000000 1.858401 248.000000 286.000000 214.000000 0.033214 248.000000 0.148133 261.000000 0.086895 267.000000 0.064561 18.000000 0.012302 169.000000 0.053120 183.000000 0.071867
74935.000000 1.813652 286.000000 339.000000 287.000000 -0.004276 314.000000 0.081789 314.000000 0.081789 321.000000 0.107276 17.000000 0.001020 167.000000 0.096321 198.000000 0.009957
75274.000000 1.943795 339.000000 270.000000 43.000000 -0.137192 177.000000 0.168856 188.000000 0.139311 250.000000 0.145704 16.000000 -0.023149 161.000000 0.070238 174.000000 0.147352
75808.000000 2.024670 264.000000 299.000000 205.000000 0.046378 229.000000 0.100106 241.000000 0.071752 281.000000 0.035232 17.000000 -0.037508 172.000000 0.052541 182.000000 0.070312
76404.000000 1.850172 297.000000 805.000000 467.000000 0.138134 520.000000 1.438107 559.000000 -0.110261 787.000000 0.082304 17.000000 0.018355 287.000000 1.034548 330.000000 -0.155078
77209.000000 2.025265 805.000000 278.000000 212.000000 0.048262 233.000000 0.140268 240.000000 0.103966 257.000000 0.123747 20.000000 -0.045927 162.000000 0.033701 190.000000 0.107415
77700.000000 2.475155 213.000000 258.000000 201.000000 0.047587 223.000000 0.116616 233.000000 0.063997 239.000000 0.106096 18.000000 -0.016974 153.000000 0.027086 165.000000 0.075785
78778.000000 2.388428 294.000000 203.000000 59.000000 -0.464093 182.000000 1.550830 176.000000 0.914168 183.000000 1.661097 17.000000 -0.030693 20.000000 -0.059000 34.000000 -0.214077
79367.000000 2.327976 386.000000 247.000000 134.000000 0.011266 191.000000 0.159891 215.000000 0.135377 224.000000 0.147038 21.000000 -0.074989 132.000000 0.015122 140.000000 0.009338
79614.000000 2.349671 247.000000 244.000000 171.000000 0.088573 193.000000 0.196959 212.000000 0.129077 224.000000 0.100315 19.000000 -0.081523 134.000000 -0.024531 139.000000 -0.055160
79858.000000 2.351787 244.000000 330.000000 264.000000 0.002541 299.000000 0.080128 301.000000 0.065144 308.000000 0.064296 19.000000 -0.058999 165.000000 0.112509 195.000000 0.034203
80459.000000 2.224592 271.000000 266.000000 208.000000 0.059013 239.000000 0.147258 247.000000 0.121695 251.000000 0.117479 18.000000 -0.077192 158.000000 -0.029624 178.000000 0.130298
80725.000000 2.208780 266.000000 302.000000 251.000000 0.025570 280.000000 0.126305 276.000000 0.106446 283.000000 0.141681 17.000000 -0.005330 163.000000 0.094691 164.000000 0.090523
81027.000000 2.190615 302.000000 353.000000 219.000000 0.062680 284.000000 0.068887 294.000000 0.063873 334.000000 0.017324 20.000000 -0.104807 164.000000 0.175672 167.000000 0.152945
81380.000000 2.228923 353.000000 377.000000 259.000000 0.023980 324.000000 0.074777 342.000000 -0.028905 355.000000 0.019403 17.000000 -0.082380 193.000000 0.159861 196.000000 0.143732
82286.000000 2.292290 265.000000 228.000000 140.000000 -0.021724 167.000000 0.168450 173.000000 0.151725 207.000000 0.124389 18.000000 -0.043449 21.000000 -0.044139 28.000000 -0.095095
82514.000000 2.373668 228.000000 288.000000 120.000000 -0.037959 213.000000 0.084754 224.000000 0.065538 270.000000 0.066870 23.000000 -0.060107 165.000000 0.005426 199.000000 0.080302
82802.000000 2.272651 288.000000 359.000000 271.000000 -0.020767 309.000000 0.066758 320.000000 0.042197 344.000000 0.087148 19.000000 -0.084871 176.000000 0.177775 182.000000 0.159234
83161.000000 2.252352 359.000000 209.000000 53.000000 -0.334450 188.000000 1.733450 172.000000 0.423060 179.000000 0.855692 15.000000 0.024281 20.000000 -0.100704 30.000000 -0.229795
83697.000000 2.116239 327.000000 268.000000 165.000000 0.079892 205.000000 0.131429 218.000000 0.108921 247.000000 0.084721 16.000000 0.072792 156.000000 0.061115 168.000000 0.101805
84280.000000 2.057553 315.000000 306.000000 138.000000 0.008930 186.000000 0.125157 231.000000 0.026162 289.000000 0.062135 17.000000 0.051895 181.000000 0.098339 186.000000 0.125157
84586.000000 2.095972 306.000000 268.000000 218.000000 0.065285 247.000000 0.117745 241.000000 0.092981 248.000000 0.125660 16.000000 0.055123 159.000000 -0.010045 187.000000 0.086851
84854.000000 2.167965 268.000000 221.000000 154.000000 0.056174 176.000000 0.159089 182.000000 0.131440 198.000000 0.153229 18.000000 -0.065640 21.000000 -0.067379 40.000000 -0.102613
86468.000000 2.093137 273.000000 226.000000 174.000000 0.096632 194.000000 0.148137 196.000000 0.147980 204.000000 0.131380 18.000000 -0.009795 134.000000 -0.004985 136.000000 0.002116
87012.000000 2.159391 318.000000 385.000000 281.000000 -0.041566 334.000000 0.079373 347.000000 0.029561 366.000000 0.043760 15.000000 -0.008917 168.000000 0.175390 216.000000 0.131034
87397.000000 2.196301 385.000000 271.000000 171.000000 0.053813 203.000000 0.111539 204.000000 0.108045 250.000000 0.105989 17.000000 -0.015785 161.000000 0.018327 171.000000 0.053813
87668.000000 2.209187 271.000000 251.000000 200.000000 0.096941 219.000000 0.137712 224.000000 0.090126 233.000000 0.097680 20.000000 -0.092587 146.000000 0.010108 187.000000 0.068100
87919.000000 2.185800 251.000000 302.000000 255.000000 0.032821 280.000000 0.154120 275.000000 0.098667 282.000000 0.134496 19.000000 -0.065455 160.000000 0.025908 177.000000 -0.003638
88221.000000 2.263320 302.000000 284.000000 167.000000 0.093588 219.000000 0.138262 231.000000 0.088043 261.000000 0.058027 18.000000 -0.121615 169.000000 0.103887 217.000000 0.121036
88505.000000 2.205945 284.000000 204.000000 138.000000 -0.018400 183.000000 0.152133 177.000000 0.138527 184.000000 0.161757 18.000000 -0.073711 20.000000 -0.098899 36.000000 -0.154026
88709.000000 2.320643 204.000000 332.000000 285.000000 0.009609 309.000000 0.098982 306.000000 0.089514 313.000000 0.058119 19.000000 0.037948 165.000000 0.120740 184.000000 0.029439
89311.000000 2.163685 270.000000 257.000000 144.000000 -0.042118 197.000000 0.173022 219.000000 0.119967 238.000000 0.073633 21.000000 -0.099623 148.000000 -0.019860 187.000000 0.122991
89568.000000 2.191878 257.000000 305.000000 130.000000 0.036347 193.000000 0.111034 221.000000 0.014576 288.000000 0.022084 16.000000 0.001784 179.000000 0.096692 191.000000 0.100547
89873.000000 2.131208 305.000000 317.000000 196.000000 0.081203 259.000000 0.098744 271.000000 0.092586 297.000000 0.039561 16.000000 -0.008808 138.000000 0.141469 140.000000 0.131281
90581.000000 2.070219 391.000000 307.000000 173.000000 0.080456 211.000000 0.118213 238.000000 0.041959 281.000000 0.084795 16.000000 -0.019030 176.000000 0.087196 207.000000 0.090910
90888.000000 2.086269 307.000000 342.000000 292.000000 0.055016 312.000000 0.099639 315.000000 0.090157 323.000000 0.056505 17.000000 -0.041241 167.000000 0.117205 183.000000 0.093523
91230.000000 1.975013 342.000000 221.000000 54.000000 -0.120301 175.000000 0.178716 188.000000 0.177572 205.000000 0.120941 16.000000 0.025609 131.000000 -0.038763 176.000000 0.168935
91451.000000 2.023623 221.000000 197.000000 145.000000 0.025830 176.000000 0.130455 173.000000 0.114452 180.000000 0.135502 15.000000 0.106664 24.000000 -0.009293 29.000000 -0.053274
91648.000000 1.914152 197.000000 212.000000 133.000000 -0.017050 190.000000 0.188732 186.000000 0.105221 193.000000 0.177681 17.000000 -0.009769 20.000000 -0.006101 60.000000 -0.115208
91860.000000 2.021883 212.000000 436.000000 324.000000 0.014903 386.000000 0.102682 396.000000 0.094547 416.000000 0.023327 17.000000 0.025975 193.000000 0.142997 214.000000 0.104046
92296.000000 2.136398 436.000000 272.000000 201.000000 0.079312 248.000000 0.160486 242.000000 0.124593 249.000000 0.158699 17.000000 -0.043777 162.000000 0.118933 201.000000 0.079312
92568.000000 2.101630 272.000000 209.000000 148.000000 0.068654 167.000000 0.149483 183.000000 0.093888 190.000000 0.104954 17.000000 -0.071648 121.000000 -0.067852 149.000000 0.075848
92777.000000 2.284546 209.000000 251.000000 140.000000 0.011929 201.000000 0.180141 227.000000 0.088134 229.000000 0.086535 17.000000 0.056506 140.000000 0.011929 200.000000 0.170000
93028.000000 2.208856 251.000000 301.000000 249.000000 0.042052 280.000000 0.114495 276.000000 0.094778 283.000000 0.119261 18.000000 -0.055190 166.000000 0.069296 178.000000 0.068764
93329.000000 2.162490 301.000000 283.000000 123.000000 -0.096210 179.000000 0.145921 209.000000 0.079713 264.000000 0.103963 17.000000 -0.045612 165.000000 0.106831 179.000000 0.145921
93612.000000 2.219997 283.000000 243.000000 162.000000 0.064689 194.000000 0.191147 206.000000 0.178373 217.000000 0.156069 18.000000 -0.069973 144.000000 0.019187 147.000000 0.017620
93855.000000 2.246817 243.000000 244.000000 145.000000 0.019593 190.000000 0.151411 192.000000 0.147931 229.000000 0.061191 19.000000 -0.038748 145.000000 0.019593 181.000000 0.123590
94099.000000 2.194355 244.000000 207.000000 129.000000 -0.009060 173.000000 0.155736 181.000000 0.113275 188.000000 0.134543 16.000000 -0.011696 123.000000 -0.050737 141.000000 0.011208
94617.000000 2.221000 311.000000 346.000000 171.000000 0.184588 221.000000 0.069889 270.000000 0.014202 329.000000 0.070940 20.000000 -0.068638 165.000000 0.190355 171.000000 0.184588
94963.000000 1.997759 346.000000 291.000000 234.000000 0.065925 259.000000 0.120626 262.000000 0.099623 275.000000 0.070046 17.000000 -0.020266 163.000000 0.031926 175.000000 0.035424
95254.000000 2.069623 291.000000 280.000000 173.000000 0.093465 196.000000 0.135395 199.000000 0.127636 261.000000 0.093451 15.000000 0.034904 167.000000 0.052697 174.000000 0.089045
95859.000000 2.061197 325.000000 282.000000 182.000000 0.129766 229.000000 0.149232 251.000000 0.059781 267.000000 0.025393 16.000000 0.063499 168.000000 0.109751 182.000000 0.129766
96141.000000 1.976507 282.000000 304.000000 164.000000 0.046361 198.000000 0.105641 220.000000 0.059702 287.000000 -0.006314 14.000000 0.017888 137.000000 0.077659 164.000000 0.046361
96848.000000 2.134346 403.000000 220.000000 152.000000 0.000266 189.000000 0.204562 193.000000 0.177824 202.000000 0.160879 18.000000 -0.064684 130.000000 -0.011631 139.000000 0.005203
97068.000000 2.209545 220.000000 285.000000 189.000000 0.065689 242.000000 0.097900 245.000000 0.094844 268.000000 0.029969 14.000000 0.110689 170.000000 0.039888 189.000000 0.065689
97353.000000 2.147931 285.000000 284.000000 186.000000 0.100375 212.000000 0.122099 237.000000 0.075283 267.000000 0.070627 17.000000 -0.003138 169.000000 0.043133 186.000000 0.100375
97637.000000 2.229561 284.000000 279.000000 215.000000 0.109216 238.000000 0.142460 243.000000 0.090234 258.000000 0.066255 19.000000 -0.083463 166.000000 0.115548 171.000000 0.094765
97916.000000 2.227447 279.000000 316.000000 271.000000 0.012387 295.000000 0.080302 288.000000 0.030301 295.000000 0.080302 17.000000 -0.042052 174.000000 0.086991 188.000000 0.052805
98232.000000 2.290002 316.000000 207.000000 161.000000 0.078135 184.000000 0.220798 180.000000 0.167052 187.000000 0.220094 17.000000 -0.051973 123.000000 -0.049860 137.000000 0.023949
98439.000000 2.309747 207.000000 312.000000 232.000000 0.064296 291.000000 0.115033 285.000000 0.015739 292.000000 0.105064 16.000000 -0.051929 167.000000 0.059391 179.000000 0.015001
98751.000000 2.335143 312.000000 198.000000 127.000000 -0.019250 168.000000 0.222850 171.000000 0.195076 179.000000 0.221283 18.000000 -0.118871 23.000000 -0.130957 32.000000 -0.226727
98949.000000 2.363384 198.000000 297.000000 236.000000 0.021424 273.000000 0.123634 274.000000 0.118195 279.000000 0.081001 16.000000 0.062600 127.000000 0.067794 196.000000 0.111848
99246.000000 2.280001 297.000000 290.000000 179.000000 0.097919 202.000000 0.129063 215.000000 0.105066 268.000000 0.046915 19.000000 -0.112398 168.000000 0.066103 184.000000 0.086586
99536.000000 2.178010 290.000000 275.000000 213.000000 0.099405 248.000000 0.134938 245.000000 0.104624 252.000000 0.103465 21.000000 -0.047478 164.000000 0.056126 169.000000 0.045938
99811.000000 2.176582 275.000000 220.000000 147.000000 0.064514 199.000000 1.172525 190.000000 0.576787 197.000000 0.977697 22.000000 -0.027884 130.000000 0.004170 153.000000 0.089404
100593.000000 2.227871 207.000000 269.000000 201.000000 0.029634 223.000000 0.127519 233.000000 0.114870 246.000000 0.096908 15.000000 0.054221 21.000000 0.040051 34.000000 -0.033333
101090.000000 2.291834 228.000000 257.000000 184.000000 0.070786 207.000000 0.114595 223.000000 0.068151 240.000000 0.106458 16.000000 0.072351 150.000000 0.029109 160.000000 0.023466
101347.000000 2.090831 257.000000 223.000000 141.000000 0.024545 189.000000 0.223997 191.000000 0.207978 201.000000 0.156334 16.000000 -0.049469 131.000000 0.034575 141.000000 0.024545
101570.000000 2.224122 223.000000 380.000000 271.000000 -0.051569 327.000000 0.043136 336.000000 0.023120 360.000000 0.040096 19.000000 0.000435 196.000000 0.122731 201.000000 0.114345
101950.000000 1.923060 380.000000 368.000000 316.000000 0.010156 346.000000 0.085373 344.000000 0.080045 351.000000 0.060452 18.000000 -0.050310 167.000000 0.181245 175.000000 0.169458
102318.000000 1.990924 368.000000 237.000000 171.000000 0.125047 216.000000 0.161631 214.000000 0.156364 221.000000 0.131411 17.000000 -0.043716 141.000000 -0.013134 171.000000 0.125047
102555.000000 2.018606 237.000000 280.000000 231.000000 0.054467 258.000000 0.064152 254.000000 0.048714 261.000000 0.070861 16.000000 -0.059637 167.000000 0.032037 170.000000 0.043369
102835.000000 2.045001 280.000000 256.000000 188.000000 0.076988 214.000000 0.132849 223.000000 0.120452 240.000000 0.073335 18.000000 -0.118023 152.000000 0.004841 168.000000 0.086940
103091.000000 1.961954 256.000000 321.000000 270.000000 0.052068 296.000000 0.089106 296.000000 0.089106 303.000000 0.074028 15.000000 0.029244 176.000000 0.100194 186.000000 0.087951
103412.000000 1.804780 321.000000 275.000000 166.000000 0.080643 200.000000 0.147242 214.000000 0.133150 259.000000 0.088417 18.000000 -0.038371 164.000000 0.066897 167.000000 0.093152
103687.000000 1.908933 275.000000 220.000000 55.000000 -0.169247 164.000000 0.145205 178.000000 0.131427 205.000000 0.063684 15.000000 -0.031741 131.000000 -0.055784 163.000000 0.129029
103907.000000 2.097665 220.000000 307.000000 196.000000 0.022477 246.000000 0.083780 257.000000 0.057698 291.000000 0.016334 14.000000 0.054311 174.000000 0.065269 185.000000 0.055721
104214.000000 1.937887 307.000000 216.000000 145.000000 0.052430 179.000000 0.218620 190.000000 0.190437 197.000000 0.176660 15.000000 -0.048839 128.000000 -0.020201 135.000000 0.013968
104430.000000 1.878525 216.000000 272.000000 191.000000 0.078839 216.000000 0.137271 233.000000 0.090549 250.000000 0.095770 17.000000 0.015644 162.000000 0.037161 168.000000 0.063307
105013.000000 2.189767 311.000000 241.000000 135.000000 -0.099261 174.000000 0.153166 187.000000 0.123464 222.000000 0.151429 15.000000 -0.037759 137.000000 -0.097724 172.000000 0.145705
105523.000000 2.015723 269.000000 218.000000 160.000000 0.107083 191.000000 0.181849 191.000000 0.181849 198.000000 0.159764 16.000000 0.008484 22.000000 -0.019713 43.000000 -0.158773
105741.000000 2.152772 218.000000 288.000000 185.000000 0.006567 225.000000 0.125470 248.000000 0.092915 264.000000 0.026053 17.000000 0.007269 167.000000 0.058526 177.000000 0.044591
106984.000000 2.304327 382.000000 334.000000 162.000000 0.136472 207.000000 0.065145 247.000000 -0.029307 312.000000 0.016772 16.000000 0.021819 160.000000 0.137945 163.000000 0.127601
107318.000000 2.279581 334.000000 305.000000 246.000000 0.050628 269.000000 0.134108 272.000000 0.113872 289.000000 0.078558 17.000000 -0.086204 182.000000 0.077901 200.000000 0.100675
107623.000000 1.956110 305.000000 293.000000 171.000000 0.073012 215.000000 0.158561 229.000000 0.145551 279.000000 0.090127 14.000000 0.043446 167.000000 0.093247 171.000000 0.073012
107916.000000 1.869673 293.000000 267.000000 176.000000 0.108257 198.000000 0.113430 199.000000 0.100734 249.000000 0.086083 16.000000 0.044828 127.000000 -0.015551 139.000000 -0.039987
108183.000000 1.937682 267.000000 228.000000 143.000000 -0.046346 183.000000 0.195940 198.000000 0.134326 209.000000 0.112805 20.000000 -0.069937 26.000000 -0.030691 44.000000 -0.166064
108411.000000 2.017272 228.000000 929.000000 790.000000 -0.105063 857.000000 0.132837 858.000000 0.119373 903.000000 0.032541 19.000000 0.057457 173.000000 0.108710 177.000000 0.087267
109340.000000 2.320141 929.000000 354.000000 254.000000 0.034152 278.000000 0.160597 293.000000 0.030472 336.000000 0.023651 19.000000 -0.148968 167.000000 0.203664 168.000000 0.203649
109694.000000 2.177727 354.000000 315.000000 199.000000 0.085970 242.000000 0.222492 243.000000 0.213025 305.000000 0.058009 18.000000 -0.051174 185.000000 0.083196 201.000000 0.071549
110009.000000 2.171426 315.000000 243.000000 60.000000 -0.218152 159.000000 0.206396 161.000000 0.187712 222.000000 0.075283 14.000000 0.016174 144.000000 0.011129 161.000000 0.187712
110615.000000 2.409280 363.000000 329.000000 238.000000 0.105049 255.000000 0.171084 286.000000 -0.002507 310.000000 0.010719 14.000000 -0.013010 165.000000 0.104588 179.000000 0.059682
110944.000000 2.388996 329.000000 319.000000 192.000000 0.033137 244.000000 0.210802 259.000000 0.069046 298.000000 -0.018400 16.000000 0.002415 185.000000 0.053230 197.000000 0.047729
111878.000000 2.263102 306.000000 307.000000 192.000000 0.041410 227.000000 0.219891 245.000000 0.102963 289.000000 -0.027837 18.000000 -0.069829 175.000000 0.041410 192.000000 0.041410
112185.000000 2.309307 307.000000 273.000000 47.000000 -0.158359 192.000000 0.282368 195.000000 0.251333 252.000000 0.037570 17.000000 -0.069814 161.000000 -0.025656 195.000000 0.251333
112827.000000 2.389248 369.000000 302.000000 187.000000 0.067660 223.000000 0.255014 261.000000 0.014655 280.000000 -0.000062 17.000000 -0.059719 174.000000 0.066063 175.000000 0.056423
113129.000000 2.339263 302.000000 315.000000 195.000000 0.056551 239.000000 0.200830 240.000000 0.181049 297.000000 -0.014768 17.000000 -0.062115 185.000000 0.056331 196.000000 0.061534
113749.000000 2.286490 305.000000 310.000000 207.000000 -0.013901 234.000000 0.201365 248.000000 0.090220 285.000000 -0.006411 18.000000 -0.099620 179.000000 0.021949 197.000000 0.009266
114059.000000 2.392215 310.000000 293.000000 129.000000 -0.045623 214.000000 0.263765 227.000000 0.136477 273.000000 -0.002820 16.000000 -0.028051 167.000000 0.019063 213.000000 0.253404
114352.000000 2.385318 293.000000 332.000000 222.000000 0.023418 256.000000 0.205832 257.000000 0.200456 314.000000 -0.013764 17.000000 -0.051454 165.000000 0.049939 168.000000 0.045002
114684.000000 2.445311 332.000000 282.000000 167.000000 0.067618 202.000000 0.274014 248.000000 0.005268 260.000000 0.013514 18.000000 -0.139687 166.000000 0.071552 169.000000 0.052587
115301.000000 2.287789 335.000000 292.000000 187.000000 0.083007 211.000000 0.319812 250.000000 0.005296 271.000000 0.021585 18.000000 -0.054686 173.000000 0.058995 192.000000 0.094278
116211.000000 2.244390 286.000000 332.000000 208.000000 0.037540 258.000000 0.181002 284.000000 0.013667 314.000000 0.005784 16.000000 -0.028665 168.000000 0.105910 188.000000 0.073748
116543.000000 2.021850 332.000000 577.000000 468.000000 -0.056580 506.000000 0.173873 520.000000 0.068764 559.000000 0.017774 16.000000 0.008118 192.000000 0.139641 201.000000 0.117414
117120.000000 2.156490 577.000000 295.000000 174.000000 0.102021 219.000000 0.285471 258.000000 -0.014499 273.000000 0.005002 17.000000 -0.087755 175.000000 0.107193 219.000000 0.285471
117415.000000 2.124937 295.000000 288.000000 222.000000 0.069483 242.000000 0.146176 250.000000 0.059138 271.000000 0.086050 21.000000 -0.099704 171.000000 0.079046 178.000000 0.087039
117703.000000 2.193337 288.000000 295.000000 186.000000 0.043010 234.000000 0.133889 249.000000 0.053589 283.000000 -0.021192 16.000000 0.022255 172.000000 0.057712 186.000000 0.043010
117998.000000 2.162744 295.000000 259.000000 166.000000 0.037962 204.000000 0.166193 214.000000 0.144987 237.000000 0.076521 4.000000 1.690096 139.000000 -0.001754 154.000000 -0.018165
118257.000000 2.271003 259.000000 276.000000 165.000000 0.081632 220.000000 0.152792 236.000000 0.096241 250.000000 0.045065 19.000000 -0.026287 164.000000 0.092227 170.000000 0.090471
118533.000000 2.071616 276.000000 232.000000 144.000000 -0.026207 183.000000 0.182790 193.000000 0.151520 208.000000 0.115392 22.000000 -0.062866 132.000000 -0.012743 145.000000 -0.020251
118765.000000 2.242524 232.000000 298.000000 250.000000 0.086567 276.000000 0.093635 272.000000 0.071488 279.000000 0.072380 23.000000 0.017977 177.000000 0.025331 191.000000 0.070269
119063.000000 2.231441 298.000000 299.000000 227.000000 0.012120 253.000000 0.074266 264.000000 0.015973 281.000000 0.021002 15.000000 0.016191 169.000000 0.060047 189.000000 0.035127
119934.000000 1.878760 278.000000 234.000000 146.000000 -0.022776 187.000000 0.199591 200.000000 0.165812 213.000000 0.132332 16.000000 -0.005112 128.000000 0.001928 141.000000 -0.012306
120168.000000 2.020717 234.000000 287.000000 228.000000 0.059737 252.000000 0.150316 256.000000 0.097902 267.000000 0.071303 17.000000 0.032739 24.000000 0.010183 35.000000 -0.091949
120455.000000 2.016508 287.000000 276.000000 203.000000 0.097272 230.000000 0.184216 240.000000 0.124749 253.000000 0.099750 19.000000 -0.019479 164.000000 0.064887 170.000000 0.097129
120966.000000 2.308339 235.000000 312.000000 239.000000 0.028605 276.000000 0.094638 280.000000 0.084968 289.000000 0.056237 18.000000 -0.064857 186.000000 0.057682 208.000000 0.068922
121598.000000 2.382476 320.000000 252.000000 191.000000 0.106692 216.000000 0.131849 221.000000 0.088934 231.000000 0.124608 19.000000 -0.059232 146.000000 -0.057994 173.000000 0.086316
121850.000000 2.481837 252.000000 326.000000 247.000000 0.004577 288.000000 0.076992 294.000000 0.057055 306.000000 0.034531 19.000000 -0.055107 167.000000 0.082239 186.000000 0.045201
122809.000000 2.269543 323.000000 192.000000 146.000000 0.056693 171.000000 0.537038 179.000000 1.228746 186.000000 2.053214 21.000000 -0.131492 20.000000 -0.117761 42.000000 -0.322086
123279.000000 2.365707 278.000000 345.000000 289.000000 -0.029717 324.000000 0.093747 313.000000 0.052149 320.000000 0.048465 15.000000 0.018009 165.000000 0.143020 175.000000 0.116328
123624.000000 2.358449 345.000000 297.000000 233.000000 0.080204 254.000000 0.105516 268.000000 0.068070 276.000000 0.054748 18.000000 -0.048653 170.000000 0.060662 188.000000 0.060127
125273.000000 2.230484 300.000000 264.000000 216.000000 0.133072 239.000000 0.160360 237.000000 0.137742 244.000000 0.123966 19.000000 -0.054919 157.000000 0.048777 171.000000 0.122852
125537.000000 2.176412 264.000000 322.000000 274.000000 0.040817 299.000000 0.131614 291.000000 0.074154 298.000000 0.121254 17.000000 -0.085372 160.000000 0.094214 179.000000 0.062412
126099.000000 2.265329 240.000000 242.000000 165.000000 0.068732 205.000000 0.173293 218.000000 0.139545 224.000000 0.112852 17.000000 -0.043024 144.000000 0.004138 165.000000 0.068732
126341.000000 2.149575 242.000000 241.000000 168.000000 0.089231 191.000000 0.194827 199.000000 0.140345 224.000000 0.119844 18.000000 0.000906 22.000000 -0.015786 37.000000 -0.116663
126582.000000 2.071788 241.000000 226.000000 49.000000 -0.151582 154.000000 0.173103 166.000000 0.128666 203.000000 0.172113 15.000000 0.009202 133.000000 0.007020 153.000000 0.168323
126808.000000 1.995811 226.000000 237.000000 183.000000 0.129088 204.000000 0.194953 206.000000 0.175658 216.000000 0.192037 17.000000 -0.000848 141.000000 0.031016 162.000000 0.073054
127045.000000 2.108306 237.000000 306.000000 201.000000 0.042633 269.000000 0.100986 270.000000 0.091377 291.000000 0.008148 17.000000 -0.000094 138.000000 0.075080 160.000000 0.018904
127351.000000 2.209482 306.000000 282.000000 152.000000 0.012118 190.000000 0.146752 214.000000 0.115514 263.000000 0.072148 15.000000 0.005814 166.000000 0.066411 186.000000 0.124731
128110.000000 2.386814 265.000000 269.000000 202.000000 0.074315 247.000000 0.134923 241.000000 0.096679 248.000000 0.127823 21.000000 -0.103622 160.000000 0.007636 186.000000 0.117025
128645.000000 2.449420 266.000000 239.000000 131.000000 -0.084217 169.000000 0.151021 170.000000 0.146194 219.000000 0.107918 17.000000 -0.084876 131.000000 -0.084217 170.000000 0.146194
128884.000000 2.413700 239.000000 276.000000 179.000000 0.107616 205.000000 0.141018 221.000000 0.089609 253.000000 0.124516 17.000000 -0.015502 164.000000 0.011377 179.000000 0.107616
129160.000000 2.199298 276.000000 338.000000 162.000000 0.143260 205.000000 0.102666 218.000000 0.083729 318.000000 0.075655 20.000000 -0.052268 172.000000 0.176147 203.000000 0.086741
129498.000000 2.227522 338.000000 282.000000 170.000000 0.069438 205.000000 0.105408 228.000000 0.100264 261.000000 0.059199 23.000000 -0.085736 168.000000 0.072417 170.000000 0.069438
129780.000000 2.288607 282.000000 287.000000 194.000000 0.084095 222.000000 0.142839 232.000000 0.109736 269.000000 0.140093 18.000000 -0.052802 166.000000 0.059971 194.000000 0.084095
130067.000000 2.323995 287.000000 271.000000 214.000000 0.107273 247.000000 0.126377 246.000000 0.117693 253.000000 0.049072 14.000000 -0.100362 161.000000 0.044312 165.000000 0.068999
130338.000000 2.374136 271.000000 288.000000 215.000000 0.031693 240.000000 0.124529 249.000000 0.106974 271.000000 0.023825 16.000000 -0.022699 170.000000 0.100471 179.000000 0.075532
130956.000000 2.378808 330.000000 273.000000 54.000000 -0.194657 173.000000 0.149797 200.000000 0.073668 251.000000 0.130672 18.000000 -0.048308 162.000000 0.015990 173.000000 0.149797
131229.000000 2.358087 273.000000 333.000000 274.000000 0.009277 298.000000 0.102865 301.000000 0.072379 314.000000 0.040625 16.000000 -0.043385 165.000000 0.121834 168.000000 0.104217
131562.000000 2.415750 333.000000 296.000000 125.000000 -0.018415 181.000000 0.137506 221.000000 -0.042854 275.000000 0.039277 18.000000 -0.051162 176.000000 0.120562 180.000000 0.137146
131858.000000 2.382884 296.000000 247.000000 179.000000 0.037945 210.000000 0.166453 216.000000 0.122441 230.000000 0.139558 19.000000 -0.072446 137.000000 -0.038712 150.000000 -0.049198
132105.000000 2.357393 247.000000 230.000000 169.000000 0.087289 204.000000 0.145222 205.000000 0.139924 211.000000 0.162698 17.000000 -0.013566 22.000000 -0.005666 33.000000 -0.112217
132629.000000 2.186142 294.000000 367.000000 309.000000 -0.037587 340.000000 0.128494 346.000000 0.108399 353.000000 -0.012352 18.000000 -0.046614 168.000000 0.157907 185.000000 0.141685
132996.000000 2.212208 367.000000 228.000000 43.000000 -0.097507 165.000000 0.177129 167.000000 0.160373 213.000000 0.145687 8.000000 0.124419 22.000000 -0.080332 28.000000 -0.132745
133549.000000 2.244119 325.000000 271.000000 200.000000 0.101757 223.000000 0.182509 232.000000 0.147352 254.000000 0.081677 15.000000 -0.041665 161.000000 0.088171 165.000000 0.089300
133820.000000 2.208841 271.000000 255.000000 180.000000 0.138606 215.000000 0.166818 217.000000 0.166677 235.000000 0.136379 17.000000 -0.055329 149.000000 0.005689 169.000000 0.147024
134306.000000 2.296769 231.000000 212.000000 66.000000 -0.417026 191.000000 1.383264 167.000000 0.202448 174.000000 0.346649 17.000000 -0.022840 126.000000 -0.030611 204.000000 1.917524
134948.000000 2.290834 430.000000 223.000000 170.000000 0.119780 202.000000 0.202822 199.000000 0.179532 206.000000 0.200314 17.000000 -0.031972 132.000000 0.053715 135.000000 0.066896
135171.000000 2.293622 223.000000 272.000000 197.000000 0.039171 225.000000 0.145785 243.000000 0.110300 254.000000 0.104782 15.000000 0.043591 162.000000 0.113385 164.000000 0.111504
135443.000000 2.254672 272.000000 308.000000 251.000000 0.004044 276.000000 0.118384 277.000000 0.098479 287.000000 0.099890 17.000000 -0.032084 143.000000 0.144686 168.000000 0.090767
136735.000000 2.379141 232.000000 266.000000 206.000000 0.130126 244.000000 0.173654 251.000000 0.106632 258.000000 0.548999 15.000000 0.062683 158.000000 -0.001615 185.000000 0.126363
137304.000000 2.269578 303.000000 304.000000 250.000000 0.062616 282.000000 0.112522 278.000000 0.076566 285.000000 0.109450 18.000000 -0.116660 166.000000 0.075765 179.000000 0.057160
137608.000000 2.107729 304.000000 226.000000 169.000000 0.224327 205.000000 1.312194 197.000000 0.677665 204.000000 1.182414 18.000000 -0.031692 34.000000 -0.018024 169.000000 0.224327
137834.000000 2.005858 226.000000 279.000000 194.000000 0.170516 225.000000 0.193211 226.000000 0.176063 258.000000 0.111471 16.000000 -0.056396 166.000000 0.177242 176.000000 0.171490
138113.000000 2.035169 279.000000 263.000000 176.000000 0.090319 221.000000 0.175457 232.000000 0.120895 244.000000 0.106285 20.000000 -0.090314 149.000000 0.014629 176.000000 0.090319
138376.000000 1.988416 263.000000 299.000000 164.000000 0.103026 185.000000 0.099342 199.000000 0.061801 280.000000 0.025922 20.000000 -0.078715 163.000000 0.103276 166.000000 0.098731
138675.000000 2.094420 299.000000 263.000000 148.000000 0.004385 179.000000 0.132744 199.000000 0.129689 243.000000 0.102918 17.000000 -0.042398 150.000000 0.026877 174.000000 0.116976
138938.000000 2.214077 263.000000 250.000000 188.000000 0.103074 214.000000 0.130331 218.000000 0.104328 228.000000 0.110129 17.000000 -0.068760 23.000000 -0.013399 36.000000 -0.108023
139188.000000 2.311209 250.000000 279.000000 168.000000 0.123024 215.000000 0.138621 227.000000 0.132916 258.000000 -0.015624 20.000000 -0.110561 166.000000 0.116253 168.000000 0.123024
140341.000000 2.366099 290.000000 333.000000 194.000000 0.062807 227.000000 0.091065 263.000000 0.013762 313.000000 0.053854 17.000000 -0.070862 168.000000 0.137322 198.000000 0.049280
141180.000000 2.258742 303.000000 311.000000 253.000000 0.026960 278.000000 0.098355 278.000000 0.098355 285.000000 0.066882 18.000000 -0.087122 167.000000 0.094892 168.000000 0.089735
141747.000000 2.325333 256.000000 353.000000 296.000000 0.010453 332.000000 0.135409 327.000000 0.096443 334.000000 0.131851 21.000000 -0.041734 166.000000 0.166680 169.000000 0.157604
142599.000000 2.439434 264.000000 236.000000 192.000000 0.108275 213.000000 0.166569 211.000000 0.153058 218.000000 0.143294 18.000000 -0.068152 140.000000 -0.044110 166.000000 0.099888
142835.000000 2.439141 236.000000 349.000000 300.000000 0.014514 327.000000 0.066240 322.000000 0.045925 329.000000 0.071600 17.000000 -0.040294 169.000000 0.162607 207.000000 -0.015578
143184.000000 2.376977 349.000000 254.000000 138.000000 -0.099904 180.000000 0.126993 195.000000 0.087070 237.000000 0.034542 18.000000 -0.036725 24.000000 -0.034234 35.000000 -0.137573
143438.000000 2.349604 254.000000 217.000000 165.000000 0.061158 191.000000 0.090720 191.000000 0.090720 198.000000 0.032819 18.000000 -0.125145 121.000000 -0.123526 144.000000 -0.041819
144222.000000 1.778120 276.000000 203.000000 152.000000 0.123921 182.000000 1.138484 174.000000 0.538655 181.000000 1.047292 16.000000 0.046208 20.000000 -0.008259 28.000000 -0.069386
144723.000000 2.058792 298.000000 224.000000 174.000000 0.124417 203.000000 0.220551 197.000000 0.158905 204.000000 0.215833 16.000000 -0.042558 131.000000 -0.069955 166.000000 0.141564
144947.000000 2.168278 224.000000 257.000000 167.000000 0.027428 219.000000 0.181645 232.000000 0.129388 239.000000 0.066912 18.000000 -0.086126 149.000000 -0.022055 171.000000 0.046096
145204.000000 2.252573 257.000000 239.000000 192.000000 0.129845 210.000000 0.172306 212.000000 0.165394 220.000000 0.132228 15.000000 0.013155 22.000000 -0.015922 28.000000 -0.080231
145683.000000 2.453575 240.000000 245.000000 170.000000 0.142932 215.000000 0.154418 220.000000 0.115751 227.000000 0.154230 18.000000 -0.043212 24.000000 -0.051112 34.000000 -0.136928
146596.000000 2.373072 311.000000 244.000000 167.000000 0.054924 193.000000 0.172964 208.000000 0.108951 224.000000 0.119029 19.000000 -0.025411 143.000000 -0.009387 146.000000 -0.028729
146840.000000 2.362413 244.000000 235.000000 189.000000 0.132368 212.000000 0.139859 208.000000 0.088292 215.000000 0.112978 20.000000 -0.023309 139.000000 -0.001945 142.000000 0.010846
148347.000000 2.277040 278.000000 461.000000 412.000000 0.010646 436.000000 0.122149 431.000000 0.101335 438.000000 0.105613 20.000000 -0.053556 184.000000 0.113637 204.000000 0.038714
148808.000000 2.063138 461.000000 266.000000 66.000000 -0.187079 176.000000 0.145068 187.000000 0.119706 245.000000 0.140001 23.000000 -0.093163 153.000000 0.050301 183.000000 0.082888
149074.000000 1.902635 266.000000 330.000000 285.000000 0.039111 309.000000 0.093452 305.000000 0.062951 312.000000 0.069095 17.000000 -0.084229 161.000000 0.091971 164.000000 0.087927
149872.000000 2.282416 253.000000 313.000000 144.000000 0.042770 193.000000 0.088747 232.000000 0.005363 292.000000 0.064783 19.000000 -0.099840 182.000000 0.082462 192.000000 0.088668
150185.000000 2.154643 313.000000 288.000000 206.000000 0.071818 227.000000 0.109639 237.000000 0.073322 267.000000 0.071502 21.000000 -0.058008 168.000000 0.049046 208.000000 0.068009
150725.000000 2.449120 252.000000 246.000000 121.000000 -0.062304 179.000000 0.135454 193.000000 0.133009 224.000000 0.107301 19.000000 -0.064234 21.000000 -0.056177 28.000000 -0.125235
151806.000000 2.328747 229.000000 254.000000 162.000000 -0.056865 193.000000 0.205095 206.000000 0.160644 237.000000 0.083341 18.000000 -0.088779 31.000000 -0.018779 47.000000 -0.121521
152060.000000 2.149657 254.000000 226.000000 140.000000 -0.048966 179.000000 0.224388 186.000000 0.198431 208.000000 0.168901 14.000000 0.088717 21.000000 0.026491 56.000000 -0.202518
152286.000000 2.300032 226.000000 269.000000 142.000000 -0.052087 204.000000 0.159576 216.000000 0.142225 252.000000 -0.011817 15.000000 -0.020909 32.000000 -0.022179 43.000000 -0.122867
152779.000000 2.492667 224.000000 273.000000 161.000000 -0.047366 205.000000 0.168937 215.000000 0.152009 251.000000 0.021758 17.000000 -0.061955 35.000000 -0.017928 46.000000 -0.109494
153576.000000 2.341097 309.000000 287.000000 168.000000 0.050693 214.000000 0.167604 219.000000 0.142117 264.000000 0.009921 20.000000 -0.174702 164.000000 0.057104 173.000000 0.050677
153863.000000 2.307569 287.000000 229.000000 136.000000 -0.085581 176.000000 0.203730 193.000000 0.139999 207.000000 0.136145 18.000000 0.017742 21.000000 0.012146 38.000000 -0.130157
154092.000000 2.337385 229.000000 307.000000 233.000000 0.015330 270.000000 0.152369 273.000000 0.128404 284.000000 0.123389 19.000000 -0.081551 183.000000 0.031993 192.000000 0.078858
154399.000000 2.308422 307.000000 270.000000 166.000000 0.038338 204.000000 0.171191 206.000000 0.159560 250.000000 0.069777 19.000000 -0.157175 159.000000 -0.001585 168.000000 0.033165
157003.000000 2.183656 289.000000 286.000000 216.000000 0.123919 233.000000 0.130863 248.000000 0.088495 268.000000 0.053636 12.000000 -0.046112 166.000000 0.112288 182.000000 0.067383
157289.000000 2.156036 286.000000 313.000000 225.000000 0.103530 243.000000 0.109296 247.000000 0.063654 294.000000 0.040348 17.000000 0.010566 169.000000 0.067684 225.000000 0.103530
157602.000000 2.173419 313.000000 300.000000 210.000000 0.073778 230.000000 0.113731 242.000000 0.072760 280.000000 0.087272 20.000000 -0.080342 172.000000 0.069574 213.000000 0.075973
157902.000000 2.193229 300.000000 289.000000 201.000000 0.090770 219.000000 0.120173 230.000000 0.077178 273.000000 0.091806 17.000000 -0.079528 170.000000 0.039328 183.000000 0.029906
158487.000000 2.244076 296.000000 307.000000 258.000000 0.057038 285.000000 0.110768 280.000000 0.058136 287.000000 0.105093 18.000000 -0.009609 162.000000 0.042063 177.000000 0.007895
158794.000000 2.345972 307.000000 239.000000 168.000000 0.028998 217.000000 0.160331 213.000000 0.094798 220.000000 0.141993 14.000000 0.006080 142.000000 0.004388 144.000000 -0.009388
159033.000000 2.294062 239.000000 310.000000 198.000000 0.037962 253.000000 0.139108 269.000000 0.114748 287.000000 0.092009 17.000000 -0.075593 178.000000 0.090642 204.000000 0.044748
159640.000000 2.093996 297.000000 307.000000 228.000000 0.068760 246.000000 0.129841 254.000000 0.078337 285.000000 0.045908 19.000000 -0.101302 172.000000 0.121174 173.000000 0.121080
160229.000000 2.049011 282.000000 293.000000 233.000000 0.038906 256.000000 0.149500 269.000000 0.104672 275.000000 0.089280 19.000000 -0.035972 170.000000 0.092429 173.000000 0.084733
160522.000000 2.123370 293.000000 249.000000 202.000000 0.128809 227.000000 0.168272 225.000000 0.158869 232.000000 0.141456 17.000000 -0.069406 133.000000 -0.014686 143.000000 -0.022523
162154.000000 2.258920 303.000000 293.000000 225.000000 0.067556 244.000000 0.144201 265.000000 0.120063 276.000000 0.090549 19.000000 -0.163886 171.000000 0.096423 174.000000 0.065999
162447.000000 1.929656 293.000000 291.000000 125.000000 -0.011991 189.000000 0.173275 190.000000 0.158556 273.000000 0.122411 17.000000 0.031911 172.000000 0.146961 190.000000 0.158556
162738.000000 1.728854 291.000000 320.000000 245.000000 0.084577 266.000000 0.085534 281.000000 0.046238 305.000000 0.036632 19.000000 -0.029704 188.000000 0.097933 192.000000 0.076929
163058.000000 1.788387 320.000000 266.000000 174.000000 0.063700 213.000000 0.168808 232.000000 0.123526 246.000000 0.094322 16.000000 0.056208 158.000000 0.089702 166.000000 0.079905
163324.000000 1.915701 266.000000 308.000000 168.000000 0.066461 187.000000 0.106037 188.000000 0.096978 288.000000 0.028636 15.000000 0.073822 166.000000 0.078421 170.000000 0.042982
163632.000000 2.046032 308.000000 462.000000 420.000000 0.044672 441.000000 0.101159 433.000000 0.065063 440.000000 0.086175 18.000000 -0.057919 174.000000 0.191823 206.000000 0.058966
164338.000000 2.365873 244.000000 401.000000 273.000000 -0.055377 338.000000 0.075643 356.000000 0.021600 381.000000 0.063935 20.000000 -0.074800 195.000000 0.144093 196.000000 0.133607
164739.000000 2.340079 401.000000 326.000000 213.000000 0.084687 234.000000 0.094639 236.000000 0.093950 303.000000 0.057069 20.000000 -0.023149 163.000000 0.158229 184.000000 0.055360
165518.000000 2.385754 453.000000 288.000000 126.000000 -0.081925 176.000000 0.108792 188.000000 0.101410 266.000000 0.066598 16.000000 -0.009326 168.000000 0.111662 181.000000 0.082428
165806.000000 2.156252 288.000000 324.000000 177.000000 0.076855 195.000000 0.093860 251.000000 0.077427 306.000000 0.054606 17.000000 -0.073982 193.000000 0.110050 251.000000 0.077427
166130.000000 2.257085 324.000000 245.000000 189.000000 0.066553 219.000000 0.147697 220.000000 0.141287 227.000000 0.089594 19.000000 0.013810 22.000000 0.018669 40.000000 -0.159498
166375.000000 2.238574 245.000000 277.000000 177.000000 0.054670 212.000000 0.170110 236.000000 0.106977 261.000000 0.132543 16.000000 -0.011537 165.000000 0.026173 177.000000 0.054670
166966.000000 1.890157 314.000000 281.000000 230.000000 0.071318 254.000000 0.151318 257.000000 0.123684 264.000000 0.066522 14.000000 0.019060 167.000000 0.043202 198.000000 0.140725
167247.000000 1.997978 281.000000 313.000000 141.000000 0.092838 193.000000 0.115568 196.000000 0.108624 293.000000 0.079227 16.000000 -0.029827 141.000000 0.092838 196.000000 0.108624
167560.000000 2.176922 313.000000 288.000000 148.000000 -0.119153 198.000000 0.141804 199.000000 0.138121 264.000000 0.082303 18.000000 -0.036854 167.000000 0.032667 183.000000 0.112071
168152.000000 2.285580 304.000000 297.000000 213.000000 -0.025425 245.000000 0.110690 252.000000 0.027400 275.000000 0.046523 16.000000 -0.004874 170.000000 0.059592 186.000000 0.096126
168449.000000 2.264642 297.000000 408.000000 192.000000 0.210050 247.000000 0.095487 269.000000 -0.006425 391.000000 0.105537 19.000000 -0.009309 190.000000 0.222087 192.000000 0.210050
168857.000000 2.199955 408.000000 217.000000 154.000000 0.068467 190.000000 0.185691 190.000000 0.185691 197.000000 0.181050 18.000000 -0.028462 21.000000 -0.032255 47.000000 -0.175924
169074.000000 2.326488 217.000000 246.000000 193.000000 0.055644 224.000000 0.162290 217.000000 0.111366 224.000000 0.162290 18.000000 0.020108 20.000000 -0.000659 47.000000 -0.198748
170165.000000 2.509374 289.000000 284.000000 213.000000 0.086724 235.000000 0.136443 240.000000 0.091254 258.000000 0.047495 21.000000 -0.074809 164.000000 0.038040 176.000000 0.032710
170739.000000 2.574563 290.000000 299.000000 221.000000 0.040142 243.000000 0.111881 247.000000 0.056942 277.000000 0.023587 18.000000 -0.061990 168.000000 0.076789 171.000000 0.045535
171583.000000 2.333213 258.000000 326.000000 259.000000 0.092255 278.000000 0.125985 293.000000 0.066659 310.000000 0.072990 17.000000 -0.085691 188.000000 0.151972 208.000000 0.103068
171909.000000 1.891581 326.000000 304.000000 221.000000 0.100782 242.000000 0.119984 264.000000 0.051191 286.000000 0.061410 16.000000 0.031127 171.000000 0.146536 174.000000 0.145940
172213.000000 1.937428 304.000000 254.000000 194.000000 0.031378 232.000000 0.142619 220.000000 0.066989 227.000000 0.057210 18.000000 -0.035737 144.000000 0.013700 164.000000 0.012225
172467.000000 2.023045 254.000000 390.000000 326.000000 0.086457 346.000000 0.108385 356.000000 0.079937 374.000000 0.097540 22.000000 -0.093241 181.000000 0.164033 185.000000 0.160114
172857.000000 1.765002 390.000000 311.000000 228.000000 0.110328 247.000000 0.127225 273.000000 0.041224 286.000000 0.023777 15.000000 0.081350 174.000000 0.152758 177.000000 0.133699
173168.000000 1.881207 311.000000 245.000000 189.000000 0.095458 212.000000 0.183685 214.000000 0.165550 223.000000 0.107635 22.000000 -0.062960 138.000000 -0.009214 140.000000 -0.014481
173413.000000 2.088154 245.000000 226.000000 172.000000 0.079041 195.000000 0.208497 197.000000 0.189013 205.000000 0.125942 19.000000 -0.090969 134.000000 -0.023904 136.000000 -0.005079
173994.000000 2.401162 355.000000 263.000000 181.000000 0.065376 214.000000 0.145468 215.000000 0.144731 243.000000 0.066894 8.000000 0.008984 143.000000 0.022758 197.000000 0.126081
174811.000000 2.183716 231.000000 248.000000 186.000000 0.162916 203.000000 0.168763 211.000000 0.142665 230.000000 0.128618 17.000000 -0.009998 129.000000 0.019716 186.000000 0.162916
175059.000000 2.212034 248.000000 323.000000 265.000000 -0.002333 302.000000 0.125144 290.000000 0.038546 297.000000 0.037667 16.000000 0.056392 160.000000 0.126678 178.000000 0.083324
175382.000000 2.383059 323.000000 288.000000 198.000000 0.093431 219.000000 0.120939 234.000000 0.091677 269.000000 0.111225 16.000000 -0.027928 170.000000 0.023823 185.000000 0.037349
175968.000000 2.528214 298.000000 294.000000 205.000000 0.083261 223.000000 0.118841 228.000000 0.083888 278.000000 0.125220 20.000000 -0.088590 175.000000 0.046082 187.000000 0.049860
177681.000000 2.547355 347.000000 299.000000 130.000000 -0.001253 180.000000 0.116190 198.000000 0.072131 282.000000 0.041124 16.000000 -0.058147 177.000000 0.142382 198.000000 0.072131
177980.000000 2.552880 299.000000 219.000000 167.000000 0.223088 198.000000 1.688433 197.000000 1.553746 204.000000 2.121129 16.000000 -0.048812 22.000000 -0.039924 38.000000 -0.155974
178476.000000 2.453670 277.000000 325.000000 262.000000 0.066178 282.000000 0.100504 288.000000 0.075817 306.000000 0.073858 18.000000 -0.054463 192.000000 0.082730 213.000000 0.071241
178801.000000 2.446741 325.000000 304.000000 199.000000 0.045615 246.000000 0.144372 257.000000 0.067303 282.000000 0.035688 19.000000 -0.049921 175.000000 0.155128 199.000000 0.045615
179105.000000 2.443350 304.000000 297.000000 209.000000 0.058556 229.000000 0.090294 232.000000 0.063319 276.000000 0.013633 18.000000 -0.025818 160.000000 0.035003 169.000000 0.024956
179663.000000 2.203744 261.000000 318.000000 184.000000 0.091640 238.000000 0.097678 260.000000 0.089969 301.000000 0.029798 22.000000 -0.008201 164.000000 0.108583 166.000000 0.107485
180837.000000 2.152071 301.000000 328.000000 275.000000 0.063687 307.000000 0.112308 299.000000 0.079471 306.000000 0.097589 16.000000 0.033072 165.000000 0.170484 167.000000 0.163164
181165.000000 1.805550 328.000000 271.000000 201.000000 0.164276 223.000000 0.177193 233.000000 0.132617 253.000000 0.085284 17.000000 -0.005250 161.000000 0.072990 167.000000 0.082520
181436.000000 2.000534 271.000000 299.000000 167.000000 0.039402 216.000000 0.110565 217.000000 0.086537 279.000000 0.064829 16.000000 0.030080 165.000000 0.048337 179.000000 0.014356
182017.000000 2.165844 282.000000 300.000000 224.000000 0.131898 246.000000 0.135407 265.000000 0.059577 280.000000 0.044685 17.000000 -0.006711 169.000000 0.113216 199.000000 0.030691
182317.000000 2.217695 300.000000 231.000000 39.000000 -0.173619 168.000000 0.160186 177.000000 0.126645 212.000000 0.117337 15.000000 0.052976 21.000000 -0.024579 39.000000 -0.173619
182548.000000 2.255488 231.000000 283.000000 174.000000 0.056584 212.000000 0.154123 229.000000 0.140268 266.000000 0.036788 18.000000 0.014298 163.000000 0.064109 174.000000 0.056584
182831.000000 2.084469 283.000000 372.000000 324.000000 0.042747 349.000000 0.076838 348.000000 0.060882 355.000000 0.080630 16.000000 0.026899 163.000000 0.183264 164.000000 0.178405
183203.000000 2.175144 372.000000 595.000000 551.000000 0.027866 574.000000 0.058777 571.000000 0.019937 578.000000 0.047555 14.000000 0.053717 166.000000 0.177511 216.000000 0.146299
184093.000000 2.242648 295.000000 296.000000 249.000000 0.075205 275.000000 0.142976 265.000000 0.052820 272.000000 0.111503 14.000000 0.027491 128.000000 0.042085 164.000000 0.005408
184676.000000 2.312178 287.000000 267.000000 207.000000 0.057588 231.000000 0.156163 243.000000 0.110803 248.000000 0.133326 18.000000 -0.039122 159.000000 0.059418 178.000000 0.064858
184943.000000 2.352182 267.000000 275.000000 230.000000 0.027901 253.000000 0.114858 250.000000 0.080752 257.000000 0.081880 21.000000 -0.078853 164.000000 -0.000327 180.000000 0.105252
185218.000000 2.345331 275.000000 277.000000 50.000000 -0.144167 194.000000 0.125642 213.000000 0.093071 260.000000 0.084998 17.000000 -0.028136 165.000000 0.011773 193.000000 0.120486
185495.000000 2.222444 277.000000 304.000000 260.000000 0.019780 283.000000 0.102774 278.000000 0.058354 285.000000 0.112664 18.000000 -0.055187 135.000000 0.059437 159.000000 0.010596
186742.000000 2.449516 233.000000 216.000000 169.000000 0.083481 193.000000 0.112556 188.000000 0.055064 195.000000 0.096506 17.000000 0.032245 20.000000 -0.013272 34.000000 -0.123851
186958.000000 2.433559 216.000000 292.000000 215.000000 0.061973 241.000000 0.095751 254.000000 0.066881 272.000000 0.016693 19.000000 0.002948 169.000000 0.076188 173.000000 0.061484
187250.000000 2.373338 292.000000 284.000000 178.000000 0.094925 239.000000 0.133119 248.000000 0.086004 262.000000 0.065392 18.000000 -0.013590 169.000000 0.121069 178.000000 0.094925
187796.000000 2.387649 262.000000 262.000000 183.000000 0.102869 207.000000 0.113025 219.000000 0.089545 240.000000 0.056660 19.000000 -0.123495 125.000000 -0.058713 142.000000 -0.107694
188058.000000 2.265408 262.000000 247.000000 190.000000 0.090169 221.000000 0.203445 221.000000 0.203445 228.000000 0.124573 18.000000 -0.052084 147.000000 0.040013 166.000000 0.092614
188305.000000 2.298318 247.000000 253.000000 48.000000 -0.076320 191.000000 0.178135 193.000000 0.166819 235.000000 0.076172 16.000000 0.023633 142.000000 0.007259 193.000000 0.166819
188558.000000 2.241879 253.000000 202.000000 69.000000 -0.467039 181.000000 1.427934 139.000000 0.031505 146.000000 0.063825 19.000000 -0.045972 20.000000 -0.064233 37.000000 -0.206913
189470.000000 2.374185 241.000000 288.000000 193.000000 0.110206 213.000000 0.118795 214.000000 0.104673 268.000000 0.091364 21.000000 -0.110188 168.000000 0.037210 193.000000 0.110206
189758.000000 2.312353 288.000000 266.000000 200.000000 0.119012 219.000000 0.134216 227.000000 0.097760 248.000000 0.058826 18.000000 -0.099812 146.000000 0.020317 168.000000 0.016081
190024.000000 2.276756 266.000000 339.000000 274.000000 -0.014216 313.000000 0.121551 310.000000 0.079857 317.000000 0.113636 16.000000 -0.041066 174.000000 0.185536 223.000000 0.088434
191562.000000 2.402349 435.000000 385.000000 178.000000 0.191601 235.000000 0.078511 255.000000 -0.005486 365.000000 0.023965 20.000000 -0.017149 180.000000 0.196711 231.000000 0.018025
192238.000000 2.409156 291.000000 306.000000 202.000000 -0.022149 243.000000 0.098383 254.000000 0.058272 287.000000 0.011974 19.000000 -0.086925 172.000000 0.100551 202.000000 -0.022149
192544.000000 2.430252 306.000000 197.000000 149.000000 0.037225 176.000000 0.131193 171.000000 0.086492 178.000000 0.130581 17.000000 -0.064466 22.000000 -0.081331 42.000000 -0.282631
192741.000000 2.503139 197.000000 294.000000 199.000000 -0.021504 246.000000 0.089891 269.000000 0.043151 274.000000 0.014688 19.000000 -0.004870 173.000000 0.067417 203.000000 -0.040751
193035.000000 2.429626 294.000000 289.000000 131.000000 -0.105313 179.000000 0.165345 205.000000 0.068809 268.000000 0.062052 18.000000 -0.095080 166.000000 0.122712 198.000000 0.039324
193324.000000 2.357634 289.000000 264.000000 200.000000 0.110282 237.000000 0.168684 239.000000 0.166254 242.000000 0.127820 27.000000 -0.109622 157.000000 0.009860 174.000000 0.100299
193588.000000 2.292430 264.000000 210.000000 92.000000 -0.720657 189.000000 1.611739 123.000000 -0.054686 130.000000 0.064735 20.000000 -0.137963 124.000000 -0.035720 273.000000 -0.855924
194149.000000 2.362792 351.000000 199.000000 141.000000 0.040063 170.000000 0.146004 179.000000 0.133950 179.000000 0.133950 17.000000 -0.047269 23.000000 -0.113287 42.000000 -0.293084
195192.000000 2.347556 287.000000 206.000000 152.000000 0.099672 185.000000 1.503983 176.000000 0.605440 183.000000 1.229406 16.000000 -0.045046 122.000000 -0.030893 159.000000 0.196365
195762.000000 2.403104 364.000000 302.000000 207.000000 -0.003620 247.000000 0.110724 277.000000 0.008875 285.000000 0.025804 19.000000 -0.100924 170.000000 0.158089 207.000000 -0.003620
196064.000000 2.332965 302.000000 204.000000 151.000000 0.121912 183.000000 1.692116 178.000000 1.031770 185.000000 1.966818 16.000000 0.034766 21.000000 -0.073150 53.000000 -0.423823
196610.000000 2.254484 342.000000 306.000000 235.000000 0.024607 265.000000 0.134010 286.000000 0.022817 290.000000 0.046924 17.000000 -0.073635 172.000000 0.117008 184.000000 0.062430
196916.000000 1.921955 306.000000 312.000000 218.000000 0.035800 237.000000 0.132134 245.000000 0.055176 296.000000 0.039313 17.000000 0.055560 179.000000 0.137554 219.000000 0.035847
197228.000000 1.742448 312.000000 309.000000 194.000000 0.007994 236.000000 0.127103 256.000000 0.040570 293.000000 0.115818 16.000000 0.079360 163.000000 0.109186 177.000000 0.057210
197537.000000 1.828591 309.000000 289.000000 152.000000 -0.051798 215.000000 0.115788 234.000000 0.046729 274.000000 0.059595 15.000000 0.053105 167.000000 0.041868 210.000000 0.060475
197826.000000 1.930143 289.000000 299.000000 182.000000 0.033259 203.000000 0.119654 215.000000 0.033870 282.000000 0.069470 18.000000 -0.067697 166.000000 0.046988 172.000000 0.015153
198125.000000 2.044551 299.000000 219.000000 172.000000 0.089104 196.000000 0.136863 200.000000 0.151957 202.000000 0.191894 14.000000 0.020709 130.000000 -0.017744 173.000000 0.095263
198344.000000 2.214372 219.000000 282.000000 190.000000 0.030091 224.000000 0.111315 233.000000 0.069795 266.000000 0.029501 15.000000 0.076175 165.000000 0.041959 177.000000 0.026299
198626.000000 2.260723 282.000000 283.000000 223.000000 0.033358 243.000000 0.143106 254.000000 0.088151 268.000000 0.047587 14.000000 0.064451 159.000000 0.099826 196.000000 0.077590
198909.000000 2.263402 283.000000 257.000000 205.000000 0.085015 228.000000 0.172256 231.000000 0.135251 238.000000 0.114529 15.000000 -0.009264 153.000000 0.008558 184.000000 0.078747
199400.000000 2.380153 234.000000 344.000000 287.000000 0.039137 321.000000 0.079028 317.000000 0.017225 324.000000 0.067085 17.000000 -0.057826 180.000000 0.110264 195.000000 -0.029891
200089.000000 2.448793 345.000000 262.000000 135.000000 -0.110033 172.000000 0.144983 191.000000 0.034953 240.000000 0.100893 21.000000 -0.096064 153.000000 0.011754 191.000000 0.034953
200636.000000 2.489470 285.000000 289.000000 171.000000 0.031350 202.000000 0.101020 208.000000 0.022713 271.000000 0.082367 16.000000 -0.002834 171.000000 0.031350 208.000000 0.022713
200925.000000 2.469060 289.000000 214.000000 163.000000 0.104088 192.000000 0.141910 187.000000 0.119496 194.000000 0.126111 16.000000 0.008589 21.000000 -0.051552 28.000000 -0.136380
201139.000000 2.564622 214.000000 241.000000 175.000000 0.040549 204.000000 0.162255 218.000000 0.128635 220.000000 0.147710 18.000000 -0.005282 133.000000 -0.006754 175.000000 0.040549
201706.000000 2.554058 326.000000 346.000000 277.000000 -0.061157 319.000000 0.094046 326.000000 0.056428 326.000000 0.056428 15.000000 -0.014892 173.000000 0.167945 201.000000 -0.010078
202374.000000 2.505219 322.000000 298.000000 233.000000 -0.036613 254.000000 0.146067 273.000000 0.073370 278.000000 0.099089 16.000000 -0.005862 171.000000 0.094106 212.000000 -0.004781
203000.000000 2.283278 328.000000 300.000000 147.000000 -0.097492 180.000000 0.210345 223.000000 0.059297 283.000000 0.103260 5.000000 1.377291 177.000000 0.230408 223.000000 0.059297
203300.000000 1.782585 300.000000 285.000000 143.000000 -0.022409 182.000000 0.146806 195.000000 0.090456 268.000000 0.079216 16.000000 0.055611 167.000000 0.104362 175.000000 0.075615
203585.000000 1.766098 285.000000 319.000000 217.000000 0.000785 255.000000 0.068810 267.000000 0.063999 302.000000 0.091146 15.000000 0.041318 182.000000 0.074391 217.000000 0.000785
203904.000000 1.883326 319.000000 286.000000 197.000000 0.051504 235.000000 0.125232 243.000000 0.104181 266.000000 0.052927 16.000000 0.029876 165.000000 0.104434 177.000000 0.108776
204479.000000 2.153483 289.000000 314.000000 208.000000 -0.027244 249.000000 0.097913 268.000000 0.026003 292.000000 0.034156 15.000000 -0.008792 176.000000 0.086707 212.000000 -0.007261
204793.000000 2.246725 314.000000 285.000000 215.000000 -0.010016 235.000000 0.121503 243.000000 0.087113 266.000000 0.061410 22.000000 -0.104794 165.000000 0.019500 190.000000 -0.008780
205078.000000 2.089796 285.000000 279.000000 193.000000 0.096760 228.000000 0.188436 237.000000 0.155207 263.000000 0.087181 17.000000 0.009873 166.000000 0.112040 180.000000 0.111664
205357.000000 1.776835 279.000000 226.000000 100.000000 -0.569358 172.000000 0.195062 181.000000 0.133322 208.000000 0.125031 17.000000 0.050610 21.000000 0.031188 33.000000 -0.050629
205583.000000 1.917886 226.000000 229.000000 99.000000 -0.591756 166.000000 0.144216 177.000000 0.115281 211.000000 0.112900 18.000000 0.066648 20.000000 0.056382 25.000000 -0.004276
205812.000000 2.094576 229.000000 287.000000 142.000000 -0.100110 177.000000 0.155078 185.000000 0.110595 266.000000 0.078280 17.000000 0.050657 171.000000 0.126756 185.000000 0.110595
206099.000000 2.222040 287.000000 330.000000 288.000000 0.009014 309.000000 0.081271 303.000000 0.043606 310.000000 0.071647 18.000000 -0.091144 159.000000 0.131475 186.000000 0.001613
206656.000000 2.483197 227.000000 278.000000 194.000000 -0.035267 232.000000 0.101849 240.000000 0.066363 258.000000 0.056613 21.000000 0.007210 20.000000 0.018730 41.000000 -0.165846
207190.000000 2.155253 256.000000 232.000000 145.000000 -0.014026 170.000000 0.194612 183.000000 0.144204 213.000000 0.137071 16.000000 -0.023399 118.000000 -0.002037 126.000000 -0.043292
207422.000000 2.051946 232.000000 293.000000 194.000000 0.008369 235.000000 0.139262 246.000000 0.091551 273.000000 0.065297 16.000000 0.019624 163.000000 0.090202 178.000000 0.044655
208016.000000 2.293181 301.000000 283.000000 135.000000 -0.066237 194.000000 0.137542 204.000000 0.042886 261.000000 0.091865 18.000000 -0.081100 168.000000 0.053012 204.000000 0.042886
208299.000000 2.396992 283.000000 261.000000 148.000000 -0.047710 212.000000 0.150685 233.000000 0.084245 241.000000 0.065233 19.000000 -0.096050 141.000000 -0.009529 178.000000 0.036393
208560.000000 2.537115 261.000000 211.000000 147.000000 -0.009419 178.000000 0.114265 188.000000 0.089610 188.000000 0.089610 20.000000 -0.035878 20.000000 -0.035878 39.000000 -0.198371
209022.000000 2.542511 251.000000 260.000000 213.000000 0.091238 234.000000 0.189248 242.000000 0.115062 242.000000 0.115062 18.000000 -0.119056 155.000000 -0.020170 171.000000 0.102054
209282.000000 2.300374 260.000000 281.000000 241.000000 0.058134 259.000000 0.149263 256.000000 0.104451 263.000000 0.108714 18.000000 -0.054046 166.000000 0.059873 195.000000 0.053870
209563.000000 2.290251 281.000000 276.000000 140.000000 -0.017130 187.000000 0.135816 199.000000 0.048325 253.000000 0.109309 20.000000 -0.103667 160.000000 0.033887 176.000000 0.042790
209839.000000 2.348965 276.000000 280.000000 230.000000 0.044263 258.000000 0.136270 251.000000 0.062757 258.000000 0.136270 17.000000 -0.079672 167.000000 -0.000377 217.000000 0.070689
211248.000000 2.554608 280.000000 281.000000 148.000000 -0.107399 204.000000 0.112350 222.000000 0.053621 258.000000 0.104405 21.000000 -0.117133 166.000000 0.025989 197.000000 0.025815
212101.000000 2.578459 306.000000 278.000000 147.000000 -0.098918 189.000000 0.134403 197.000000 0.048165 259.000000 0.119168 18.000000 -0.092936 165.000000 0.014434 197.000000 0.048165
212379.000000 2.466503 278.000000 233.000000 145.000000 -0.074168 188.000000 0.175059 208.000000 0.131769 215.000000 0.139684 17.000000 -0.034111 137.000000 -0.034983 148.000000 -0.070627
212947.000000 2.509450 335.000000 297.000000 149.000000 -0.075357 195.000000 0.114988 203.000000 0.011321 279.000000 0.080080 15.000000 -0.008039 174.000000 0.029641 203.000000 0.011321
213244.000000 2.510520 297.000000 287.000000 219.000000 0.022507 246.000000 0.129406 265.000000 0.055016 267.000000 0.052868 20.000000 -0.098932 171.000000 0.020267 187.000000 0.062243
213531.000000 2.502774 287.000000 252.000000 99.000000 -0.589251 180.000000 0.172085 186.000000 0.122023 223.000000 0.110548 21.000000 -0.033153 22.000000 -0.023796 37.000000 -0.140285
213783.000000 2.434423 252.000000 260.000000 151.000000 -0.045928 189.000000 0.153650 196.000000 0.037553 231.000000 0.039184 21.000000 -0.075889 140.000000 0.003039 151.000000 -0.045928
214347.000000 2.454908 304.000000 338.000000 151.000000 -0.025377 203.000000 0.084844 240.000000 -0.015142 319.000000 0.069796 17.000000 -0.103290 183.000000 0.112367 196.000000 0.029045
214685.000000 2.398636 338.000000 272.000000 98.000000 -0.625453 198.000000 0.128151 211.000000 0.094908 253.000000 0.023385 20.000000 -0.077055 162.000000 0.017681 185.000000 0.060863
215248.000000 2.085280 291.000000 294.000000 186.000000 0.069714 227.000000 0.144291 232.000000 0.116705 275.000000 0.109200 17.000000 0.048806 164.000000 0.071501 172.000000 0.039917
215542.000000 2.000956 294.000000 261.000000 149.000000 -0.013791 187.000000 0.145974 203.000000 0.095081 242.000000 0.069813 18.000000 -0.035769 137.000000 0.014925 150.000000 -0.021738
215803.000000 2.078982 261.000000 213.000000 96.000000 -0.651553 165.000000 0.089010 182.000000 0.044324 197.000000 0.081143 17.000000 0.026741 20.000000 -0.014545 34.000000 -0.127368
216016.000000 2.180923 213.000000 237.000000 157.000000 -0.048572 203.000000 0.120644 217.000000 0.075049 223.000000 0.107338 14.000000 0.023620 20.000000 -0.065471 41.000000 -0.235422
216253.000000 1.958356 237.000000 269.000000 146.000000 0.031685 182.000000 0.224204 191.000000 0.139782 254.000000 0.146221 15.000000 0.048794 156.000000 0.067702 191.000000 0.139782
216805.000000 1.594544 283.000000 237.000000 99.000000 -0.618914 201.000000 0.152084 217.000000 0.159026 219.000000 0.141111 15.000000 0.034984 141.000000 0.015190 186.000000 0.103997
217042.000000 1.799809 237.000000 222.000000 128.000000 -0.063277 171.000000 0.162521 181.000000 0.080797 205.000000 0.090044 17.000000 -0.016600 31.000000 -0.031726 42.000000 -0.146397
217264.000000 1.964166 222.000000 258.000000 175.000000 0.115610 226.000000 0.187946 233.000000 0.105217 234.000000 0.099575 17.000000 0.027538 20.000000 0.020831 39.000000 -0.119047
217522.000000 2.076237 258.000000 276.000000 146.000000 -0.057238 196.000000 0.128341 207.000000 0.091083 251.000000 0.112993 20.000000 -0.136648 163.000000 0.039299 189.000000 0.034249
217798.000000 2.233560 276.000000 241.000000 98.000000 -0.693542 195.000000 0.205266 219.000000 0.122474 222.000000 0.116988 18.000000 -0.064906 141.000000 0.016678 214.000000 0.133179
218039.000000 2.392335 241.000000 415.000000 354.000000 -0.038605 388.000000 0.095048 396.000000 0.077354 396.000000 0.077354 19.000000 -0.060658 182.000000 0.140441 218.000000 0.023512
219126.000000 1.948916 358.000000 363.000000 192.000000 0.073339 226.000000 0.072633 265.000000 -0.065547 341.000000 0.032025 18.000000 -0.011506 168.000000 0.117448 192.000000 0.073339
219489.000000 2.171289 363.000000 195.000000 150.000000 0.106584 174.000000 0.569829 165.000000 0.238168 172.000000 0.446616 20.000000 -0.085592 20.000000 -0.085592 50.000000 -0.370592
220048.000000 2.476910 364.000000 202.000000 100.000000 -0.675047 166.000000 0.115565 181.000000 0.114799 183.000000 0.133999 16.000000 -0.008808 21.000000 -0.078385 39.000000 -0.223698
220250.000000 2.624437 202.000000 269.000000 205.000000 0.070360 243.000000 0.102476 244.000000 0.100673 251.000000 0.106738 18.000000 -0.016283 159.000000 -0.004972 185.000000 -0.002526
220519.000000 2.589527 269.000000 296.000000 209.000000 0.039923 249.000000 0.098024 273.000000 0.044982 279.000000 0.033369 17.000000 -0.067417 176.000000 0.085536 209.000000 0.039923
221060.000000 2.575456 245.000000 216.000000 132.000000 -0.097462 195.000000 1.727725 192.000000 1.305861 199.000000 2.153336 17.000000 -0.068839 22.000000 -0.062819 95.000000 -0.681223
221531.000000 2.372728 255.000000 275.000000 142.000000 -0.128338 172.000000 0.131441 179.000000 0.093885 254.000000 0.014183 16.000000 -0.003697 162.000000 0.126050 174.000000 0.118698
222062.000000 2.482867 256.000000 280.000000 215.000000 0.018340 243.000000 0.136599 255.000000 0.126708 260.000000 0.092412 15.000000 -0.042589 167.000000 0.089644 182.000000 0.070646
222589.000000 2.416600 247.000000 261.000000 174.000000 0.103509 195.000000 0.157069 212.000000 0.045078 239.000000 0.094890 18.000000 -0.050155 136.000000 -0.012370 154.000000 -0.122604
222850.000000 2.429313 261.000000 226.000000 168.000000 0.063904 198.000000 0.159407 205.000000 0.135049 208.000000 0.149328 18.000000 -0.050782 134.000000 -0.036034 153.000000 0.033902
223364.000000 2.514860 288.000000 201.000000 143.000000 0.030987 180.000000 1.725562 149.000000 0.021253 156.000000 0.123071 19.000000 -0.118197 119.000000 -0.103370 147.000000 0.019968
223856.000000 2.371315 291.000000 316.000000 152.000000 0.062634 190.000000 0.121645 222.000000 -0.020391 298.000000 0.108244 17.000000 -0.002777 176.000000 0.136802 222.000000 -0.020391
224709.000000 2.277319 298.000000 269.000000 134.000000 -0.073214 176.000000 0.179607 191.000000 0.120203 248.000000 0.106741 17.000000 0.018244 160.000000 0.049609 191.000000 0.120203
224978.000000 2.228781 269.000000 297.000000 227.000000 -0.010378 243.000000 0.106332 252.000000 0.070596 281.000000 0.025092 22.000000 -0.026421 170.000000 0.031096 175.000000 -0.008606
225482.000000 2.453794 207.000000 296.000000 208.000000 0.030219 245.000000 0.095752 260.000000 -0.020361 279.000000 0.064983 19.000000 0.013168 176.000000 0.006302 208.000000 0.030219
225778.000000 2.477648 296.000000 287.000000 217.000000 0.018107 236.000000 0.139739 259.000000 0.099520 264.000000 0.059050 16.000000 -0.027791 162.000000 0.029798 217.000000 0.018107
226065.000000 2.457402 287.000000 223.000000 131.000000 -0.100282 166.000000 0.152006 174.000000 0.128290 203.000000 0.092961 18.000000 -0.069541 23.000000 -0.068476 38.000000 -0.190654
227079.000000 2.474291 263.000000 295.000000 152.000000 -0.086177 183.000000 0.102729 210.000000 -0.050502 277.000000 0.015472 17.000000 -0.014125 173.000000 0.100018 178.000000 0.074547
227965.000000 2.368605 308.000000 266.000000 177.000000 0.012522 196.000000 0.147866 204.000000 0.106143 248.000000 0.134578 21.000000 -0.068965 158.000000 0.005751 178.000000 0.002820
228452.000000 2.360630 221.000000 276.000000 165.000000 0.024106 204.000000 0.121694 221.000000 0.056833 259.000000 0.057286 18.000000 -0.067321 154.000000 0.030158 165.000000 0.024106
228993.000000 2.294923 265.000000 275.000000 177.000000 0.059949 204.000000 0.101437 219.000000 0.057347 255.000000 0.079730 9.000000 -0.194906 164.000000 0.033616 177.000000 0.059949
229268.000000 2.273212 275.000000 206.000000 141.000000 0.047290 185.000000 1.598087 148.000000 0.066020 155.000000 0.125127 15.000000 -0.032384 121.000000 -0.037240 141.000000 0.047290
229739.000000 2.272646 265.000000 263.000000 176.000000 0.086174 199.000000 0.125064 210.000000 0.059453 258.000000 1.329658 17.000000 -0.077827 140.000000 -0.010756 151.000000 -0.031665
230241.000000 2.282493 239.000000 278.000000 195.000000 -0.026454 227.000000 0.084738 236.000000 0.074518 258.000000 -0.019918 15.000000 0.024343 165.000000 0.078907 195.000000 -0.026454
230519.000000 2.117525 278.000000 206.000000 147.000000 -0.027625 178.000000 0.145277 185.000000 0.108522 189.000000 0.147425 16.000000 -0.102349 122.000000 -0.099770 147.000000 -0.027625
230725.000000 1.879354 206.000000 347.000000 293.000000 0.104877 321.000000 0.117414 329.000000 0.106443 330.000000 0.106930 16.000000 0.108148 185.000000 0.191027 217.000000 0.069957
231642.000000 1.608845 358.000000 362.000000 274.000000 -0.073352 303.000000 0.055974 316.000000 0.025723 353.000000 0.255502 16.000000 0.008532 169.000000 0.155186 230.000000 -0.010297
232004.000000 1.875926 362.000000 220.000000 149.000000 -0.011991 182.000000 0.205752 195.000000 0.145689 201.000000 0.107508 12.000000 -0.093996 131.000000 -0.042772 153.000000 0.003495
232224.000000 1.932869 220.000000 240.000000 145.000000 -0.057100 189.000000 0.155391 198.000000 0.096850 222.000000 0.085327 15.000000 0.082367 20.000000 0.035236 48.000000 -0.104702
232464.000000 1.963117 240.000000 277.000000 198.000000 0.058291 224.000000 0.126726 234.000000 0.076083 259.000000 0.073245 18.000000 -0.008935 165.000000 0.084232 182.000000 0.026866
232741.000000 2.066117 277.000000 296.000000 242.000000 0.021585 259.000000 0.075755 265.000000 0.038953 280.000000 0.058248 16.000000 -0.021203 175.000000 0.069297 186.000000 0.019766
233391.000000 2.227396 354.000000 380.000000 316.000000 -0.044343 353.000000 0.124874 353.000000 0.124874 360.000000 0.080483 15.000000 -0.001445 183.000000 0.152710 197.000000 0.115878
234264.000000 2.451132 217.000000 300.000000 223.000000 0.018686 257.000000 0.079189 262.000000 0.059722 282.000000 0.054551 17.000000 -0.002428 166.000000 0.047647 173.000000 0.023306
234564.000000 2.382371 300.000000 356.000000 313.000000 -0.046154 335.000000 0.037904 336.000000 0.056180 338.000000 0.022778 16.000000 -0.001437 178.000000 0.159108 208.000000 -0.079169
235138.000000 1.954672 218.000000 285.000000 221.000000 0.069437 251.000000 0.163667 265.000000 0.083667 268.000000 0.079403 16.000000 0.171960 24.000000 0.102589 43.000000 -0.071580
235423.000000 1.700533 285.000000 383.000000 296.000000 -0.054938 328.000000 0.054026 334.000000 0.018525 361.000000 0.008710 15.000000 0.070327 171.000000 0.146555 194.000000 0.125411
235806.000000 1.948195 383.000000 369.000000 322.000000 -0.035456 348.000000 0.085719 352.000000 0.110405 354.000000 0.090232 18.000000 -0.045254 172.000000 0.165580 194.000000 0.057207
236175.000000 2.173901 369.000000 277.000000 206.000000 0.073152 223.000000 0.136067 233.000000 0.115096 260.000000 0.085397 15.000000 -0.077198 165.000000 0.055360 206.000000 0.073152
236452.000000 2.140237 277.000000 304.000000 254.000000 0.024172 283.000000 0.146599 278.000000 0.079136 285.000000 0.137837 15.000000 0.053778 179.000000 0.074563 213.000000 0.052070
236756.000000 2.224733 304.000000 265.000000 174.000000 0.010204 208.000000 0.087523 223.000000 0.044091 243.000000 0.071457 16.000000 -0.014653 158.000000 0.020848 175.000000 -0.003385
237021.000000 2.308842 265.000000 231.000000 164.000000 0.057396 208.000000 0.135892 201.000000 0.075594 208.000000 0.135892 17.000000 -0.030344 121.000000 -0.035583 141.000000 -0.099251
237499.000000 2.447166 247.000000 265.000000 153.000000 -0.084955 196.000000 0.160673 206.000000 0.105094 239.000000 0.078435 20.000000 -0.064954 149.000000 -0.032605 154.000000 -0.086145
238249.000000 2.513587 258.000000 322.000000 272.000000 -0.047944 300.000000 0.040001 295.000000 0.011852 302.000000 0.032196 17.000000 -0.069501 130.000000 0.059937 158.000000 -0.015876
238571.000000 2.460676 322.000000 281.000000 151.000000 -0.038292 180.000000 0.121429 187.000000 0.062558 262.000000 0.096055 19.000000 -0.134828 167.000000 0.066082 187.000000 0.062558
238852.000000 2.112605 281.000000 277.000000 145.000000 -0.025217 213.000000 0.148306 250.000000 0.060293 259.000000 0.098773 18.000000 0.030534 165.000000 0.081519 211.000000 0.139168
239129.000000 2.009840 277.000000 363.000000 314.000000 0.002009 332.000000 0.093543 338.000000 0.034750 343.000000 0.086474 16.000000 -0.015238 184.000000 0.097099 196.000000 0.020266
239766.000000 1.700506 274.000000 304.000000 214.000000 0.003451 234.000000 0.091803 240.000000 0.044390 289.000000 0.048368 16.000000 0.058061 173.000000 0.097324 189.000000 0.018344
240070.000000 1.893463 304.000000 322.000000 190.000000 0.009061 208.000000 0.091190 247.000000 -0.017962 297.000000 0.000344 17.000000 -0.039485 158.000000 0.069139 190.000000 0.009061
240981.000000 2.408327 276.000000 315.000000 273.000000 0.009921 291.000000 0.076253 295.000000 0.049764 296.000000 0.054452 19.000000 -0.091076 171.000000 0.078620 178.000000 0.030093
241835.000000 1.754244 282.000000 299.000000 248.000000 0.082976 278.000000 0.129385 279.000000 0.120310 282.000000 0.108460 15.000000 0.083162 178.000000 0.099189 210.000000 0.015437
242134.000000 1.732958 299.000000 319.000000 166.000000 -0.001601 195.000000 0.070735 213.000000 0.014389 303.000000 0.049607 17.000000 -0.071211 135.000000 0.049230 144.000000 0.041378
242453.000000 1.900391 319.000000 221.000000 176.000000 0.153697 200.000000 0.162834 206.000000 0.152209 206.000000 0.152209 15.000000 -0.026789 130.000000 -0.029106 176.000000 0.153697
242674.000000 2.034466 221.000000 278.000000 231.000000 0.101897 255.000000 0.145313 252.000000 0.127303 259.000000 0.128165 14.000000 0.150440 163.000000 0.070176 179.000000 0.032385
243500.000000 2.459987 267.000000 333.000000 205.000000 -0.049921 222.000000 0.077291 261.000000 -0.069777 312.000000 0.014874 17.000000 -0.012083 163.000000 0.124406 192.000000 -0.041661
243833.000000 2.500048 333.000000 281.000000 172.000000 0.030627 213.000000 0.089547 218.000000 0.062384 262.000000 0.067369 17.000000 -0.030532 167.000000 0.081536 172.000000 0.030627
244114.000000 2.490567 281.000000 301.000000 238.000000 0.011805 280.000000 0.095426 269.000000 0.071631 276.000000 0.064015 16.000000 -0.037082 163.000000 0.023858 178.000000 -0.045374
245821.000000 2.505373 317.000000 350.000000 307.000000 -0.018559 329.000000 0.047212 332.000000 0.058810 333.000000 0.069265 18.000000 -0.072667 171.000000 0.135202 177.000000 0.107882
246171.000000 2.545019 350.000000 269.000000 194.000000 0.073983 247.000000 0.100816 248.000000 0.094343 249.000000 0.102776 15.000000 0.018374 159.000000 -0.010703 177.000000 0.047415
246754.000000 2.441050 314.000000 397.000000 323.000000 -0.061113 352.000000 0.074610 373.000000 0.055377 378.000000 0.064296 19.000000 -0.051395 173.000000 0.114949 211.000000 0.074986
247151.000000 2.432651 397.000000 252.000000 144.000000 -0.107647 172.000000 0.147353 181.000000 0.091223 229.000000 0.111804 15.000000 0.082649 22.000000 -0.049201 34.000000 -0.127885
247403.000000 2.419625 252.000000 219.000000 159.000000 0.017335 197.000000 0.111443 191.000000 0.069139 198.000000 0.100142 19.000000 -0.069449 28.000000 -0.056581 54.000000 -0.191551
247934.000000 2.078684 312.000000 275.000000 122.000000 0.016518 182.000000 0.178148 197.000000 0.137289 257.000000 0.112603 16.000000 0.069421 163.000000 0.147332 173.000000 0.147521
248209.000000 1.857573 275.000000 207.000000 151.000000 0.000458 184.000000 0.194941 179.000000 0.173107 186.000000 0.182950 15.000000 0.041821 123.000000 0.025036 142.000000 -0.007521
249033.000000 2.177288 290.000000 346.000000 289.000000 0.013198 319.000000 0.072117 325.000000 0.041099 326.000000 0.046663 17.000000 -0.027978 175.000000 0.148025 193.000000 0.022164
249631.000000 2.328257 252.000000 275.000000 203.000000 0.000757 237.000000 0.098014 245.000000 0.048749 253.000000 0.030786 16.000000 0.001784 164.000000 0.029359 203.000000 0.000757
251645.000000 2.347385 317.000000 251.000000 172.000000 0.040971 192.000000 0.159420 201.000000 0.130879 228.000000 0.058307 18.000000 -0.026312 144.000000 -0.009076 151.000000 -0.016145
252127.000000 2.107052 231.000000 310.000000 191.000000 0.135392 214.000000 0.182775 234.000000 0.109090 293.000000 0.098794 18.000000 -0.002431 181.000000 0.138089 191.000000 0.135392
252437.000000 1.573139 310.000000 275.000000 167.000000 0.067493 194.000000 0.158308 213.000000 0.072556 259.000000 0.060704 15.000000 0.095284 157.000000 0.063524 167.000000 0.067493
252712.000000 1.588857 275.000000 224.000000 152.000000 0.017618 170.000000 0.129107 180.000000 0.103432 207.000000 0.106241 16.000000 0.018134 25.000000 -0.001802 97.000000 -0.604294
252936.000000 1.808861 224.000000 191.000000 146.000000 0.127950 170.000000 0.433685 142.000000 0.134471 149.000000 0.140960 15.000000 0.063186 20.000000 -0.029684 38.000000 -0.267395
253511.000000 2.156977 384.000000 213.000000 150.000000 0.030222 176.000000 0.224564 188.000000 0.212321 195.000000 0.197304 17.000000 -0.038777 126.000000 -0.063116 153.000000 0.055082
253724.000000 2.359955 213.000000 359.000000 284.000000 -0.083545 311.000000 0.058962 338.000000 0.000311 338.000000 0.000311 19.000000 -0.042179 158.000000 0.114075 181.000000 0.071457
254083.000000 2.322364 359.000000 209.000000 142.000000 0.040219 179.000000 0.186928 182.000000 0.180235 189.000000 0.194139 15.000000 0.020359 124.000000 -0.061772 142.000000 0.040219
254292.000000 2.148092 209.000000 229.000000 156.000000 0.033669 187.000000 0.195266 209.000000 0.140358 210.000000 0.144073 24.000000 -0.028398 20.000000 0.032434 39.000000 -0.090325
254521.000000 1.954057 229.000000 258.000000 179.000000 0.006943 210.000000 0.166238 237.000000 0.052933 238.000000 0.036851 19.000000 0.034762 150.000000 0.061472 179.000000 0.006943
254779.000000 1.897681 258.000000 264.000000 148.000000 -0.012461 192.000000 0.192446 224.000000 0.044686 242.000000 0.141377 16.000000 0.045863 156.000000 0.036787 221.000000 0.032413
255043.000000 1.964450 264.000000 228.000000 97.000000 -0.580091 183.000000 0.169419 190.000000 0.123730 210.000000 0.131630 18.000000 -0.078180 24.000000 -0.021877 45.000000 -0.175187
255271.000000 2.200126 228.000000 288.000000 199.000000 -0.048666 242.000000 0.098779 261.000000 -0.022850 265.000000 0.034313 20.000000 -0.071940 168.000000 0.070566 174.000000 0.035063
255559.000000 2.441881 288.000000 257.000000 94.000000 -0.606066 168.000000 0.130549 225.000000 0.094434 236.000000 0.087144 20.000000 -0.152946 144.000000 -0.002696 161.000000 0.048324
256391.000000 2.626207 281.000000 248.000000 201.000000 0.096206 227.000000 0.130861 222.000000 0.117413 229.000000 0.133400 18.000000 -0.041178 21.000000 -0.048859 40.000000 -0.175881
256639.000000 2.659170 248.000000 236.000000 175.000000 0.047241 193.000000 0.164092 212.000000 0.103733 216.000000 0.106178 20.000000 -0.143855 136.000000 -0.039907 149.000000 -0.046648
257607.000000 2.588058 281.000000 223.000000 179.000000 0.080312 202.000000 0.135046 198.000000 0.117147 205.000000 0.123353 17.000000 -0.029093 22.000000 -0.069344 38.000000 -0.131650
258130.000000 2.578277 300.000000 271.000000 180.000000 0.063779 201.000000 0.140941 210.000000 0.107164 252.000000 0.132647 16.000000 -0.019495 154.000000 0.001395 183.000000 0.045033
258401.000000 2.554700 271.000000 279.000000 203.000000 -0.022395 233.000000 0.158093 254.000000 0.077966 257.000000 0.095254 22.000000 -0.097762 162.000000 0.116616 191.000000 0.026837
258680.000000 2.508875 279.000000 234.000000 145.000000 -0.059699 182.000000 0.197588 192.000000 0.114657 217.000000 0.112775 16.000000 0.019361 133.000000 0.001085 145.000000 -0.059699
259404.000000 2.516487 207.000000 328.000000 268.000000 -0.048060 286.000000 0.119338 305.000000 0.063885 310.000000 0.083980 16.000000 0.023022 165.000000 0.108522 178.000000 0.044542
259732.000000 2.320439 328.000000 244.000000 181.000000 0.164701 200.000000 0.199779 205.000000 0.163446 227.000000 0.139495 18.000000 0.008060 140.000000 0.022946 156.000000 0.017899
260264.000000 2.265576 288.000000 307.000000 248.000000 0.019564 266.000000 0.098342 283.000000 0.061773 287.000000 0.061522 22.000000 -0.153201 137.000000 0.067135 151.000000 0.009580
260790.000000 2.344450 219.000000 307.000000 247.000000 0.005674 283.000000 0.048152 282.000000 0.039061 289.000000 0.052822 21.000000 -0.037854 171.000000 0.016519 184.000000 -0.002225
261097.000000 2.207478 307.000000 228.000000 173.000000 0.090033 189.000000 0.203325 206.000000 0.172995 209.000000 0.174577 17.000000 -0.033085 131.000000 0.018495 173.000000 0.090033
261325.000000 2.151190 228.000000 339.000000 281.000000 -0.003058 311.000000 0.100546 319.000000 0.062992 322.000000 0.088289 17.000000 0.040312 142.000000 0.076298 157.000000 0.042457
261664.000000 2.154103 339.000000 327.000000 179.000000 0.038700 197.000000 0.102617 236.000000 -0.045504 306.000000 0.048010 17.000000 -0.076397 163.000000 0.134264 180.000000 0.019092
261991.000000 2.233323 327.000000 316.000000 155.000000 0.002972 208.000000 0.074511 222.000000 0.047146 295.000000 0.060034 7.000000 0.297335 174.000000 0.089480 200.000000 0.006235
262571.000000 2.363729 264.000000 351.000000 308.000000 0.047605 330.000000 0.109879 323.000000 0.055537 330.000000 0.109879 16.000000 -0.017247 170.000000 0.162222 203.000000 -0.049954
262922.000000 2.227556 351.000000 318.000000 185.000000 -0.020597 204.000000 0.135297 241.000000 -0.042400 294.000000 -0.054983 19.000000 -0.087415 167.000000 0.101644 185.000000 -0.020597
263240.000000 2.262024 318.000000 209.000000 97.000000 -0.651190 184.000000 0.138009 182.000000 0.108447 189.000000 0.106474 20.000000 -0.097129 20.000000 -0.097129 34.000000 -0.165264
263787.000000 2.048839 338.000000 222.000000 146.000000 0.063562 177.000000 0.244265 187.000000 0.196569 212.000000 0.258228 18.000000 -0.070850 131.000000 0.003139 151.000000 0.100395
264009.000000 1.745327 222.000000 313.000000 228.000000 -0.018071 257.000000 0.093730 288.000000 0.022882 296.000000 0.075561 14.000000 0.086408 173.000000 0.069668 183.000000 0.046378
264322.000000 1.700702 313.000000 206.000000 95.000000 -0.591713 171.000000 0.180862 184.000000 0.150206 187.000000 0.143639 17.000000 0.024794 122.000000 -0.058028 164.000000 0.140281
264843.000000 2.103009 315.000000 315.000000 199.000000 0.012354 226.000000 0.099844 257.000000 -0.035769 297.000000 0.113071 16.000000 -0.007743 178.000000 0.124233 199.000000 0.012354
265158.000000 2.250782 315.000000 306.000000 156.000000 -0.058576 189.000000 0.103245 227.000000 -0.031988 288.000000 0.069605 16.000000 -0.073935 138.000000 0.075891 157.000000 -0.061867
265665.000000 2.449719 201.000000 312.000000 223.000000 0.001382 269.000000 0.053605 288.000000 -0.002367 294.000000 0.059389 18.000000 0.025941 147.000000 0.024575 156.000000 -0.042760
265977.000000 2.474153 312.000000 233.000000 94.000000 -0.665677 173.000000 0.137761 178.000000 0.089500 211.000000 0.121602 17.000000 -0.071348 138.000000 -0.022211 178.000000 0.089500
266545.000000 2.441130 335.000000 469.000000 407.000000 0.074499 445.000000 0.140753 448.000000 0.130236 455.000000 0.103213 20.000000 -0.160140 204.000000 0.171048 212.000000 0.153069
267240.000000 1.887963 226.000000 276.000000 212.000000 0.007039 243.000000 0.116711 255.000000 0.099408 257.000000 0.084753 17.000000 0.113967 24.000000 0.060818 44.000000 -0.163869
267516.000000 1.997683 276.000000 237.000000 188.000000 0.000097 209.000000 0.109704 217.000000 0.098810 221.000000 0.085205 17.000000 0.013559 21.000000 -0.041018 44.000000 -0.256114
267753.000000 2.019936 237.000000 272.000000 93.000000 -0.542395 209.000000 0.173730 240.000000 0.077510 252.000000 0.136586 15.000000 -0.000222 161.000000 0.104437 208.000000 0.168354
268025.000000 1.612073 272.000000 209.000000 97.000000 -0.571644 165.000000 0.198873 172.000000 0.177932 192.000000 0.157055 18.000000 0.028860 22.000000 0.008108 38.000000 -0.109729
268234.000000 1.567857 209.000000 216.000000 94.000000 -0.511003 184.000000 0.149340 196.000000 0.143606 197.000000 0.150142 16.000000 0.131946 20.000000 0.056382 96.000000 -0.516348
268450.000000 1.616741 216.000000 338.000000 279.000000 0.019074 305.000000 0.064983 316.000000 0.039781 320.000000 0.065094 18.000000 0.011598 136.000000 0.073368 149.000000 0.041331
268788.000000 1.919704 338.000000 294.000000 149.000000 -0.037353 180.000000 0.105783 197.000000 0.050408 274.000000 0.066161 15.000000 0.018545 172.000000 0.115251 197.000000 0.050408
269082.000000 2.291962 294.000000 309.000000 266.000000 -0.030075 288.000000 0.070770 283.000000 0.026806 290.000000 0.065395 15.000000 -0.007537 167.000000 0.026868 181.000000 -0.026754
269391.000000 2.458325 309.000000 281.000000 225.000000 0.015529 252.000000 0.064480 263.000000 0.024809 264.000000 0.016267 18.000000 -0.127426 167.000000 -0.004373 175.000000 -0.047447
269672.000000 2.370908 281.000000 227.000000 181.000000 0.115705 200.000000 0.169594 208.000000 0.165019 208.000000 0.165019 14.000000 -0.039811 129.000000 -0.021678 140.000000 -0.045942
269899.000000 2.313827 227.000000 257.000000 208.000000 0.115801 236.000000 0.169482 227.000000 0.149999 234.000000 0.151065 17.000000 0.068027 22.000000 0.068606 49.000000 -0.139060
271323.000000 2.418886 349.000000 264.000000 188.000000 0.114167 205.000000 0.182631 235.000000 0.073510 241.000000 0.135738 17.000000 -0.006348 157.000000 0.069747 176.000000 0.099857
271587.000000 2.296336 264.000000 240.000000 150.000000 -0.049265 172.000000 0.118668 188.000000 0.069343 216.000000 0.105020 17.000000 -0.033694 133.000000 -0.046178 150.000000 -0.049265
271827.000000 2.401381 240.000000 291.000000 195.000000 -0.007567 229.000000 0.127024 241.000000 0.095128 272.000000 0.081175 17.000000 -0.114451 170.000000 0.052780 173.000000 0.037561
272336.000000 1.913725 218.000000 306.000000 219.000000 0.001192 250.000000 0.110847 257.000000 0.068072 285.000000 0.083262 18.000000 0.101438 21.000000 0.105216 39.000000 -0.030787
272940.000000 2.257885 298.000000 273.000000 218.000000 0.043760 245.000000 0.124730 246.000000 0.119056 252.000000 0.078429 17.000000 -0.029028 162.000000 -0.016615 189.000000 0.083902
273213.000000 2.514105 273.000000 266.000000 180.000000 0.015324 212.000000 0.099041 237.000000 0.047599 243.000000 0.060812 19.000000 -0.088106 153.000000 -0.032103 194.000000 0.026579
273959.000000 2.656707 237.000000 334.000000 251.000000 -0.063245 282.000000 0.046457 304.000000 0.012557 308.000000 -0.019104 24.000000 -0.104844 164.000000 0.098954 198.000000 -0.061034
274293.000000 2.677716 334.000000 332.000000 274.000000 -0.045410 310.000000 0.090753 300.000000 0.044654 307.000000 0.080768 19.000000 -0.073306 167.000000 0.136271 187.000000 0.062743
274625.000000 2.675500 332.000000 259.000000 213.000000 0.049922 238.000000 0.099780 229.000000 0.073024 236.000000 0.086771 20.000000 -0.057789 24.000000 -0.042177 43.000000 -0.175421
276710.000000 2.362835 359.000000 271.000000 100.000000 -0.609688 224.000000 0.142933 248.000000 0.135049 253.000000 0.110192 16.000000 -0.079296 161.000000 0.039860 215.000000 0.088325
276981.000000 2.200303 271.000000 336.000000 150.000000 0.031524 202.000000 0.103311 210.000000 0.071148 319.000000 0.089266 18.000000 -0.013773 167.000000 0.164471 194.000000 0.075487
277317.000000 2.050552 336.000000 197.000000 149.000000 0.033165 166.000000 0.204998 179.000000 0.193524 179.000000 0.193524 16.000000 -0.005482 27.000000 -0.068145 32.000000 -0.085653
277514.000000 2.250407 197.000000 342.000000 290.000000 0.000452 306.000000 0.062554 312.000000 0.015502 315.000000 0.033652 20.000000 0.039768 174.000000 0.081343 194.000000 -0.060143
278339.000000 2.440125 278.000000 263.000000 172.000000 0.041801 199.000000 0.153524 211.000000 0.106566 242.000000 0.053355 18.000000 -0.041273 153.000000 0.007335 181.000000 0.060970
279044.000000 2.346271 249.000000 222.000000 174.000000 0.169641 192.000000 0.222242 196.000000 0.196098 199.000000 0.172681 18.000000 -0.165658 131.000000 0.045206 174.000000 0.169641
279266.000000 2.045750 222.000000 312.000000 156.000000 0.003199 188.000000 0.133464 221.000000 0.019904 295.000000 0.057649 17.000000 0.097961 175.000000 0.157805 221.000000 0.019904
279578.000000 1.833165 312.000000 268.000000 143.000000 -0.024993 177.000000 0.173437 203.000000 0.068875 247.000000 0.110158 18.000000 -0.006082 159.000000 0.042184 203.000000 0.068875
279846.000000 1.971600 268.000000 333.000000 273.000000 -0.113622 305.000000 0.057650 315.000000 0.004390 316.000000 -0.011645 18.000000 -0.014654 164.000000 0.070943 178.000000 0.000079
280478.000000 1.841552 299.000000 393.000000 337.000000 0.002777 357.000000 0.101587 373.000000 0.063813 377.000000 0.057464 15.000000 0.090283 199.000000 0.143103 254.000000 -0.081161
280871.000000 2.092760 393.000000 284.000000 155.000000 -0.016880 191.000000 0.153433 224.000000 0.002053 260.000000 0.102005 16.000000 0.000438 167.000000 0.015769 224.000000 0.002053
281155.000000 2.412507 284.000000 261.000000 213.000000 0.012318 231.000000 0.107790 236.000000 0.062351 239.000000 0.058542 18.000000 -0.072666 24.000000 -0.041663 46.000000 -0.264546
281416.000000 2.520375 261.000000 254.000000 203.000000 0.053147 233.000000 0.139780 227.000000 0.084999 234.000000 0.138009 19.000000 -0.094953 151.000000 -0.081037 191.000000 0.028289
281670.000000 2.596723 254.000000 384.000000 334.000000 -0.000613 363.000000 0.091616 355.000000 0.034029 362.000000 0.076475 20.000000 -0.031739 184.000000 0.175553 208.000000 0.113309
282339.000000 2.587508 285.000000 316.000000 252.000000 0.017651 274.000000 0.084499 280.000000 0.055393 294.000000 0.020471 20.000000 -0.075232 166.000000 0.033482 200.000000 0.004094
283601.000000 2.448357 341.000000 262.000000 189.000000 0.147946 211.000000 0.179701 222.000000 0.138431 240.000000 0.077395 18.000000 -0.012475 156.000000 0.047413 189.000000 0.147946
283863.000000 2.296077 262.000000 198.000000 155.000000 0.066601 177.000000 0.164295 172.000000 0.145550 179.000000 0.140377 20.000000 -0.080993 117.000000 -0.073009 136.000000 -0.004528
284381.000000 2.473667 320.000000 207.000000 141.000000 -0.018619 186.000000 0.221912 178.000000 0.181772 185.000000 0.217007 16.000000 -0.009501 20.000000 -0.093686 34.000000 -0.147212
284588.000000 2.622069 207.000000 315.000000 251.000000 -0.016348 279.000000 0.106818 291.000000 0.058873 297.000000 0.054796 20.000000 -0.058259 161.000000 0.037052 181.000000 -0.047258
284903.000000 2.631739 315.000000 292.000000 220.000000 0.006709 241.000000 0.114028 253.000000 0.077147 274.000000 0.032132 16.000000 -0.061475 168.000000 0.057662 191.000000 0.034935
285195.000000 2.487569 292.000000 220.000000 146.000000 -0.075607 180.000000 0.206509 195.000000 0.168842 201.000000 0.178576 16.000000 0.015311 128.000000 0.026444 146.000000 -0.075607
285415.000000 2.448560 220.000000 200.000000 130.000000 -0.033890 162.000000 0.143463 173.000000 0.117178 180.000000 0.112117 19.000000 0.032696 20.000000 0.011379 35.000000 -0.105895
285880.000000 2.510139 265.000000 270.000000 223.000000 0.096597 248.000000 0.136192 249.000000 0.134735 250.000000 0.143230 16.000000 -0.003123 154.000000 0.004622 195.000000 0.054591
286150.000000 2.575269 270.000000 289.000000 217.000000 -0.010234 242.000000 0.110879 264.000000 0.087039 270.000000 0.053983 18.000000 -0.093258 172.000000 0.063825 195.000000 0.059357
286657.000000 2.620328 218.000000 286.000000 180.000000 0.060269 216.000000 0.074203 224.000000 0.053781 269.000000 0.022525 19.000000 -0.064657 170.000000 0.059737 185.000000 0.042479
286943.000000 2.532056 286.000000 216.000000 149.000000 -0.015175 194.000000 0.148228 184.000000 0.087348 191.000000 0.130014 17.000000 -0.050922 24.000000 -0.085797 41.000000 -0.199558
