197.000000 1.458526 197.000000 262.000000 173.000000 -0.028069 206.000000 0.176506 223.000000 -0.130672 245.000000 -0.111804 18.000000 -0.189441 99.000000 0.113966 141.000000 -0.082206
459.000000 1.461957 262.000000 249.000000 142.000000 -0.086692 196.000000 0.210535 221.000000 -0.082473 229.000000 -0.082004 22.000000 -0.216289 94.000000 0.054451 130.000000 -0.087225
708.000000 1.444183 249.000000 256.000000 139.000000 -0.091097 204.000000 0.191412 225.000000 -0.082458 240.000000 -0.047161 26.000000 -0.265460 99.000000 0.061861 139.000000 -0.091097
1741.000000 1.449924 263.000000 274.000000 187.000000 0.001788 215.000000 0.196633 237.000000 -0.102082 259.000000 -0.077631 20.000000 -0.206452 102.000000 0.096772 144.000000 -0.099470
2015.000000 1.464074 274.000000 271.000000 192.000000 0.011021 217.000000 0.184485 234.000000 -0.105013 257.000000 -0.064511 22.000000 -0.257652 103.000000 0.100610 169.000000 0.003419
2550.000000 1.482356 264.000000 252.000000 171.000000 -0.011163 199.000000 0.203382 227.000000 -0.068813 235.000000 -0.039816 23.000000 -0.267423 96.000000 0.028453 150.000000 -0.058765
3052.000000 1.489920 250.000000 250.000000 170.000000 0.021148 200.000000 0.209016 224.000000 -0.081173 232.000000 -0.065168 25.000000 -0.253879 98.000000 0.046442 135.000000 -0.088995
3563.000000 1.445062 261.000000 272.000000 184.000000 0.002392 216.000000 0.192642 245.000000 -0.115148 254.000000 -0.069096 22.000000 -0.245815 104.000000 0.096505 138.000000 -0.098197
3835.000000 1.443823 272.000000 267.000000 173.000000 0.004923 209.000000 0.194891 241.000000 -0.084700 249.000000 -0.064512 26.000000 -0.271467 101.000000 0.099125 142.000000 -0.101254
4102.000000 1.475142 267.000000 268.000000 163.000000 -0.040372 213.000000 0.172292 232.000000 -0.100905 245.000000 -0.096454 27.000000 -0.244815 104.000000 0.108367 137.000000 -0.111738
4635.000000 1.429015 265.000000 265.000000 175.000000 0.000937 209.000000 0.195155 227.000000 -0.104107 248.000000 -0.061915 27.000000 -0.254947 99.000000 0.085158 147.000000 -0.081399
5154.000000 1.422685 254.000000 253.000000 177.000000 -0.005754 203.000000 0.198523 222.000000 -0.076430 237.000000 -0.075943 21.000000 -0.218410 96.000000 0.039250 137.000000 -0.071931
5407.000000 1.343449 253.000000 155.000000 58.000000 -0.258526 96.000000 0.096302 121.000000 0.001392 131.000000 -0.051900 20.000000 -0.305408 89.000000 0.091615 92.000000 0.081412
6195.000000 1.450868 273.000000 273.000000 189.000000 0.025690 218.000000 0.200679 245.000000 -0.076859 254.000000 -0.058442 26.000000 -0.264192 104.000000 0.069233 131.000000 -0.090976
6468.000000 1.471257 273.000000 268.000000 187.000000 0.004044 215.000000 0.186396 241.000000 -0.089135 249.000000 -0.061566 28.000000 -0.281144 103.000000 0.091644 137.000000 -0.076757
6736.000000 1.477586 268.000000 259.000000 184.000000 0.002835 207.000000 0.204874 240.000000 -0.083087 245.000000 -0.099528 26.000000 -0.252085 99.000000 0.082288 138.000000 -0.106302
7246.000000 1.460364 251.000000 260.000000 174.000000 -0.015174 206.000000 0.199671 224.000000 -0.080110 243.000000 -0.043854 22.000000 -0.258068 97.000000 0.079700 142.000000 -0.077213
7506.000000 1.470380 260.000000 260.000000 131.000000 -0.081346 209.000000 0.222174 227.000000 -0.059723 245.000000 -0.029284 22.000000 -0.260307 97.000000 0.065572 133.000000 -0.090719
8290.000000 1.479890 367.000000 273.000000 182.000000 -0.064212 218.000000 0.166492 236.000000 -0.107959 257.000000 -0.068651 21.000000 -0.219214 105.000000 0.203046 150.000000 -0.142237
9600.000000 1.480158 251.000000 245.000000 140.000000 -0.066931 193.000000 0.209030 209.000000 -0.070423 229.000000 -0.039311 25.000000 -0.290327 125.000000 -0.028766 156.000000 -0.084499
9845.000000 1.435483 245.000000 260.000000 176.000000 0.049689 204.000000 0.232951 220.000000 -0.092079 244.000000 -0.083099 22.000000 -0.229599 98.000000 0.040576 134.000000 -0.052116
10105.000000 1.479296 260.000000 275.000000 187.000000 -0.011517 215.000000 0.182590 235.000000 -0.122816 259.000000 -0.078399 25.000000 -0.304939 106.000000 0.096517 145.000000 -0.120737
10380.000000 1.514310 275.000000 265.000000 177.000000 -0.033987 209.000000 0.166720 225.000000 -0.119550 248.000000 -0.047794 22.000000 -0.247482 96.000000 0.078741 144.000000 -0.109985
10645.000000 1.449185 265.000000 263.000000 176.000000 -0.023191 208.000000 0.203545 227.000000 -0.094496 246.000000 -0.055750 24.000000 -0.213756 96.000000 0.067168 145.000000 -0.096110
10908.000000 1.462291 263.000000 260.000000 179.000000 0.020646 208.000000 0.187932 224.000000 -0.108747 243.000000 -0.066050 22.000000 -0.250786 95.000000 0.084627 149.000000 -0.105405
11168.000000 1.464077 260.000000 256.000000 179.000000 0.005799 206.000000 0.183292 231.000000 -0.060283 239.000000 -0.024359 20.000000 -0.204232 100.000000 0.054434 146.000000 -0.132680
11424.000000 1.479620 256.000000 251.000000 139.000000 -0.078963 199.000000 0.194657 214.000000 -0.095201 235.000000 -0.061130 23.000000 -0.222903 90.000000 0.063588 117.000000 -0.081738
12449.000000 1.415908 263.000000 177.000000 62.000000 -0.286064 108.000000 0.079561 121.000000 0.027978 149.000000 -0.045893 25.000000 -0.308100 103.000000 0.092664 121.000000 0.027978
13252.000000 1.476363 264.000000 255.000000 172.000000 0.010878 200.000000 0.216441 228.000000 -0.099453 236.000000 -0.032918 14.000000 0.032240 98.000000 0.032132 119.000000 -0.073905
13507.000000 1.476908 255.000000 248.000000 170.000000 -0.006900 195.000000 0.229400 211.000000 -0.100317 232.000000 -0.064704 24.000000 -0.271729 90.000000 0.074862 112.000000 -0.056391
13755.000000 1.443090 248.000000 250.000000 170.000000 -0.008340 200.000000 0.176519 235.000000 -0.081396 238.000000 -0.137729 25.000000 -0.294211 93.000000 0.039469 113.000000 -0.053042
14253.000000 1.401194 248.000000 263.000000 177.000000 0.058716 207.000000 0.236255 237.000000 -0.085673 246.000000 -0.073242 11.000000 0.282540 105.000000 0.035142 134.000000 -0.091222
14786.000000 1.482333 270.000000 267.000000 179.000000 -0.046036 212.000000 0.103809 214.000000 0.071944 251.000000 -0.134702 21.000000 -0.254922 100.000000 0.147460 149.000000 -0.075255
15053.000000 1.474549 267.000000 258.000000 150.000000 -0.113304 205.000000 0.135477 232.000000 -0.110794 240.000000 -0.088037 20.000000 -0.131596 96.000000 0.141820 150.000000 -0.113304
15311.000000 1.462211 258.000000 263.000000 185.000000 0.013413 208.000000 0.189039 225.000000 -0.097388 247.000000 -0.080131 25.000000 -0.218172 103.000000 0.073359 132.000000 -0.053066
15834.000000 1.512321 260.000000 249.000000 166.000000 -0.009748 197.000000 0.170989 215.000000 -0.106991 234.000000 -0.057023 21.000000 -0.241861 91.000000 0.067603 135.000000 -0.085910
16335.000000 1.451548 252.000000 255.000000 174.000000 0.015918 201.000000 0.202514 220.000000 -0.112409 238.000000 -0.087018 20.000000 -0.197421 93.000000 0.067916 119.000000 -0.095469
16590.000000 1.446931 255.000000 263.000000 186.000000 0.062070 210.000000 0.230206 226.000000 -0.054464 248.000000 -0.063871 11.000000 0.212070 102.000000 0.078384 137.000000 -0.048307
17398.000000 1.485801 271.000000 261.000000 182.000000 0.039969 209.000000 0.242743 230.000000 -0.041161 246.000000 -0.045204 19.000000 -0.199747 97.000000 0.043031 132.000000 -0.099307
18168.000000 1.444715 253.000000 258.000000 171.000000 -0.042936 204.000000 0.185201 232.000000 -0.101635 240.000000 -0.070083 26.000000 -0.278860 96.000000 0.068930 144.000000 -0.104908
18426.000000 1.405530 258.000000 256.000000 176.000000 0.000970 203.000000 0.195452 219.000000 -0.093311 240.000000 -0.050381 23.000000 -0.222743 101.000000 0.055630 127.000000 -0.067035
18682.000000 1.470624 256.000000 264.000000 184.000000 -0.019465 211.000000 0.201081 228.000000 -0.113622 248.000000 -0.057493 21.000000 -0.219184 104.000000 0.091243 169.000000 -0.012333
18946.000000 1.421600 264.000000 266.000000 181.000000 0.001101 211.000000 0.190801 229.000000 -0.088712 250.000000 -0.058147 24.000000 -0.263919 97.000000 0.110113 141.000000 -0.105939
19483.000000 1.440189 271.000000 263.000000 182.000000 -0.002325 207.000000 0.206154 237.000000 -0.070068 247.000000 -0.066165 25.000000 -0.259816 100.000000 0.082555 144.000000 -0.108198
20008.000000 1.442868 262.000000 253.000000 145.000000 -0.069374 202.000000 0.200999 229.000000 -0.068279 235.000000 -0.065111 15.000000 -0.042665 97.000000 0.062416 135.000000 -0.090422
20764.000000 1.383151 250.000000 267.000000 184.000000 -0.024468 210.000000 0.189011 235.000000 -0.070894 248.000000 -0.048418 23.000000 -0.255411 97.000000 0.078915 129.000000 -0.089609
21031.000000 1.465643 267.000000 172.000000 60.000000 -0.281427 106.000000 0.117396 125.000000 0.009073 146.000000 -0.100723 21.000000 -0.321393 100.000000 0.099309 121.000000 0.007067
21576.000000 1.390876 373.000000 262.000000 101.000000 0.155504 203.000000 0.307603 234.000000 0.020739 244.000000 0.028200 21.000000 -0.189497 102.000000 0.161554 206.000000 0.291396
21838.000000 1.468029 262.000000 262.000000 159.000000 -0.063790 212.000000 0.185598 222.000000 -0.144370 231.000000 -0.137975 26.000000 -0.427346 98.000000 0.020553 126.000000 -0.092553
22100.000000 1.452369 262.000000 250.000000 170.000000 -0.039089 200.000000 0.219877 226.000000 -0.008964 232.000000 0.006507 30.000000 -0.222444 95.000000 0.023228 120.000000 -0.131066
23114.000000 1.337210 255.000000 261.000000 177.000000 0.008226 208.000000 0.210937 235.000000 -0.077933 242.000000 -0.052650 24.000000 -0.267366 101.000000 0.070409 142.000000 -0.080865
23641.000000 1.457316 266.000000 275.000000 181.000000 -0.036800 220.000000 0.170489 247.000000 -0.105137 256.000000 -0.049401 22.000000 -0.155129 107.000000 0.104810 150.000000 -0.127710
23916.000000 1.484530 275.000000 264.000000 181.000000 0.002884 210.000000 0.169547 236.000000 -0.119591 244.000000 -0.109214 25.000000 -0.266649 98.000000 0.092836 131.000000 -0.061692
24180.000000 1.495018 264.000000 249.000000 175.000000 0.018304 199.000000 0.219417 223.000000 -0.071526 230.000000 -0.104755 26.000000 -0.316987 96.000000 0.091507 140.000000 -0.073480
24429.000000 1.557910 249.000000 247.000000 141.000000 -0.098651 196.000000 0.185408 222.000000 -0.076002 230.000000 -0.074717 23.000000 -0.246257 92.000000 0.034371 141.000000 -0.098651
25191.000000 1.449296 348.000000 271.000000 181.000000 -0.044199 219.000000 0.159389 239.000000 -0.123479 253.000000 -0.116770 26.000000 -0.271632 106.000000 0.214045 148.000000 -0.131017
25462.000000 1.442587 271.000000 270.000000 183.000000 -0.022696 216.000000 0.236238 241.000000 -0.072588 255.000000 -0.080676 24.000000 -0.258546 110.000000 0.083321 140.000000 -0.077430
25732.000000 1.459388 270.000000 265.000000 177.000000 0.015374 211.000000 0.167175 213.000000 0.140373 253.000000 -0.085474 24.000000 -0.280411 104.000000 0.116144 125.000000 -0.054905
25997.000000 1.550106 265.000000 256.000000 141.000000 -0.102997 204.000000 0.243966 222.000000 -0.038510 235.000000 -0.023696 4.000000 1.127002 91.000000 0.060167 133.000000 -0.130098
26516.000000 1.505424 263.000000 255.000000 143.000000 -0.116222 203.000000 0.197239 229.000000 -0.094311 237.000000 -0.049829 23.000000 -0.249638 94.000000 0.098106 143.000000 -0.116222
26771.000000 1.497134 255.000000 248.000000 166.000000 -0.032621 198.000000 0.216816 224.000000 -0.092853 229.000000 -0.074717 24.000000 -0.273553 91.000000 0.057556 120.000000 -0.082525
27529.000000 1.416503 257.000000 265.000000 175.000000 -0.000044 210.000000 0.244454 240.000000 -0.091378 248.000000 -0.064356 24.000000 -0.246944 101.000000 0.065531 132.000000 -0.028823
28066.000000 1.525330 272.000000 268.000000 183.000000 -0.036788 213.000000 0.159169 230.000000 -0.120002 252.000000 -0.092493 21.000000 -0.234782 103.000000 0.121221 169.000000 -0.023149
28835.000000 1.441414 246.000000 254.000000 171.000000 0.020832 199.000000 0.223138 216.000000 -0.079087 238.000000 -0.055734 25.000000 -0.263005 91.000000 0.066773 123.000000 -0.094028
29089.000000 1.381368 254.000000 259.000000 177.000000 -0.046490 204.000000 0.138011 207.000000 0.121333 241.000000 -0.078873 12.000000 0.169408 97.000000 0.100614 147.000000 -0.106851
29869.000000 1.318464 265.000000 267.000000 186.000000 -0.008264 214.000000 0.167912 234.000000 -0.073624 252.000000 -0.017289 24.000000 -0.231597 99.000000 0.076600 115.000000 0.002619
30401.000000 1.442304 265.000000 260.000000 173.000000 0.047998 205.000000 0.216681 229.000000 -0.050215 245.000000 -0.067723 18.000000 -0.205892 97.000000 0.091365 128.000000 -0.057490
31165.000000 1.490802 249.000000 250.000000 143.000000 -0.128531 198.000000 0.166973 216.000000 -0.118640 232.000000 -0.092104 26.000000 -0.263963 91.000000 0.011441 98.000000 -0.013230
31934.000000 1.467412 266.000000 273.000000 180.000000 -0.008852 216.000000 0.169299 235.000000 -0.125466 256.000000 -0.068100 14.000000 0.178899 105.000000 0.107146 143.000000 -0.095641
32207.000000 1.476036 273.000000 269.000000 187.000000 0.007041 212.000000 0.166459 241.000000 -0.077680 250.000000 -0.072916 25.000000 -0.268592 97.000000 0.099360 135.000000 -0.128413
32476.000000 1.448302 269.000000 259.000000 176.000000 0.018341 205.000000 0.183702 232.000000 -0.091660 240.000000 -0.080844 26.000000 -0.262515 93.000000 0.095857 139.000000 -0.102130
32735.000000 1.459660 259.000000 250.000000 166.000000 0.002428 197.000000 0.218259 224.000000 -0.095630 234.000000 -0.068153 23.000000 -0.262424 91.000000 0.073014 125.000000 -0.073668
33234.000000 1.541697 249.000000 256.000000 138.000000 -0.104562 205.000000 0.213760 220.000000 -0.094532 240.000000 -0.042103 22.000000 -0.314226 97.000000 0.071054 138.000000 -0.104562
33490.000000 1.482569 256.000000 258.000000 178.000000 0.024079 205.000000 0.217307 231.000000 -0.060168 244.000000 -0.081157 20.000000 -0.200629 98.000000 0.070155 124.000000 -0.075705
34010.000000 1.488667 262.000000 264.000000 184.000000 0.026242 209.000000 0.207168 225.000000 -0.096908 247.000000 -0.065717 13.000000 0.121203 101.000000 0.094401 150.000000 -0.078400
34274.000000 1.520691 264.000000 268.000000 186.000000 0.002023 211.000000 0.201115 228.000000 -0.101503 252.000000 -0.066610 11.000000 0.325094 100.000000 0.099479 145.000000 -0.144029
34542.000000 1.478077 268.000000 276.000000 187.000000 0.012000 221.000000 0.188664 245.000000 -0.107040 260.000000 -0.079015 22.000000 -0.221969 105.000000 0.100471 137.000000 -0.087589
34818.000000 1.448604 276.000000 258.000000 181.000000 0.003901 204.000000 0.236410 232.000000 -0.103857 240.000000 -0.071348 23.000000 -0.208430 98.000000 0.084937 133.000000 -0.075143
35076.000000 1.502793 258.000000 245.000000 98.000000 0.032509 197.000000 0.223921 217.000000 -0.086298 231.000000 -0.052336 23.000000 -0.268866 97.000000 0.042462 130.000000 -0.131898
35571.000000 1.524230 250.000000 259.000000 182.000000 0.006566 208.000000 0.228697 226.000000 -0.081586 242.000000 -0.046226 24.000000 -0.307889 94.000000 0.087820 118.000000 -0.054935
35830.000000 1.454762 259.000000 263.000000 177.000000 0.000140 207.000000 0.215235 225.000000 -0.100126 246.000000 -0.103933 19.000000 -0.243244 98.000000 0.087304 122.000000 -0.068401
36093.000000 1.436004 263.000000 272.000000 184.000000 -0.069750 215.000000 0.199841 232.000000 -0.121882 254.000000 -0.060392 24.000000 -0.273887 101.000000 0.117128 145.000000 -0.147007
37151.000000 1.502433 357.000000 261.000000 183.000000 -0.065721 209.000000 0.128057 229.000000 -0.167726 246.000000 -0.098714 24.000000 -0.252596 98.000000 0.223749 149.000000 -0.175819
38430.000000 1.459152 265.000000 262.000000 180.000000 0.024431 205.000000 0.245997 223.000000 -0.095146 245.000000 -0.075272 28.000000 -0.299911 101.000000 0.080172 138.000000 -0.074403
38692.000000 1.459652 262.000000 266.000000 179.000000 -0.000988 212.000000 0.250472 239.000000 -0.122475 248.000000 -0.090124 26.000000 -0.272583 105.000000 0.091473 133.000000 -0.092039
39477.000000 1.398777 253.000000 243.000000 162.000000 -0.030484 195.000000 0.170015 220.000000 -0.137366 227.000000 -0.097680 12.000000 0.224309 92.000000 0.048731 134.000000 -0.084372
39720.000000 1.430957 243.000000 255.000000 153.000000 -0.074548 201.000000 0.217158 228.000000 -0.076838 237.000000 -0.049564 24.000000 -0.256268 91.000000 0.075693 118.000000 -0.063478
39975.000000 1.453261 255.000000 255.000000 179.000000 0.012573 204.000000 0.179469 224.000000 -0.110094 239.000000 -0.068888 15.000000 0.036791 99.000000 0.094455 145.000000 -0.101458
40745.000000 1.494861 257.000000 264.000000 170.000000 -0.009954 211.000000 0.212287 215.000000 0.158071 252.000000 -0.064702 24.000000 -0.259948 103.000000 0.042652 131.000000 -0.101145
41009.000000 1.532336 264.000000 263.000000 184.000000 -0.026360 211.000000 0.204925 227.000000 -0.100451 247.000000 -0.054982 16.000000 -0.084120 104.000000 0.073251 146.000000 -0.089619
41272.000000 1.463592 263.000000 255.000000 176.000000 -0.002026 199.000000 0.210374 228.000000 -0.119264 235.000000 -0.119718 22.000000 -0.197003 147.000000 0.010387 162.000000 -0.012840
41527.000000 1.451869 255.000000 254.000000 139.000000 -0.045468 205.000000 0.246069 228.000000 -0.050027 236.000000 -0.102441 24.000000 -0.198615 100.000000 0.078013 119.000000 -0.057145
41781.000000 1.437290 254.000000 245.000000 148.000000 -0.064746 196.000000 0.194876 214.000000 -0.096111 230.000000 -0.047834 26.000000 -0.298919 96.000000 0.069232 148.000000 -0.064746
42274.000000 1.492980 248.000000 249.000000 172.000000 0.022885 196.000000 0.214627 225.000000 -0.090986 233.000000 -0.098544 23.000000 -0.293100 93.000000 0.062821 124.000000 -0.063979
43058.000000 1.462412 266.000000 264.000000 178.000000 0.084638 211.000000 0.237399 231.000000 -0.136802 249.000000 -0.106503 24.000000 -0.293858 100.000000 0.088932 124.000000 -0.056380
43322.000000 1.490957 264.000000 251.000000 161.000000 -0.099531 202.000000 0.191003 221.000000 -0.096002 237.000000 -0.098181 20.000000 -0.210719 99.000000 0.073948 133.000000 -0.099514
43573.000000 1.457542 251.000000 246.000000 152.000000 -0.039435 196.000000 0.230816 216.000000 -0.096332 231.000000 -0.073778 20.000000 -0.220952 96.000000 0.041068 136.000000 -0.070518
43819.000000 1.465909 246.000000 242.000000 133.000000 -0.079469 194.000000 0.204919 217.000000 -0.074531 224.000000 -0.073058 14.000000 0.116956 96.000000 0.034196 133.000000 -0.079469
44061.000000 1.481834 242.000000 251.000000 150.000000 -0.072853 202.000000 0.226209 219.000000 -0.050374 235.000000 -0.073366 24.000000 -0.237408 99.000000 0.042119 133.000000 -0.056850
45075.000000 1.464281 260.000000 263.000000 179.000000 -0.003592 208.000000 0.203479 239.000000 -0.076047 246.000000 -0.058054 20.000000 -0.214133 99.000000 0.083497 146.000000 -0.111744
45608.000000 1.401552 270.000000 156.000000 47.000000 -0.275309 101.000000 0.108517 118.000000 0.003798 133.000000 -0.065935 22.000000 -0.305264 92.000000 0.005460 105.000000 0.070727
46594.000000 1.448479 248.000000 250.000000 139.000000 -0.085049 195.000000 0.191598 222.000000 -0.116350 232.000000 -0.049593 27.000000 -0.255941 92.000000 0.081379 139.000000 -0.085049
46844.000000 1.434626 250.000000 263.000000 169.000000 -0.030863 208.000000 0.183994 225.000000 -0.105896 245.000000 -0.060534 28.000000 -0.253034 100.000000 0.090253 139.000000 -0.122589
47107.000000 1.463386 263.000000 264.000000 181.000000 0.006193 211.000000 0.195066 227.000000 -0.096784 247.000000 -0.059934 24.000000 -0.241109 102.000000 0.099406 131.000000 -0.076254
47371.000000 1.500881 264.000000 263.000000 186.000000 0.006694 209.000000 0.201568 229.000000 -0.106582 246.000000 -0.056035 12.000000 0.225820 101.000000 0.091616 143.000000 -0.107667
47888.000000 1.493623 254.000000 252.000000 176.000000 -0.004076 198.000000 0.188105 228.000000 -0.086440 235.000000 -0.065703 21.000000 -0.246893 97.000000 0.077305 110.000000 -0.039497
48140.000000 1.497324 252.000000 253.000000 176.000000 0.003386 203.000000 0.205486 218.000000 -0.105580 237.000000 -0.060625 22.000000 -0.267187 94.000000 0.078405 134.000000 -0.094168
48393.000000 1.505648 253.000000 249.000000 174.000000 -0.007888 196.000000 0.189963 226.000000 -0.057529 233.000000 -0.066699 22.000000 -0.277893 88.000000 0.063593 116.000000 -0.098230
49144.000000 1.500876 256.000000 266.000000 183.000000 0.009213 213.000000 0.210515 239.000000 -0.102134 247.000000 -0.070331 11.000000 0.340138 105.000000 0.091829 139.000000 -0.098358
49410.000000 1.447304 266.000000 268.000000 183.000000 -0.009684 212.000000 0.211774 238.000000 -0.108696 248.000000 -0.051095 22.000000 -0.221001 103.000000 0.117448 136.000000 -0.093304
49678.000000 1.495725 268.000000 264.000000 181.000000 0.016100 208.000000 0.222621 225.000000 -0.123679 247.000000 -0.101730 28.000000 -0.279759 98.000000 0.104723 125.000000 -0.089306
50198.000000 1.534387 256.000000 250.000000 175.000000 -0.009527 199.000000 0.202103 225.000000 -0.080313 233.000000 -0.054327 18.000000 -0.211557 95.000000 0.058476 129.000000 -0.100375
50448.000000 1.495592 250.000000 243.000000 154.000000 -0.079385 191.000000 0.191868 222.000000 -0.048774 228.000000 -0.066957 23.000000 -0.269834 91.000000 0.054919 124.000000 -0.094591
50949.000000 1.511479 258.000000 258.000000 147.000000 -0.055065 204.000000 0.211506 219.000000 -0.111050 242.000000 -0.082117 20.000000 -0.210291 95.000000 0.040769 124.000000 -0.067275
51207.000000 1.525201 258.000000 265.000000 186.000000 -0.010062 210.000000 0.198619 243.000000 -0.044500 249.000000 -0.048999 22.000000 -0.238796 100.000000 0.089606 139.000000 -0.122602
51472.000000 1.498241 265.000000 263.000000 181.000000 -0.016954 208.000000 0.183939 226.000000 -0.120733 248.000000 -0.081486 23.000000 -0.251024 93.000000 0.096596 141.000000 -0.109462
52001.000000 1.546051 266.000000 255.000000 177.000000 0.002069 204.000000 0.190535 231.000000 -0.096813 239.000000 -0.074510 6.000000 0.857431 96.000000 0.072617 135.000000 -0.092228
52512.000000 1.499909 256.000000 257.000000 180.000000 0.010279 206.000000 0.198604 222.000000 -0.103041 242.000000 -0.076961 14.000000 0.119644 97.000000 0.080581 137.000000 -0.092998
52769.000000 1.476378 257.000000 251.000000 136.000000 -0.091597 199.000000 0.200850 222.000000 -0.107333 231.000000 -0.065955 20.000000 -0.216645 92.000000 0.083587 136.000000 -0.091597
53020.000000 1.510595 251.000000 251.000000 170.000000 0.024685 199.000000 0.205283 227.000000 -0.092442 234.000000 -0.066205 25.000000 -0.278181 92.000000 0.036865 129.000000 -0.095990
53271.000000 1.518714 251.000000 266.000000 184.000000 0.003386 209.000000 0.193106 227.000000 -0.094433 249.000000 -0.058523 28.000000 -0.271127 101.000000 0.108948 132.000000 -0.105032
53537.000000 1.497388 266.000000 277.000000 196.000000 -0.010298 221.000000 0.195316 250.000000 -0.100371 259.000000 -0.058837 16.000000 0.035634 109.000000 0.098496 173.000000 -0.019108
54078.000000 1.477823 264.000000 254.000000 169.000000 0.010579 204.000000 0.197871 228.000000 -0.080951 236.000000 -0.074306 13.000000 0.169565 97.000000 0.057055 131.000000 -0.092416
54837.000000 1.493843 250.000000 253.000000 134.000000 -0.093840 201.000000 0.205029 220.000000 -0.079831 239.000000 -0.063138 23.000000 -0.270700 93.000000 0.082275 117.000000 -0.056440
55607.000000 1.512444 259.000000 265.000000 186.000000 -0.013574 212.000000 0.199872 231.000000 -0.114329 250.000000 -0.083151 19.000000 -0.176847 99.000000 0.089313 142.000000 -0.100878
56413.000000 1.564078 274.000000 254.000000 179.000000 0.000912 199.000000 0.182746 218.000000 -0.095654 237.000000 -0.055454 22.000000 -0.229495 97.000000 0.040864 119.000000 -0.068134
56667.000000 1.494498 254.000000 251.000000 177.000000 -0.003591 200.000000 0.179279 226.000000 -0.134137 235.000000 -0.109653 24.000000 -0.278075 92.000000 0.070783 134.000000 -0.107492
56918.000000 1.432747 251.000000 247.000000 163.000000 0.003952 196.000000 0.240579 223.000000 -0.130251 230.000000 -0.129577 23.000000 -0.218224 90.000000 0.063468 110.000000 -0.082144
57165.000000 1.404811 247.000000 150.000000 52.000000 -0.245231 94.000000 0.105145 124.000000 -0.088975 127.000000 -0.114680 23.000000 -0.328117 88.000000 0.059612 116.000000 -0.053756
57666.000000 1.470975 351.000000 274.000000 181.000000 -0.032885 218.000000 0.188717 226.000000 0.096570 258.000000 -0.096220 22.000000 -0.258053 108.000000 0.234074 149.000000 -0.096257
58473.000000 1.486930 264.000000 256.000000 175.000000 -0.007152 203.000000 0.212269 226.000000 -0.090740 241.000000 -0.082902 25.000000 -0.277942 99.000000 0.047870 124.000000 -0.067053
59239.000000 1.506991 255.000000 254.000000 174.000000 0.014858 202.000000 0.215268 220.000000 -0.108022 238.000000 -0.060861 24.000000 -0.251203 94.000000 0.071284 144.000000 -0.059798
59493.000000 1.482523 254.000000 249.000000 174.000000 -0.003112 196.000000 0.195054 224.000000 -0.082707 232.000000 -0.051171 22.000000 -0.246319 94.000000 0.056643 137.000000 -0.080967
59742.000000 1.498401 249.000000 261.000000 174.000000 0.014389 206.000000 0.203716 226.000000 -0.106268 253.000000 0.505631 23.000000 -0.272294 97.000000 0.074244 145.000000 -0.091630
60003.000000 1.480286 261.000000 267.000000 174.000000 -0.041569 214.000000 0.179685 244.000000 -0.074626 251.000000 -0.050238 7.000000 0.584361 101.000000 0.088891 147.000000 -0.119672
60270.000000 1.504842 267.000000 273.000000 182.000000 -0.003873 216.000000 0.178888 235.000000 -0.105422 257.000000 -0.066956 22.000000 -0.252290 102.000000 0.109653 139.000000 -0.084892
60543.000000 1.455991 273.000000 265.000000 186.000000 -0.003431 212.000000 0.188561 228.000000 -0.118602 248.000000 -0.080436 20.000000 -0.215623 100.000000 0.117992 151.000000 -0.096568
60808.000000 1.495208 265.000000 253.000000 178.000000 -0.008013 201.000000 0.207004 218.000000 -0.092196 239.000000 -0.080093 20.000000 -0.201734 99.000000 0.052117 123.000000 -0.088403
61819.000000 1.494390 261.000000 262.000000 184.000000 0.007991 208.000000 0.203663 234.000000 -0.090866 242.000000 -0.073359 20.000000 -0.226281 98.000000 0.081243 141.000000 -0.107882
62081.000000 1.507396 262.000000 267.000000 177.000000 0.004826 217.000000 0.191267 243.000000 -0.108043 250.000000 -0.093199 27.000000 -0.283510 104.000000 0.104783 146.000000 -0.098587
62609.000000 1.486203 261.000000 267.000000 177.000000 0.013964 209.000000 0.206988 241.000000 -0.075488 248.000000 -0.051317 24.000000 -0.287683 100.000000 0.087993 126.000000 -0.061036
62876.000000 1.493951 267.000000 253.000000 173.000000 0.016272 198.000000 0.205410 201.000000 0.203356 237.000000 -0.091048 24.000000 -0.248824 96.000000 0.057603 126.000000 -0.089214
63129.000000 1.460816 253.000000 253.000000 134.000000 -0.077474 202.000000 0.230222 228.000000 -0.078182 236.000000 -0.056742 23.000000 -0.256722 93.000000 0.084453 113.000000 -0.038070
63382.000000 1.500418 253.000000 252.000000 167.000000 -0.028592 202.000000 0.203214 229.000000 -0.065223 236.000000 -0.070129 14.000000 0.077564 98.000000 0.043005 120.000000 -0.088168
63886.000000 1.333326 252.000000 248.000000 171.000000 0.049675 196.000000 0.240022 223.000000 -0.066704 231.000000 -0.051156 22.000000 -0.214604 93.000000 0.052025 107.000000 -0.002975
64400.000000 1.482978 266.000000 274.000000 185.000000 0.022069 218.000000 0.238321 241.000000 -0.117323 259.000000 -0.058968 22.000000 -0.241014 107.000000 0.077058 145.000000 -0.129729
64674.000000 1.506583 274.000000 262.000000 178.000000 -0.004766 210.000000 0.255110 236.000000 -0.086412 245.000000 -0.073512 17.000000 -0.120640 102.000000 0.092353 127.000000 -0.076393
65437.000000 1.432540 251.000000 248.000000 176.000000 0.035691 200.000000 0.244955 224.000000 -0.093276 232.000000 -0.056693 24.000000 -0.292003 96.000000 0.026757 117.000000 -0.058134
65933.000000 1.408588 248.000000 255.000000 154.000000 0.010392 201.000000 0.324548 219.000000 -0.067427 240.000000 -0.059873 25.000000 -0.323100 147.000000 0.081504 154.000000 0.010392
66444.000000 1.454684 256.000000 261.000000 187.000000 -0.030244 210.000000 0.247983 235.000000 -0.093536 243.000000 -0.096311 24.000000 -0.203015 102.000000 0.074402 144.000000 -0.096298
67978.000000 1.445578 243.000000 247.000000 148.000000 -0.099417 194.000000 0.221775 221.000000 -0.094434 228.000000 -0.080108 13.000000 0.118147 87.000000 0.023993 110.000000 -0.056586
68225.000000 1.489874 247.000000 250.000000 172.000000 0.091959 197.000000 0.320124 226.000000 -0.142366 234.000000 -0.088384 25.000000 -0.296728 103.000000 0.069731 123.000000 -0.021006
68475.000000 1.482886 250.000000 265.000000 177.000000 0.042220 207.000000 0.162708 235.000000 -0.140881 246.000000 -0.046492 25.000000 -0.333810 101.000000 0.073131 132.000000 -0.033184
68740.000000 1.547461 265.000000 269.000000 180.000000 -0.002682 214.000000 0.234604 234.000000 -0.079455 260.000000 0.302145 27.000000 -0.279370 104.000000 0.083763 133.000000 -0.092335
69009.000000 1.552538 269.000000 260.000000 180.000000 0.029737 206.000000 0.223232 226.000000 -0.070091 243.000000 -0.053965 15.000000 -0.006725 100.000000 0.034810 137.000000 -0.163778
69269.000000 1.453697 260.000000 253.000000 176.000000 0.028577 204.000000 0.232809 232.000000 -0.121784 238.000000 -0.167427 21.000000 -0.244249 98.000000 0.073230 142.000000 -0.111299
69522.000000 1.451947 253.000000 250.000000 145.000000 -0.118292 198.000000 0.167446 227.000000 -0.094688 234.000000 -0.087181 13.000000 0.160143 95.000000 0.081476 145.000000 -0.118292
69772.000000 1.495156 250.000000 255.000000 141.000000 -0.071630 203.000000 0.200424 224.000000 -0.081033 238.000000 -0.078197 12.000000 0.101957 92.000000 0.096161 136.000000 -0.073512
70027.000000 1.483428 255.000000 245.000000 151.000000 -0.077649 195.000000 0.219484 221.000000 -0.064046 228.000000 -0.056882 24.000000 -0.265945 94.000000 0.041172 127.000000 -0.090862
70523.000000 1.584357 251.000000 256.000000 173.000000 -0.009134 205.000000 0.206084 230.000000 -0.090499 238.000000 -0.083117 25.000000 -0.292965 97.000000 0.072208 139.000000 -0.090672
71046.000000 1.535282 267.000000 265.000000 175.000000 -0.019954 208.000000 0.182243 235.000000 -0.097647 249.000000 -0.065859 29.000000 -0.260334 97.000000 0.094901 129.000000 -0.138607
71311.000000 1.577842 265.000000 268.000000 181.000000 -0.020296 211.000000 0.175770 242.000000 -0.131738 250.000000 -0.084497 19.000000 -0.203645 99.000000 0.097763 132.000000 -0.088323
71579.000000 1.532129 268.000000 252.000000 176.000000 0.022103 203.000000 0.213450 226.000000 -0.089024 237.000000 -0.051279 19.000000 -0.180537 102.000000 0.064483 176.000000 0.022103
71831.000000 1.586982 252.000000 247.000000 138.000000 -0.097806 198.000000 0.181963 203.000000 0.139973 213.000000 -0.118368 23.000000 -0.253800 92.000000 0.026271 117.000000 -0.105439
72326.000000 1.490579 248.000000 160.000000 40.000000 -0.296534 99.000000 0.094001 127.000000 -0.037442 137.000000 -0.075639 27.000000 -0.351942 94.000000 0.097856 127.000000 -0.037442
72846.000000 1.401742 360.000000 271.000000 187.000000 -0.023467 216.000000 0.208244 244.000000 -0.110282 252.000000 -0.090252 21.000000 -0.277710 103.000000 0.220755 145.000000 -0.114263
73117.000000 1.472304 271.000000 261.000000 152.000000 -0.149950 207.000000 0.213859 232.000000 -0.116235 244.000000 -0.082883 10.000000 0.376944 96.000000 0.103919 125.000000 -0.066944
73378.000000 1.555171 261.000000 264.000000 150.000000 -0.135692 210.000000 0.218386 241.000000 -0.078496 248.000000 -0.055674 11.000000 0.410248 98.000000 0.087237 136.000000 -0.107009
74159.000000 1.407150 257.000000 141.000000 36.000000 -0.280250 97.000000 0.112620 109.000000 0.031054 119.000000 -0.031657 22.000000 -0.302068 83.000000 -0.055390 109.000000 0.031054
75459.000000 1.483607 277.000000 268.000000 147.000000 -0.097051 213.000000 0.212948 239.000000 -0.104684 247.000000 -0.106909 21.000000 -0.210660 99.000000 0.096976 147.000000 -0.097051
75727.000000 1.472247 268.000000 256.000000 172.000000 0.005536 205.000000 0.197996 230.000000 -0.129890 237.000000 -0.082179 26.000000 -0.286875 101.000000 0.094451 128.000000 -0.061442
75983.000000 1.476128 256.000000 249.000000 171.000000 0.009653 199.000000 0.242036 224.000000 -0.091429 231.000000 -0.069234 17.000000 -0.200334 97.000000 0.065314 171.000000 0.009653
76232.000000 1.551741 249.000000 252.000000 130.000000 -0.059982 202.000000 0.216803 226.000000 -0.082192 233.000000 -0.059968 25.000000 -0.322270 99.000000 0.042055 130.000000 -0.059982
76484.000000 1.487271 252.000000 252.000000 167.000000 -0.051313 201.000000 0.208231 219.000000 -0.134841 236.000000 -0.114089 27.000000 -0.273858 88.000000 0.103226 126.000000 -0.083791
76736.000000 1.492006 252.000000 260.000000 181.000000 0.045910 208.000000 0.212854 219.000000 -0.076706 241.000000 -0.077867 13.000000 0.094668 93.000000 0.103098 120.000000 -0.080318
76996.000000 1.529638 260.000000 261.000000 147.000000 -0.085765 207.000000 0.200504 233.000000 -0.111516 245.000000 -0.090780 7.000000 0.682741 97.000000 0.045735 121.000000 -0.071913
77257.000000 1.479908 261.000000 269.000000 186.000000 0.027538 215.000000 0.214041 244.000000 -0.081759 252.000000 -0.063797 21.000000 -0.244984 107.000000 0.076851 122.000000 -0.017458
77526.000000 1.534983 269.000000 262.000000 169.000000 0.009135 205.000000 0.203055 210.000000 0.178447 243.000000 -0.090189 22.000000 -0.295359 101.000000 0.101536 131.000000 -0.072979
78055.000000 1.511786 267.000000 257.000000 166.000000 -0.107337 206.000000 0.252129 225.000000 -0.065253 241.000000 0.049261 30.000000 -0.297197 99.000000 0.036707 121.000000 -0.111129
78312.000000 1.611374 257.000000 248.000000 176.000000 -0.069325 200.000000 0.148245 223.000000 -0.078183 232.000000 -0.005927 12.000000 0.345982 99.000000 -0.013921 125.000000 -0.117790
78807.000000 1.496912 247.000000 255.000000 174.000000 0.017135 201.000000 0.237260 230.000000 -0.078899 238.000000 -0.081015 25.000000 -0.227051 92.000000 0.074215 118.000000 -0.077008
79062.000000 1.479064 255.000000 254.000000 171.000000 0.021568 200.000000 0.227039 217.000000 -0.152179 238.000000 -0.129013 24.000000 -0.298789 95.000000 0.049410 120.000000 -0.046298
79316.000000 1.449594 254.000000 267.000000 184.000000 -0.006896 212.000000 0.204858 240.000000 -0.160485 248.000000 -0.112994 25.000000 -0.242066 101.000000 0.110364 144.000000 -0.082695
80369.000000 1.412742 250.000000 255.000000 173.000000 0.006380 203.000000 0.216836 229.000000 -0.110108 236.000000 -0.088070 22.000000 -0.224874 91.000000 0.058431 121.000000 -0.077367
80624.000000 1.444705 255.000000 257.000000 173.000000 -0.012585 206.000000 0.162619 231.000000 -0.114731 238.000000 -0.071410 26.000000 -0.252100 98.000000 0.108793 127.000000 -0.036160
81130.000000 1.468328 249.000000 249.000000 171.000000 0.003667 197.000000 0.225688 212.000000 -0.075832 232.000000 -0.052744 13.000000 0.111433 96.000000 0.039407 146.000000 -0.090737
81379.000000 1.529812 249.000000 262.000000 175.000000 0.003340 208.000000 0.175551 230.000000 -0.086723 246.000000 -0.092805 19.000000 -0.194182 99.000000 0.086819 137.000000 -0.081741
81641.000000 1.526363 262.000000 265.000000 181.000000 0.024781 212.000000 0.232694 230.000000 -0.092103 250.000000 -0.048183 19.000000 -0.215735 102.000000 0.065115 146.000000 -0.078273
81906.000000 1.466380 265.000000 265.000000 180.000000 0.020502 208.000000 0.239107 228.000000 -0.170219 250.000000 -0.006929 12.000000 0.190284 99.000000 0.122652 135.000000 -0.079280
82171.000000 1.410252 265.000000 266.000000 153.000000 -0.152176 208.000000 0.132604 227.000000 -0.136440 249.000000 -0.083589 13.000000 0.083840 100.000000 0.146760 127.000000 -0.074057
82437.000000 1.538087 266.000000 252.000000 179.000000 0.002161 201.000000 0.266189 219.000000 -0.078953 237.000000 -0.033092 20.000000 -0.227773 103.000000 0.094704 137.000000 -0.065611
82934.000000 1.497355 245.000000 247.000000 171.000000 -0.005344 196.000000 0.188933 222.000000 -0.096364 230.000000 0.050986 12.000000 0.075240 92.000000 0.046508 120.000000 -0.082116
83444.000000 1.505720 263.000000 259.000000 178.000000 0.010550 208.000000 0.277289 232.000000 -0.012630 240.000000 -0.006862 23.000000 -0.260475 97.000000 0.047007 141.000000 -0.136708
83703.000000 1.498764 259.000000 267.000000 184.000000 -0.016428 213.000000 0.179469 242.000000 -0.085357 251.000000 -0.066378 29.000000 -0.283210 103.000000 0.068620 139.000000 -0.096930
83970.000000 1.513402 267.000000 262.000000 142.000000 -0.148037 208.000000 0.177052 236.000000 -0.017162 245.000000 0.043652 23.000000 -0.264697 95.000000 0.084254 132.000000 -0.114306
84746.000000 1.537898 254.000000 257.000000 148.000000 -0.060798 205.000000 0.238776 241.000000 -0.062526 245.000000 -0.102917 13.000000 0.086517 99.000000 0.083009 123.000000 -0.020531
85003.000000 1.431017 257.000000 254.000000 179.000000 0.031538 202.000000 0.245894 222.000000 -0.149704 238.000000 -0.057745 12.000000 0.111473 99.000000 0.096319 129.000000 -0.050815
85257.000000 1.523507 254.000000 248.000000 144.000000 -0.113058 195.000000 0.226896 222.000000 -0.082806 230.000000 -0.065704 19.000000 -0.265035 91.000000 0.065061 121.000000 -0.122054
85760.000000 1.482525 255.000000 271.000000 193.000000 0.086880 218.000000 0.206974 234.000000 -0.144578 255.000000 -0.053731 30.000000 -0.341924 98.000000 0.112415 141.000000 -0.178183
86031.000000 1.513808 271.000000 273.000000 189.000000 0.045986 218.000000 0.143290 233.000000 -0.135253 256.000000 -0.072573 26.000000 -0.290218 103.000000 0.113545 145.000000 -0.191239
87572.000000 1.402372 255.000000 260.000000 168.000000 -0.025908 206.000000 0.230344 233.000000 -0.096269 241.000000 -0.082397 11.000000 0.169016 92.000000 0.142071 144.000000 -0.176611
87832.000000 1.406631 260.000000 262.000000 174.000000 0.000899 209.000000 0.172669 231.000000 -0.110983 247.000000 -0.059258 29.000000 -0.209323 98.000000 0.061176 120.000000 -0.001221
88094.000000 1.394863 262.000000 271.000000 186.000000 0.112399 218.000000 0.149015 244.000000 -0.188287 253.000000 -0.108742 16.000000 -0.136738 105.000000 0.106237 133.000000 -0.050909
88365.000000 1.343216 271.000000 266.000000 176.000000 0.046095 210.000000 0.240530 226.000000 -0.122259 249.000000 -0.045141 23.000000 -0.276721 98.000000 0.129811 134.000000 -0.035408
88631.000000 1.437164 266.000000 270.000000 159.000000 -0.074244 215.000000 0.135395 241.000000 -0.081110 250.000000 -0.024324 20.000000 -0.205892 102.000000 0.110628 135.000000 -0.101221
88901.000000 1.494186 270.000000 255.000000 175.000000 0.027148 208.000000 0.237588 231.000000 -0.045342 238.000000 -0.036314 24.000000 -0.151158 96.000000 0.210766 104.000000 0.082867
89408.000000 1.489217 252.000000 247.000000 137.000000 -0.178370 199.000000 0.198934 215.000000 -0.278652 222.000000 -0.253368 10.000000 0.343513 86.000000 0.050158 110.000000 -0.085563
89912.000000 1.414268 257.000000 259.000000 178.000000 0.069039 207.000000 0.123554 223.000000 -0.176571 242.000000 0.013102 11.000000 0.230553 94.000000 0.008765 116.000000 -0.125547
91233.000000 1.516634 253.000000 253.000000 175.000000 0.044522 198.000000 0.172986 215.000000 -0.145887 237.000000 -0.128003 11.000000 0.375537 97.000000 0.077952 148.000000 -0.065714
91486.000000 1.389235 253.000000 259.000000 172.000000 0.003147 208.000000 0.215858 234.000000 -0.080959 242.000000 -0.055568 23.000000 -0.250502 101.000000 0.115957 139.000000 -0.053793
92000.000000 1.749508 255.000000 254.000000 180.000000 -0.033778 205.000000 0.152319 224.000000 -0.425581 231.000000 -0.401520 3.000000 1.335245 92.000000 0.074275 118.000000 -0.105784
92254.000000 1.523026 254.000000 267.000000 175.000000 0.020002 206.000000 0.227475 237.000000 -0.063058 246.000000 0.003776 27.000000 -0.400923 85.000000 0.204284 105.000000 -0.296687
93330.000000 1.515345 271.000000 253.000000 175.000000 0.080217 201.000000 0.230658 232.000000 -0.039718 237.000000 -0.045063 14.000000 -0.015989 120.000000 0.114919 146.000000 -0.246947
93583.000000 1.462226 253.000000 245.000000 137.000000 -0.181469 194.000000 0.220016 211.000000 -0.073260 229.000000 -0.071977 13.000000 0.180738 95.000000 0.063203 137.000000 -0.181469
94354.000000 1.536410 271.000000 264.000000 176.000000 -0.019168 209.000000 0.204971 228.000000 -0.077818 247.000000 -0.055296 31.000000 -0.260218 96.000000 0.060170 127.000000 -0.075019
95156.000000 1.550063 272.000000 267.000000 143.000000 -0.073887 195.000000 0.988464 216.000000 0.183072 250.000000 0.054123 24.000000 -0.286158 159.000000 0.202538 216.000000 0.183072
95936.000000 1.439717 256.000000 253.000000 176.000000 0.048183 202.000000 0.191131 227.000000 -0.064387 234.000000 -0.032835 25.000000 -0.273422 96.000000 0.054135 141.000000 -0.100641
96189.000000 1.457086 253.000000 256.000000 169.000000 -0.020407 204.000000 0.197742 230.000000 -0.095552 238.000000 -0.063985 27.000000 -0.268464 96.000000 0.076193 125.000000 -0.132099
96445.000000 1.503164 256.000000 262.000000 174.000000 -0.016019 207.000000 0.171348 225.000000 -0.119482 244.000000 -0.060139 23.000000 -0.297919 94.000000 0.086235 125.000000 -0.124470
96707.000000 1.475925 262.000000 278.000000 173.000000 -0.101458 204.000000 -0.018826 225.000000 -0.032258 260.000000 -0.026146 25.000000 -0.131270 101.000000 0.188101 164.000000 -0.118840
96985.000000 1.545892 278.000000 271.000000 185.000000 -0.034009 212.000000 0.151145 240.000000 -0.123181 249.000000 -0.111552 15.000000 0.136315 104.000000 0.136038 148.000000 -0.115121
97256.000000 1.444150 271.000000 265.000000 186.000000 -0.021523 210.000000 0.184827 240.000000 -0.053450 249.000000 -0.056740 28.000000 -0.188389 103.000000 0.079214 128.000000 -0.080755
97777.000000 1.546384 256.000000 253.000000 167.000000 -0.065195 199.000000 0.233461 222.000000 -0.020377 233.000000 0.022947 24.000000 -0.245683 91.000000 0.053684 139.000000 -0.129191
98030.000000 1.590896 253.000000 247.000000 137.000000 -0.219452 194.000000 0.185908 219.000000 -0.070190 227.000000 -0.049233 25.000000 -0.195250 91.000000 0.048508 129.000000 -0.191254
98541.000000 1.485034 264.000000 267.000000 189.000000 0.019768 214.000000 0.182903 243.000000 -0.143569 251.000000 -0.092927 20.000000 -0.225044 97.000000 0.114831 124.000000 -0.090045
99077.000000 1.510217 269.000000 266.000000 179.000000 -0.013556 209.000000 0.188560 227.000000 -0.101925 248.000000 -0.064166 26.000000 -0.271320 99.000000 0.094069 144.000000 -0.136694
99343.000000 1.467464 266.000000 274.000000 187.000000 0.010657 216.000000 0.192381 247.000000 -0.088008 255.000000 -0.063164 24.000000 -0.270356 104.000000 0.094971 143.000000 -0.130082
99617.000000 1.473324 274.000000 264.000000 178.000000 -0.002350 213.000000 0.232559 228.000000 -0.076657 246.000000 -0.067052 25.000000 -0.275012 100.000000 0.091816 151.000000 -0.109107
99881.000000 1.514512 264.000000 254.000000 175.000000 0.002977 201.000000 0.193166 231.000000 -0.064497 238.000000 -0.042271 23.000000 -0.269687 94.000000 0.068665 119.000000 -0.079656
100135.000000 1.494706 254.000000 248.000000 140.000000 -0.074328 195.000000 0.204405 212.000000 -0.070751 232.000000 -0.050236 24.000000 -0.263708 97.000000 0.045250 136.000000 -0.091727
100383.000000 1.499745 248.000000 252.000000 172.000000 -0.008210 198.000000 0.219190 223.000000 -0.067443 232.000000 -0.046581 24.000000 -0.271275 97.000000 0.041782 128.000000 -0.090816
100635.000000 1.529058 252.000000 258.000000 136.000000 -0.120690 205.000000 0.192259 230.000000 -0.107174 239.000000 -0.056296 10.000000 0.458571 97.000000 0.087335 136.000000 -0.120690
101165.000000 1.451831 272.000000 275.000000 191.000000 0.000269 218.000000 0.182652 241.000000 -0.084402 257.000000 -0.059714 28.000000 -0.243839 106.000000 0.092697 144.000000 -0.122729
101440.000000 1.532321 275.000000 260.000000 174.000000 -0.013306 207.000000 0.185741 235.000000 -0.099587 242.000000 -0.081376 26.000000 -0.305970 95.000000 0.083398 125.000000 -0.092008
101700.000000 1.533749 260.000000 257.000000 145.000000 -0.112246 205.000000 0.204937 233.000000 -0.082006 240.000000 -0.071346 27.000000 -0.285262 101.000000 0.054043 145.000000 -0.112246
102469.000000 1.524001 354.000000 250.000000 145.000000 -0.141987 199.000000 0.117120 227.000000 -0.099397 235.000000 -0.053190 27.000000 -0.267551 99.000000 0.137726 138.000000 -0.125782
102973.000000 1.413654 254.000000 261.000000 171.000000 -0.007699 206.000000 0.143477 235.000000 -0.068515 242.000000 -0.059722 19.000000 -0.198570 97.000000 0.094798 149.000000 -0.105643
103234.000000 1.461248 261.000000 268.000000 177.000000 0.013417 210.000000 0.238431 239.000000 -0.087321 247.000000 -0.068528 23.000000 -0.263736 96.000000 0.056393 136.000000 -0.099200
104025.000000 1.499703 263.000000 253.000000 172.000000 0.014184 202.000000 0.223073 229.000000 -0.137207 236.000000 -0.098852 20.000000 -0.226205 96.000000 0.046145 117.000000 -0.058637
104278.000000 1.402306 253.000000 249.000000 168.000000 0.031945 197.000000 0.257180 225.000000 -0.075747 232.000000 -0.060857 21.000000 -0.216750 95.000000 0.041191 116.000000 -0.028623
104771.000000 1.470450 244.000000 256.000000 143.000000 -0.081098 201.000000 0.266675 220.000000 -0.061224 233.000000 -0.047745 25.000000 -0.235430 95.000000 -0.024831 111.000000 -0.082588
105027.000000 1.448979 256.000000 265.000000 182.000000 0.009297 212.000000 0.238122 233.000000 -0.075216 234.000000 -0.085608 23.000000 -0.242729 102.000000 0.092443 128.000000 -0.080628
105817.000000 1.488573 259.000000 263.000000 183.000000 0.022088 211.000000 0.213327 236.000000 -0.084478 245.000000 -0.079149 23.000000 -0.289988 99.000000 0.066642 144.000000 -0.102821
107344.000000 1.504893 255.000000 259.000000 173.000000 0.003589 203.000000 0.207024 221.000000 -0.093148 242.000000 -0.077490 31.000000 -0.280322 96.000000 0.069077 141.000000 -0.107071
107603.000000 1.509515 259.000000 273.000000 181.000000 -0.063195 215.000000 0.203969 245.000000 -0.078883 254.000000 -0.065828 24.000000 -0.266601 106.000000 0.097895 175.000000 -0.036111
107876.000000 1.383091 273.000000 152.000000 56.000000 -0.256704 105.000000 0.101210 117.000000 0.026522 124.000000 -0.041739 28.000000 -0.334432 90.000000 -0.052974 124.000000 -0.041739
108394.000000 1.524215 366.000000 252.000000 175.000000 -0.044529 202.000000 0.170266 222.000000 -0.105311 236.000000 -0.083118 22.000000 -0.273732 96.000000 0.164416 145.000000 -0.130643
108646.000000 1.488216 252.000000 249.000000 140.000000 -0.095549 197.000000 0.194732 213.000000 -0.078229 233.000000 -0.031159 22.000000 -0.271609 91.000000 0.019127 128.000000 -0.096411
109396.000000 1.547555 257.000000 265.000000 186.000000 0.023279 210.000000 0.203703 239.000000 -0.045452 247.000000 -0.053165 11.000000 0.437663 102.000000 0.085714 142.000000 -0.098574
109661.000000 1.501394 265.000000 265.000000 181.000000 -0.012990 208.000000 0.200004 228.000000 -0.095499 249.000000 -0.046627 27.000000 -0.257905 100.000000 0.077568 131.000000 -0.071441
109926.000000 1.495502 265.000000 261.000000 142.000000 -0.121675 207.000000 0.210644 235.000000 -0.080595 243.000000 -0.037333 14.000000 0.081192 99.000000 0.080284 130.000000 -0.079558
110187.000000 1.537540 261.000000 265.000000 178.000000 -0.023242 210.000000 0.217746 227.000000 -0.093540 248.000000 -0.063899 11.000000 0.326365 103.000000 0.080425 170.000000 -0.025060
110715.000000 1.535969 263.000000 248.000000 136.000000 -0.133039 193.000000 0.198309 212.000000 -0.084700 232.000000 -0.051553 25.000000 -0.256071 91.000000 0.029432 136.000000 -0.133039
110963.000000 1.533178 248.000000 243.000000 148.000000 -0.081688 191.000000 0.199597 206.000000 -0.101985 226.000000 -0.043446 17.000000 -0.156995 94.000000 0.023243 136.000000 -0.084024
111206.000000 1.541489 243.000000 250.000000 145.000000 -0.101898 198.000000 0.194625 228.000000 -0.070955 234.000000 -0.080029 25.000000 -0.263687 97.000000 0.042176 120.000000 -0.073872
111456.000000 1.449738 250.000000 255.000000 174.000000 0.013702 202.000000 0.219250 232.000000 -0.047802 238.000000 -0.065154 13.000000 0.122218 93.000000 0.040331 131.000000 -0.087430
111711.000000 1.518370 255.000000 265.000000 166.000000 -0.013649 210.000000 0.202478 212.000000 0.180331 247.000000 -0.019263 23.000000 -0.263573 103.000000 0.076991 147.000000 -0.154263
111976.000000 1.532506 265.000000 271.000000 183.000000 -0.014637 215.000000 0.178263 246.000000 -0.081783 253.000000 -0.066767 24.000000 -0.227467 103.000000 0.119936 136.000000 -0.113792
112247.000000 1.484561 271.000000 260.000000 181.000000 -0.001586 207.000000 0.169887 227.000000 -0.126070 245.000000 -0.064955 21.000000 -0.208357 101.000000 0.069499 133.000000 -0.089120
113270.000000 1.478839 257.000000 248.000000 171.000000 0.021189 193.000000 0.215076 223.000000 -0.062196 230.000000 -0.025846 27.000000 -0.265736 92.000000 0.032997 122.000000 -0.078588
113518.000000 1.526806 248.000000 255.000000 150.000000 -0.109359 202.000000 0.198098 218.000000 -0.097576 239.000000 -0.037385 11.000000 0.341526 96.000000 0.052261 138.000000 -0.102258
113773.000000 1.559987 255.000000 261.000000 147.000000 -0.114610 206.000000 0.181501 228.000000 -0.090144 239.000000 -0.079720 24.000000 -0.246356 97.000000 0.069581 132.000000 -0.123998
114034.000000 1.479517 261.000000 269.000000 136.000000 -0.112518 211.000000 0.197175 232.000000 -0.085412 253.000000 -0.060740 23.000000 -0.238507 102.000000 0.065522 137.000000 -0.106938
114567.000000 1.538745 264.000000 266.000000 185.000000 -0.005387 210.000000 0.182873 240.000000 -0.067363 248.000000 -0.063571 22.000000 -0.236572 102.000000 0.089920 132.000000 -0.089561
114833.000000 1.538089 266.000000 254.000000 175.000000 -0.007426 203.000000 0.194924 220.000000 -0.087176 239.000000 -0.062806 21.000000 -0.202449 100.000000 0.030751 129.000000 -0.089906
115337.000000 1.542459 250.000000 244.000000 130.000000 -0.093136 195.000000 0.188558 211.000000 -0.106819 229.000000 -0.051221 22.000000 -0.271808 88.000000 0.022897 130.000000 -0.093136
116104.000000 1.500816 267.000000 271.000000 177.000000 -0.007256 214.000000 0.192823 242.000000 -0.108820 253.000000 -0.068869 11.000000 0.347601 102.000000 0.086785 146.000000 -0.115454
116375.000000 1.553370 271.000000 264.000000 177.000000 -0.020097 208.000000 0.192725 227.000000 -0.095270 248.000000 -0.080252 21.000000 -0.214232 96.000000 0.088305 144.000000 -0.154626
116900.000000 1.496567 261.000000 257.000000 178.000000 -0.002381 205.000000 0.220798 231.000000 -0.066693 240.000000 -0.053842 21.000000 -0.195813 98.000000 0.056459 103.000000 0.045018
117157.000000 1.550216 257.000000 255.000000 139.000000 -0.111535 200.000000 0.178480 232.000000 -0.082177 239.000000 -0.064639 20.000000 -0.218799 96.000000 0.056092 176.000000 0.006742
117412.000000 1.492430 255.000000 255.000000 130.000000 -0.088607 203.000000 0.215755 221.000000 -0.067332 240.000000 -0.035374 22.000000 -0.236393 96.000000 0.047147 135.000000 -0.101303
117667.000000 1.507476 255.000000 249.000000 166.000000 0.000628 195.000000 0.137602 212.000000 -0.117648 234.000000 -0.162021 22.000000 -0.261915 99.000000 0.037572 140.000000 -0.098176
118173.000000 1.517286 257.000000 170.000000 60.000000 -0.318056 103.000000 0.078326 126.000000 -0.000531 146.000000 -0.065329 22.000000 -0.361035 97.000000 0.096695 123.000000 -0.014544
118343.000000 2.101737 170.000000 371.000000 288.000000 -0.014735 315.000000 0.185563 342.000000 -0.097555 353.000000 -0.066190 19.000000 -0.303014 172.000000 0.078037 183.000000 0.035043
118714.000000 1.518307 371.000000 267.000000 181.000000 -0.050848 212.000000 0.210626 235.000000 -0.079797 253.000000 -0.046614 23.000000 -0.277507 102.000000 0.182524 148.000000 -0.147840
119486.000000 1.459422 249.000000 251.000000 172.000000 -0.015471 199.000000 0.210517 227.000000 -0.091456 234.000000 -0.059543 26.000000 -0.307143 93.000000 0.071522 118.000000 -0.100457
119737.000000 1.470317 251.000000 250.000000 138.000000 -0.025327 164.000000 0.026379 183.000000 -0.910879 236.000000 -0.043952 25.000000 -0.230513 93.000000 0.104548 116.000000 0.011587
120243.000000 1.515266 256.000000 264.000000 187.000000 -0.007618 209.000000 0.208388 226.000000 -0.095702 248.000000 -0.056738 28.000000 -0.288453 103.000000 0.063881 144.000000 -0.111020
120776.000000 1.531681 269.000000 258.000000 178.000000 -0.018810 201.000000 0.199309 220.000000 -0.124219 240.000000 -0.063059 22.000000 -0.248066 97.000000 0.051649 136.000000 -0.089451
121034.000000 1.497428 258.000000 267.000000 183.000000 -0.006159 212.000000 0.187899 243.000000 -0.071083 250.000000 -0.076490 16.000000 -0.028683 102.000000 0.107558 146.000000 -0.110955
121301.000000 1.510927 267.000000 258.000000 182.000000 -0.010942 207.000000 0.217976 237.000000 -0.046257 242.000000 -0.058153 22.000000 -0.224744 100.000000 0.057247 146.000000 -0.105328
122838.000000 1.451300 271.000000 274.000000 185.000000 -0.024763 218.000000 0.179090 238.000000 -0.099406 259.000000 -0.094172 26.000000 -0.269432 106.000000 0.088767 128.000000 -0.081233
123377.000000 1.502022 265.000000 251.000000 149.000000 -0.118544 202.000000 0.198560 226.000000 -0.129010 234.000000 -0.097724 25.000000 -0.281378 95.000000 0.095314 150.000000 -0.143011
123628.000000 1.312637 251.000000 251.000000 142.000000 -0.072478 197.000000 0.199512 228.000000 -0.055409 235.000000 -0.058684 22.000000 -0.414225 84.000000 0.087854 114.000000 -0.041818
123879.000000 1.554826 251.000000 261.000000 181.000000 0.008635 205.000000 0.207381 231.000000 -0.102322 247.000000 -0.092933 21.000000 -0.238826 96.000000 0.066770 116.000000 -0.060174
124644.000000 1.437716 253.000000 267.000000 184.000000 0.012268 213.000000 0.191973 231.000000 -0.069172 251.000000 -0.056051 24.000000 -0.271938 100.000000 0.085095 126.000000 -0.084391
124911.000000 1.424201 267.000000 271.000000 186.000000 0.014627 217.000000 0.195145 243.000000 -0.113634 253.000000 -0.057835 21.000000 -0.228273 102.000000 0.097322 148.000000 -0.099013
125182.000000 1.476724 271.000000 266.000000 173.000000 0.021266 210.000000 0.199653 227.000000 -0.101883 250.000000 -0.058811 26.000000 -0.289878 97.000000 0.114656 131.000000 -0.082930
125715.000000 1.524293 267.000000 254.000000 148.000000 -0.101487 204.000000 0.189441 228.000000 -0.065591 237.000000 -0.094604 11.000000 0.350861 97.000000 0.054104 141.000000 -0.129747
125969.000000 1.392667 254.000000 142.000000 44.000000 -0.268947 99.000000 0.095005 121.000000 -0.031687 121.000000 -0.031687 17.000000 -0.182789 83.000000 -0.042676 110.000000 0.007074
126111.000000 2.024300 142.000000 355.000000 242.000000 -0.121021 301.000000 0.207399 321.000000 -0.075780 339.000000 -0.061754 19.000000 -0.354843 121.000000 0.075089 149.000000 0.003194
126734.000000 1.473403 268.000000 266.000000 178.000000 -0.019154 211.000000 0.191036 231.000000 -0.094545 256.000000 0.028827 25.000000 -0.242229 103.000000 0.057457 136.000000 -0.114782
127000.000000 1.460753 266.000000 269.000000 184.000000 0.002622 214.000000 0.200130 231.000000 -0.107597 253.000000 -0.048903 9.000000 0.426819 106.000000 0.096111 139.000000 -0.064845
127536.000000 1.494858 267.000000 262.000000 171.000000 0.000818 207.000000 0.210958 223.000000 -0.100186 245.000000 -0.053008 25.000000 -0.284583 99.000000 0.095910 132.000000 -0.091111
127798.000000 1.522885 262.000000 253.000000 171.000000 -0.002349 202.000000 0.222962 221.000000 -0.068808 238.000000 -0.059701 11.000000 0.311222 96.000000 0.034434 130.000000 -0.125973
128309.000000 1.437244 258.000000 256.000000 179.000000 0.045785 206.000000 0.204122 232.000000 -0.053810 239.000000 -0.046740 11.000000 0.349612 95.000000 0.061180 137.000000 -0.078508
128565.000000 1.479752 256.000000 254.000000 150.000000 -0.088012 204.000000 0.194140 217.000000 -0.089934 238.000000 -0.067491 22.000000 -0.249744 96.000000 0.059028 132.000000 -0.080396
129351.000000 1.499659 272.000000 275.000000 187.000000 -0.036145 220.000000 0.196284 236.000000 -0.119830 259.000000 -0.052104 25.000000 -0.263448 107.000000 0.096149 149.000000 -0.125590
129626.000000 1.480000 275.000000 265.000000 179.000000 0.004276 212.000000 0.182693 229.000000 -0.105614 249.000000 -0.097180 20.000000 -0.216846 97.000000 0.081335 149.000000 -0.101834
129891.000000 1.495938 265.000000 252.000000 140.000000 -0.104734 198.000000 0.237071 215.000000 -0.041864 236.000000 -0.080863 21.000000 -0.280391 97.000000 0.044795 106.000000 -0.028731
130143.000000 1.432019 252.000000 249.000000 150.000000 -0.059232 197.000000 0.206377 217.000000 -0.084076 233.000000 -0.099295 21.000000 -0.244455 95.000000 0.026897 121.000000 -0.066267
130392.000000 1.427884 249.000000 253.000000 163.000000 -0.008745 202.000000 0.218168 220.000000 -0.079497 237.000000 -0.039105 20.000000 -0.247805 99.000000 0.051049 135.000000 -0.063023
130645.000000 1.469074 253.000000 255.000000 168.000000 -0.004660 201.000000 0.215528 230.000000 -0.067324 238.000000 -0.054657 22.000000 -0.262385 92.000000 0.071020 124.000000 -0.091504
130900.000000 1.518919 255.000000 261.000000 174.000000 0.022693 204.000000 0.216799 232.000000 -0.079297 241.000000 -0.062572 25.000000 -0.260954 95.000000 0.059218 100.000000 0.028748
131161.000000 1.496082 261.000000 263.000000 174.000000 -0.004265 206.000000 0.215703 212.000000 0.199574 247.000000 -0.083873 27.000000 -0.270813 100.000000 0.085940 137.000000 -0.100830
131954.000000 1.404419 264.000000 265.000000 154.000000 -0.061734 210.000000 0.195726 238.000000 -0.120888 248.000000 -0.058648 12.000000 0.186080 103.000000 0.074892 127.000000 -0.029856
132219.000000 1.419467 265.000000 250.000000 168.000000 0.012380 198.000000 0.207770 225.000000 -0.083376 232.000000 -0.066650 11.000000 0.341519 97.000000 0.047712 132.000000 -0.061661
132469.000000 1.505169 250.000000 248.000000 135.000000 -0.087570 200.000000 0.215674 223.000000 -0.096553 231.000000 -0.066992 25.000000 -0.262132 100.000000 0.041335 147.000000 -0.071050
132964.000000 1.440231 247.000000 258.000000 126.000000 -0.093182 202.000000 0.228463 229.000000 -0.066523 236.000000 -0.074376 23.000000 -0.279504 96.000000 0.074306 126.000000 -0.093182
133485.000000 1.429046 263.000000 272.000000 183.000000 -0.048180 216.000000 0.191962 244.000000 -0.098008 252.000000 -0.064466 22.000000 -0.223621 103.000000 0.070455 143.000000 -0.104044
134026.000000 1.481174 269.000000 262.000000 181.000000 0.019105 209.000000 0.204341 229.000000 -0.094891 236.000000 -0.088544 18.000000 -0.188686 95.000000 0.063526 126.000000 -0.056127
135047.000000 1.479345 259.000000 256.000000 152.000000 -0.083418 203.000000 0.193121 219.000000 -0.088367 241.000000 -0.071882 11.000000 0.304361 95.000000 0.061505 129.000000 -0.094188
135559.000000 1.449623 256.000000 268.000000 173.000000 -0.061900 212.000000 0.200452 241.000000 -0.083592 250.000000 -0.066805 26.000000 -0.258511 104.000000 0.082538 142.000000 -0.109831
136095.000000 1.476722 268.000000 269.000000 188.000000 0.006940 217.000000 0.185434 232.000000 -0.105145 253.000000 -0.047353 26.000000 -0.260063 103.000000 0.091931 135.000000 -0.092960
136626.000000 1.491728 262.000000 252.000000 126.000000 -0.113210 200.000000 0.204042 219.000000 -0.063764 235.000000 -0.056318 19.000000 -0.199492 92.000000 0.044770 126.000000 -0.113210
136878.000000 1.470408 252.000000 248.000000 173.000000 0.013289 195.000000 0.172065 224.000000 -0.071506 231.000000 -0.050439 25.000000 -0.283524 91.000000 0.045831 122.000000 -0.077886
137126.000000 1.455909 248.000000 253.000000 143.000000 -0.039092 199.000000 0.160186 220.000000 -0.123747 236.000000 -0.087713 19.000000 -0.199343 92.000000 0.061956 123.000000 -0.057023
137379.000000 1.443984 253.000000 271.000000 187.000000 -0.009103 215.000000 0.163312 232.000000 -0.116358 254.000000 -0.081562 23.000000 -0.301344 101.000000 0.153466 145.000000 -0.078686
137650.000000 1.521963 271.000000 267.000000 182.000000 -0.029526 210.000000 0.183702 239.000000 -0.059433 247.000000 -0.065938 23.000000 -0.257602 101.000000 0.084892 147.000000 -0.143900
137917.000000 1.439780 267.000000 267.000000 187.000000 -0.002538 213.000000 0.192229 238.000000 -0.080420 247.000000 -0.048947 31.000000 -0.234144 104.000000 0.091545 138.000000 -0.113543
138184.000000 1.484092 267.000000 263.000000 149.000000 -0.087573 208.000000 0.171034 228.000000 -0.115407 248.000000 -0.130031 26.000000 -0.265043 101.000000 0.091285 139.000000 -0.095600
138962.000000 1.445817 250.000000 257.000000 175.000000 0.023496 204.000000 0.196349 226.000000 -0.101676 241.000000 -0.051741 26.000000 -0.263288 96.000000 0.045738 125.000000 -0.073180
139219.000000 1.466910 257.000000 255.000000 172.000000 0.032193 205.000000 0.185719 220.000000 -0.096571 236.000000 -0.067148 23.000000 -0.283011 97.000000 0.039031 144.000000 -0.093807
139474.000000 1.440362 255.000000 255.000000 174.000000 0.007678 202.000000 0.213603 225.000000 -0.101477 241.000000 -0.081444 22.000000 -0.256113 94.000000 0.076740 135.000000 -0.097178
139994.000000 1.493636 265.000000 278.000000 194.000000 0.064031 221.000000 0.247622 250.000000 -0.056062 258.000000 -0.032504 9.000000 0.498839 105.000000 0.020842 130.000000 -0.158184
141559.000000 1.433764 251.000000 264.000000 176.000000 0.003508 211.000000 0.187068 228.000000 -0.099124 249.000000 -0.088465 23.000000 -0.272128 97.000000 0.087682 138.000000 -0.115174
141823.000000 1.475536 264.000000 270.000000 191.000000 -0.000063 216.000000 0.190705 243.000000 -0.085455 252.000000 -0.060094 20.000000 -0.202361 104.000000 0.093247 148.000000 -0.117304
142093.000000 1.441695 270.000000 267.000000 176.000000 -0.039718 212.000000 0.217961 229.000000 -0.057822 249.000000 -0.051066 29.000000 -0.263256 97.000000 0.082686 143.000000 -0.108588
142360.000000 1.463669 267.000000 263.000000 151.000000 -0.105267 208.000000 0.225161 225.000000 -0.091063 245.000000 -0.062268 23.000000 -0.225216 100.000000 0.087898 133.000000 -0.085707
143912.000000 1.456612 256.000000 263.000000 180.000000 -0.007051 211.000000 0.179501 226.000000 -0.097818 246.000000 -0.046080 22.000000 -0.248203 96.000000 0.080576 143.000000 -0.114936
144722.000000 1.477557 274.000000 264.000000 185.000000 -0.006188 210.000000 0.206226 214.000000 0.127213 248.000000 -0.062896 26.000000 -0.256744 102.000000 0.067833 143.000000 -0.107242
144986.000000 1.496349 264.000000 259.000000 179.000000 0.007527 205.000000 0.171742 226.000000 -0.113586 243.000000 -0.075581 14.000000 0.059559 96.000000 0.084135 125.000000 -0.073904
145245.000000 1.427520 259.000000 251.000000 173.000000 -0.002504 198.000000 0.181085 213.000000 -0.095561 235.000000 -0.042415 20.000000 -0.213002 90.000000 0.076736 134.000000 -0.103757
145496.000000 1.499997 251.000000 257.000000 175.000000 0.006776 199.000000 0.189643 232.000000 -0.113555 238.000000 -0.075656 12.000000 0.129462 91.000000 0.082130 100.000000 0.044420
145753.000000 1.438213 257.000000 255.000000 179.000000 0.012506 201.000000 0.198620 224.000000 -0.086899 244.000000 -0.027336 24.000000 -0.296948 97.000000 0.063462 131.000000 -0.064324
146008.000000 1.517306 255.000000 259.000000 180.000000 0.015345 207.000000 0.176004 222.000000 -0.105237 243.000000 -0.068464 16.000000 -0.124415 101.000000 0.072180 127.000000 -0.085094
146267.000000 1.456397 259.000000 263.000000 184.000000 -0.014070 208.000000 0.149363 235.000000 -0.076500 244.000000 -0.032830 24.000000 -0.292237 99.000000 0.097997 137.000000 -0.115610
147583.000000 1.473339 255.000000 251.000000 136.000000 -0.110486 198.000000 0.213493 224.000000 -0.087716 232.000000 -0.081760 29.000000 -0.276869 91.000000 0.042273 136.000000 -0.110486
147834.000000 1.502661 251.000000 248.000000 165.000000 -0.013904 196.000000 0.206567 217.000000 -0.078308 233.000000 -0.056880 24.000000 -0.280162 95.000000 0.015283 113.000000 -0.069199
148082.000000 1.481442 248.000000 260.000000 178.000000 -0.004605 204.000000 0.192353 222.000000 -0.091455 243.000000 -0.071142 22.000000 -0.247836 103.000000 0.048749 134.000000 -0.111895
148342.000000 1.469623 260.000000 270.000000 145.000000 -0.125706 215.000000 0.191268 232.000000 -0.090128 253.000000 -0.049170 22.000000 -0.219660 105.000000 0.088099 136.000000 -0.064610
149143.000000 1.486146 259.000000 258.000000 136.000000 -0.111096 204.000000 0.186661 221.000000 -0.069530 243.000000 -0.022411 11.000000 0.297371 102.000000 0.043687 136.000000 -0.111096
149905.000000 1.477573 252.000000 256.000000 140.000000 -0.094267 204.000000 0.187742 223.000000 -0.085203 241.000000 -0.047003 25.000000 -0.249587 91.000000 0.078762 92.000000 0.075800
150161.000000 1.481839 256.000000 254.000000 169.000000 -0.015438 201.000000 0.191351 217.000000 -0.099198 237.000000 -0.056928 19.000000 -0.203473 94.000000 0.065110 121.000000 -0.075096
150937.000000 1.506131 266.000000 276.000000 192.000000 -0.014798 219.000000 0.197693 241.000000 -0.078889 258.000000 -0.044531 14.000000 0.111098 108.000000 0.081144 138.000000 -0.115595
151213.000000 1.503496 276.000000 259.000000 177.000000 0.004342 206.000000 0.198980 232.000000 -0.110503 241.000000 -0.068951 21.000000 -0.218840 99.000000 0.085396 127.000000 -0.065169
151972.000000 1.509954 249.000000 251.000000 173.000000 -0.004484 202.000000 0.182803 225.000000 -0.106555 234.000000 -0.055331 11.000000 0.303497 94.000000 0.060881 128.000000 -0.075218
152474.000000 1.579076 251.000000 260.000000 143.000000 -0.110093 204.000000 0.190625 226.000000 -0.105851 243.000000 -0.068812 27.000000 -0.299778 97.000000 0.076443 133.000000 -0.100343
152734.000000 1.490957 260.000000 267.000000 186.000000 -0.011208 214.000000 0.197333 232.000000 -0.098717 259.000000 0.404669 23.000000 -0.240544 105.000000 0.086698 147.000000 -0.117113
153001.000000 1.487898 267.000000 267.000000 187.000000 -0.017006 212.000000 0.165313 243.000000 -0.093951 250.000000 -0.090220 7.000000 0.745047 104.000000 0.098828 172.000000 -0.018760
153268.000000 1.573178 267.000000 262.000000 143.000000 -0.121081 208.000000 0.216270 234.000000 -0.069059 243.000000 -0.048337 21.000000 -0.251228 96.000000 0.075045 143.000000 -0.121081
153530.000000 1.538954 262.000000 266.000000 181.000000 0.011955 211.000000 0.206519 241.000000 -0.068886 249.000000 -0.069810 23.000000 -0.259980 102.000000 0.089716 131.000000 -0.092559
153796.000000 1.496304 266.000000 257.000000 181.000000 -0.001693 204.000000 0.187461 226.000000 -0.081126 240.000000 -0.051802 23.000000 -0.229038 100.000000 0.059310 138.000000 -0.111993
154053.000000 1.540798 257.000000 252.000000 170.000000 -0.003823 200.000000 0.181082 217.000000 -0.099404 237.000000 -0.051068 10.000000 0.275468 90.000000 0.063038 116.000000 -0.089262
154305.000000 1.608634 252.000000 251.000000 134.000000 -0.136899 197.000000 0.192348 213.000000 -0.086383 234.000000 -0.039155 22.000000 -0.262887 89.000000 0.065377 134.000000 -0.136899
154556.000000 1.545784 251.000000 260.000000 176.000000 0.001546 204.000000 0.207566 222.000000 -0.091980 244.000000 -0.074895 22.000000 -0.276742 96.000000 0.082777 141.000000 -0.128024
154816.000000 1.520735 260.000000 263.000000 184.000000 0.018940 207.000000 0.179802 224.000000 -0.103381 246.000000 -0.071406 23.000000 -0.261222 99.000000 0.074421 142.000000 -0.115811
155079.000000 1.542383 263.000000 275.000000 186.000000 0.008922 215.000000 0.178578 237.000000 -0.108007 259.000000 -0.057395 25.000000 -0.291165 101.000000 0.100153 148.000000 -0.122554
155354.000000 1.492884 275.000000 275.000000 178.000000 -0.019436 217.000000 0.159276 237.000000 -0.162793 258.000000 -0.096160 21.000000 -0.241649 103.000000 0.104344 145.000000 -0.105152
155886.000000 1.553711 257.000000 250.000000 172.000000 0.022645 200.000000 0.235404 215.000000 -0.053890 236.000000 -0.049906 25.000000 -0.258374 98.000000 0.019607 114.000000 -0.090738
157166.000000 1.460646 360.000000 265.000000 184.000000 -0.025756 210.000000 0.193303 238.000000 -0.095851 245.000000 -0.082324 19.000000 -0.214006 102.000000 0.185224 148.000000 -0.138779
157698.000000 1.453137 267.000000 266.000000 186.000000 -0.004638 206.000000 0.198248 225.000000 -0.076814 251.000000 -0.090856 27.000000 -0.237597 99.000000 0.068369 108.000000 0.010954
157964.000000 1.513957 266.000000 259.000000 180.000000 0.022470 206.000000 0.222034 222.000000 -0.075410 244.000000 -0.101584 13.000000 0.146857 96.000000 0.058952 128.000000 -0.110410
158223.000000 1.515661 259.000000 247.000000 171.000000 0.014712 197.000000 0.201124 216.000000 -0.138217 232.000000 -0.166116 21.000000 -0.243976 100.000000 0.048607 172.000000 0.009916
158470.000000 1.411864 247.000000 249.000000 58.000000 -0.380939 150.000000 0.393540 199.000000 -0.103688 234.000000 -0.229160 21.000000 -0.341677 124.000000 0.668102 186.000000 -0.146384
158719.000000 1.346329 249.000000 248.000000 162.000000 -0.064981 195.000000 0.146022 210.000000 -0.127881 233.000000 -0.070592 19.000000 -0.325626 96.000000 0.056330 138.000000 -0.056302
159497.000000 1.463758 267.000000 267.000000 187.000000 -0.004626 214.000000 0.223303 231.000000 -0.082370 251.000000 -0.072070 25.000000 -0.256237 105.000000 0.075172 143.000000 -0.068120
160531.000000 1.468326 249.000000 250.000000 176.000000 0.000030 200.000000 0.209528 224.000000 -0.061382 231.000000 -0.056131 9.000000 0.370910 98.000000 0.076157 138.000000 -0.084688
161288.000000 1.455000 254.000000 259.000000 179.000000 0.204778 205.000000 0.257365 222.000000 -0.072948 242.000000 -0.031977 26.000000 -0.283452 97.000000 -0.072274 129.000000 -0.151254
161547.000000 1.504714 259.000000 268.000000 182.000000 -0.015311 210.000000 0.154940 230.000000 -0.169919 252.000000 -0.145906 27.000000 -0.251008 102.000000 0.097379 132.000000 -0.089733
161815.000000 1.404660 268.000000 274.000000 189.000000 0.005373 218.000000 0.208354 237.000000 -0.115108 258.000000 -0.080595 24.000000 -0.253675 105.000000 0.118074 147.000000 -0.088562
162350.000000 1.492744 261.000000 245.000000 128.000000 -0.080317 195.000000 0.194999 210.000000 -0.074813 229.000000 -0.060926 24.000000 -0.250467 97.000000 0.032681 128.000000 -0.080317
162595.000000 1.436206 245.000000 247.000000 170.000000 0.007628 196.000000 0.208145 222.000000 -0.093689 229.000000 -0.052057 23.000000 -0.263483 97.000000 0.032667 144.000000 -0.065142
162842.000000 1.509545 247.000000 251.000000 173.000000 -0.014782 202.000000 0.182662 227.000000 -0.087543 235.000000 -0.050535 25.000000 -0.247238 96.000000 0.056386 131.000000 -0.082536
163608.000000 1.408403 262.000000 151.000000 56.000000 -0.238384 105.000000 0.091649 123.000000 -0.011533 126.000000 -0.043320 26.000000 -0.341850 89.000000 -0.085641 120.000000 0.010097
163759.000000 2.118701 151.000000 382.000000 302.000000 -0.020721 331.000000 0.156725 356.000000 -0.106535 363.000000 -0.076112 22.000000 -0.335047 163.000000 0.096958 246.000000 -0.110186
164406.000000 1.494686 265.000000 263.000000 178.000000 0.020930 207.000000 0.188955 230.000000 -0.100403 247.000000 -0.086627 22.000000 -0.248517 99.000000 0.072975 141.000000 -0.111578
164669.000000 1.507930 263.000000 253.000000 176.000000 0.002231 201.000000 0.205270 220.000000 -0.093399 237.000000 -0.047241 25.000000 -0.272985 100.000000 0.049291 145.000000 -0.094322
165172.000000 1.521989 250.000000 249.000000 170.000000 -0.032881 196.000000 0.192745 226.000000 -0.098696 232.000000 -0.056173 11.000000 0.221815 89.000000 0.080267 127.000000 -0.093462
165421.000000 1.494123 249.000000 259.000000 177.000000 0.014516 205.000000 0.206304 232.000000 -0.098806 239.000000 -0.080876 20.000000 -0.222428 92.000000 0.077790 123.000000 -0.083009
166216.000000 1.486773 369.000000 276.000000 196.000000 -0.034203 222.000000 0.164465 254.000000 -0.097745 260.000000 -0.064140 27.000000 -0.303008 108.000000 0.212734 154.000000 -0.121142
166752.000000 1.490892 260.000000 247.000000 134.000000 -0.130001 195.000000 0.273170 213.000000 -0.031204 239.000000 0.309138 25.000000 -0.283667 94.000000 0.022067 135.000000 -0.129561
166999.000000 1.508652 247.000000 255.000000 172.000000 0.038278 201.000000 0.222054 229.000000 -0.080187 237.000000 -0.067098 4.000000 1.059372 93.000000 0.015282 113.000000 -0.084875
167254.000000 1.511477 255.000000 258.000000 175.000000 -0.005407 203.000000 0.201003 222.000000 -0.108793 242.000000 -0.072241 26.000000 -0.282098 96.000000 0.076774 175.000000 -0.005407
167512.000000 1.515376 258.000000 256.000000 147.000000 -0.093795 203.000000 0.184373 221.000000 -0.089531 239.000000 -0.059155 23.000000 -0.249841 90.000000 0.064262 137.000000 -0.118858
168028.000000 1.508164 260.000000 268.000000 187.000000 0.012431 210.000000 0.215219 230.000000 -0.116285 252.000000 -0.083103 28.000000 -0.274289 102.000000 0.082249 135.000000 -0.097738
168562.000000 1.505878 266.000000 265.000000 174.000000 -0.001430 210.000000 0.210611 229.000000 -0.096112 249.000000 -0.049323 12.000000 0.216110 101.000000 0.051844 136.000000 -0.107385
168827.000000 1.498343 265.000000 260.000000 175.000000 -0.007415 207.000000 0.210153 224.000000 -0.081443 246.000000 -0.087760 22.000000 -0.221574 96.000000 0.071620 130.000000 -0.056615
169335.000000 1.512946 248.000000 251.000000 177.000000 -0.001693 198.000000 0.213747 215.000000 -0.091175 234.000000 -0.044715 14.000000 0.031786 96.000000 0.039433 133.000000 -0.091492
169586.000000 1.532419 251.000000 256.000000 176.000000 0.036675 204.000000 0.194197 221.000000 -0.095818 240.000000 -0.049484 19.000000 -0.209539 91.000000 0.089704 138.000000 -0.099751
170115.000000 1.495360 273.000000 266.000000 187.000000 0.000610 211.000000 0.201065 227.000000 -0.123182 249.000000 -0.080501 12.000000 0.196677 98.000000 0.095955 144.000000 -0.095941
170650.000000 1.556441 269.000000 265.000000 182.000000 -0.011100 210.000000 0.204952 240.000000 -0.076287 248.000000 -0.080316 27.000000 -0.292028 96.000000 0.079834 133.000000 -0.124675
171176.000000 1.517887 261.000000 252.000000 167.000000 -0.006146 197.000000 0.209356 225.000000 -0.098027 233.000000 -0.080958 27.000000 -0.277554 92.000000 0.018967 129.000000 -0.117507
171428.000000 1.510438 252.000000 255.000000 175.000000 0.010927 205.000000 0.202493 224.000000 -0.084120 239.000000 -0.088510 27.000000 -0.288101 91.000000 0.073763 121.000000 -0.088039
171683.000000 1.501287 255.000000 253.000000 175.000000 -0.023108 202.000000 0.223960 222.000000 -0.093706 239.000000 -0.060226 23.000000 -0.306500 96.000000 0.056507 143.000000 -0.085066
172461.000000 1.524138 264.000000 270.000000 185.000000 -0.004637 217.000000 0.206852 243.000000 -0.124199 253.000000 -0.065987 27.000000 -0.273680 102.000000 0.094140 145.000000 -0.107086
173000.000000 1.481218 269.000000 262.000000 183.000000 -0.002256 210.000000 0.246961 226.000000 -0.113541 247.000000 -0.082174 4.000000 1.007739 97.000000 0.096723 138.000000 -0.075486
173262.000000 1.435837 262.000000 247.000000 148.000000 -0.076002 195.000000 0.218841 211.000000 -0.121865 232.000000 -0.101865 24.000000 -0.279460 95.000000 0.064692 130.000000 -0.071851
173932.000000 1.073107 175.000000 340.000000 237.000000 -0.082572 292.000000 0.188935 306.000000 -0.089231 322.000000 -0.067570 16.000000 -0.685843 91.000000 0.356664 137.000000 -0.017269
174543.000000 1.489592 271.000000 263.000000 179.000000 0.006588 206.000000 0.200632 240.000000 -0.061452 246.000000 -0.057863 23.000000 -0.276522 96.000000 0.063761 133.000000 -0.084998
174806.000000 1.470632 263.000000 265.000000 187.000000 0.000689 212.000000 0.204720 228.000000 -0.079716 249.000000 -0.059325 26.000000 -0.281220 103.000000 0.101626 140.000000 -0.073968
175591.000000 1.423996 263.000000 248.000000 166.000000 -0.002352 196.000000 0.196754 212.000000 -0.094327 232.000000 -0.078745 14.000000 0.058542 92.000000 0.065266 123.000000 -0.057602
175839.000000 1.486598 248.000000 248.000000 170.000000 0.001272 198.000000 0.193841 227.000000 -0.095865 233.000000 -0.108060 25.000000 -0.262225 96.000000 0.043667 139.000000 -0.061971
176601.000000 1.537685 265.000000 270.000000 184.000000 -0.023496 212.000000 0.204545 228.000000 -0.082853 251.000000 -0.057949 13.000000 0.162889 98.000000 0.074613 140.000000 -0.132144
176871.000000 1.471676 270.000000 267.000000 183.000000 0.002676 210.000000 0.231532 240.000000 -0.073419 248.000000 -0.081852 27.000000 -0.299483 102.000000 0.078936 126.000000 -0.077006
177138.000000 1.482398 267.000000 264.000000 186.000000 -0.002369 211.000000 0.219340 236.000000 -0.129451 244.000000 -0.114984 14.000000 0.045786 84.000000 0.296288 135.000000 -0.083870
177402.000000 1.467305 264.000000 256.000000 177.000000 -0.040517 206.000000 0.194214 222.000000 -0.134342 241.000000 -0.073637 14.000000 0.007634 104.000000 0.094512 120.000000 -0.046004
177902.000000 1.456879 244.000000 254.000000 173.000000 -0.016534 199.000000 0.265439 227.000000 -0.088715 236.000000 -0.027274 14.000000 0.041564 93.000000 0.059764 120.000000 -0.057743
178156.000000 1.630920 254.000000 256.000000 180.000000 0.019895 207.000000 0.233844 227.000000 -0.081315 240.000000 -0.062211 14.000000 0.085651 100.000000 0.045858 131.000000 -0.086300
179192.000000 1.501900 268.000000 261.000000 177.000000 0.012305 208.000000 0.218388 236.000000 -0.079763 244.000000 -0.073635 27.000000 -0.269541 101.000000 0.059203 166.000000 -0.037179
179453.000000 1.518354 261.000000 260.000000 185.000000 -0.019656 207.000000 0.185672 226.000000 -0.126382 242.000000 -0.071366 26.000000 -0.285060 97.000000 0.058556 104.000000 0.034999
179713.000000 1.492961 260.000000 258.000000 167.000000 -0.012447 207.000000 0.236298 230.000000 -0.101224 238.000000 -0.093668 25.000000 -0.275520 94.000000 0.113058 125.000000 -0.089576
180463.000000 1.476754 247.000000 258.000000 149.000000 -0.106472 204.000000 0.192351 231.000000 -0.100471 241.000000 -0.064842 28.000000 -0.267118 96.000000 0.079215 122.000000 -0.048479
180721.000000 1.538342 258.000000 273.000000 176.000000 0.019075 215.000000 0.218090 234.000000 -0.128273 258.000000 -0.153587 15.000000 -0.008867 105.000000 0.112698 149.000000 -0.119812
181259.000000 1.565249 265.000000 263.000000 181.000000 -0.039156 210.000000 0.206802 236.000000 -0.078794 248.000000 -0.067712 17.000000 -0.086430 101.000000 0.061812 138.000000 -0.141978
181522.000000 1.495253 263.000000 262.000000 176.000000 -0.021412 208.000000 0.210769 224.000000 -0.089746 247.000000 -0.096237 22.000000 -0.230717 100.000000 0.083761 146.000000 -0.094596
181784.000000 1.515000 262.000000 254.000000 176.000000 -0.011191 204.000000 0.189609 230.000000 -0.088430 238.000000 -0.081016 12.000000 0.189559 95.000000 0.064432 140.000000 -0.107054
182799.000000 1.506567 256.000000 260.000000 176.000000 -0.028143 205.000000 0.180004 222.000000 -0.086360 243.000000 -0.084166 28.000000 -0.269496 100.000000 0.065681 136.000000 -0.089681
183323.000000 1.463888 264.000000 275.000000 181.000000 -0.035514 219.000000 0.208656 247.000000 -0.093932 256.000000 -0.079513 16.000000 0.038338 101.000000 0.088791 129.000000 -0.080346
183598.000000 1.482304 275.000000 267.000000 179.000000 -0.004714 215.000000 0.200769 241.000000 -0.105062 248.000000 -0.085846 14.000000 0.114058 106.000000 0.096412 144.000000 -0.105672
184124.000000 1.489281 259.000000 248.000000 143.000000 -0.072495 196.000000 0.193521 212.000000 -0.100178 233.000000 -0.043200 12.000000 0.173338 90.000000 0.066788 114.000000 -0.071410
184621.000000 1.494845 249.000000 250.000000 170.000000 0.000891 197.000000 0.216033 225.000000 -0.093857 232.000000 -0.072320 27.000000 -0.258443 98.000000 0.030817 141.000000 -0.097932
185138.000000 1.502947 267.000000 271.000000 186.000000 -0.017776 217.000000 0.207803 237.000000 -0.110332 255.000000 -0.061224 13.000000 0.110724 108.000000 0.097970 164.000000 -0.069483
185677.000000 1.509186 268.000000 265.000000 182.000000 0.003916 207.000000 0.189590 227.000000 -0.122967 249.000000 -0.061382 26.000000 -0.259385 103.000000 0.082512 141.000000 -0.099151
185942.000000 1.574075 265.000000 263.000000 180.000000 -0.003057 210.000000 0.199170 238.000000 -0.109828 246.000000 -0.075768 20.000000 -0.206626 96.000000 0.069140 140.000000 -0.116222
186205.000000 1.484625 263.000000 259.000000 175.000000 -0.002411 206.000000 0.182792 221.000000 -0.116034 245.000000 -0.099011 25.000000 -0.301516 93.000000 0.077024 141.000000 -0.105768
186718.000000 1.517397 254.000000 248.000000 139.000000 -0.106454 197.000000 0.201711 213.000000 -0.094745 233.000000 -0.050673 27.000000 -0.265035 96.000000 0.034386 139.000000 -0.106454
187223.000000 1.507899 257.000000 266.000000 183.000000 0.019301 213.000000 0.183953 230.000000 -0.130560 250.000000 -0.066034 26.000000 -0.271386 101.000000 0.094246 144.000000 -0.118208
187762.000000 1.457759 273.000000 269.000000 181.000000 -0.000453 212.000000 0.227822 238.000000 -0.087413 249.000000 -0.063351 13.000000 0.121759 101.000000 0.076130 137.000000 -0.091097
188031.000000 1.484128 269.000000 258.000000 178.000000 -0.011477 204.000000 0.255108 232.000000 -0.087809 239.000000 -0.050726 22.000000 -0.265872 97.000000 0.044954 120.000000 -0.074610
188289.000000 1.504352 258.000000 253.000000 178.000000 -0.001579 203.000000 0.208200 229.000000 -0.121578 236.000000 -0.109822 24.000000 -0.239866 97.000000 0.044719 126.000000 -0.083648
189560.000000 1.430253 261.000000 261.000000 182.000000 0.002099 208.000000 0.195613 234.000000 -0.109495 243.000000 -0.073948 24.000000 -0.266925 96.000000 0.083810 133.000000 -0.059311
189821.000000 1.467086 261.000000 270.000000 179.000000 0.048216 213.000000 0.204642 245.000000 -0.122801 254.000000 -0.110450 25.000000 -0.301267 100.000000 0.145094 148.000000 -0.045768
190356.000000 1.454906 265.000000 257.000000 141.000000 -0.095189 206.000000 0.216648 225.000000 -0.090392 240.000000 -0.096677 24.000000 -0.240910 100.000000 0.053994 124.000000 -0.057666
190613.000000 1.500704 257.000000 254.000000 144.000000 -0.107850 203.000000 0.216932 219.000000 -0.094025 237.000000 -0.072207 20.000000 -0.220838 99.000000 0.057192 125.000000 -0.088605
190867.000000 1.519625 254.000000 249.000000 136.000000 -0.118367 198.000000 0.196522 214.000000 -0.105562 235.000000 -0.066928 23.000000 -0.276681 91.000000 0.056567 126.000000 -0.092302
191365.000000 1.472996 249.000000 262.000000 141.000000 -0.129686 206.000000 0.208898 223.000000 -0.079832 245.000000 -0.091837 24.000000 -0.282605 96.000000 0.092524 134.000000 -0.079528
191627.000000 1.496332 262.000000 273.000000 192.000000 0.006801 218.000000 0.204858 236.000000 -0.118608 258.000000 -0.099844 24.000000 -0.257613 105.000000 0.095864 171.000000 -0.003307
192430.000000 1.497271 261.000000 262.000000 176.000000 0.000251 208.000000 0.226003 235.000000 -0.080064 243.000000 -0.057868 21.000000 -0.230597 99.000000 0.071395 146.000000 -0.086082
192692.000000 1.461097 262.000000 250.000000 177.000000 -0.006970 200.000000 0.209205 227.000000 -0.061674 234.000000 -0.055419 22.000000 -0.269969 96.000000 0.040611 141.000000 -0.096972
193453.000000 1.494909 258.000000 258.000000 170.000000 0.020192 205.000000 0.204489 219.000000 -0.099476 240.000000 -0.061578 24.000000 -0.256421 97.000000 0.066112 123.000000 -0.063795
193711.000000 1.520080 258.000000 264.000000 184.000000 -0.007004 210.000000 0.211318 226.000000 -0.106737 249.000000 -0.080265 24.000000 -0.281242 103.000000 0.082645 138.000000 -0.100928
194244.000000 1.451887 269.000000 276.000000 183.000000 -0.007063 219.000000 0.206414 222.000000 0.178405 258.000000 -0.084558 24.000000 -0.277317 104.000000 0.107653 146.000000 -0.119024
194520.000000 1.427464 276.000000 263.000000 179.000000 0.008838 206.000000 0.197629 226.000000 -0.112387 248.000000 -0.084407 12.000000 0.298591 104.000000 0.079297 144.000000 -0.105595
195287.000000 1.475422 251.000000 254.000000 177.000000 0.012802 202.000000 0.206581 228.000000 -0.103498 236.000000 -0.066177 19.000000 -0.221226 95.000000 0.073307 131.000000 -0.097510
196069.000000 1.493570 272.000000 270.000000 182.000000 0.009640 217.000000 0.192992 243.000000 -0.091743 251.000000 -0.058546 31.000000 -0.245987 102.000000 0.084799 128.000000 -0.087663
196339.000000 1.517427 270.000000 268.000000 187.000000 0.019229 211.000000 0.196783 216.000000 0.181987 250.000000 -0.068467 15.000000 0.031395 98.000000 0.079974 147.000000 -0.086015
196607.000000 1.464469 268.000000 263.000000 175.000000 -0.032280 208.000000 0.189807 228.000000 -0.109940 247.000000 -0.089295 21.000000 -0.219022 99.000000 0.084237 168.000000 -0.027233
196870.000000 1.482291 263.000000 266.000000 179.000000 0.010517 211.000000 0.198056 228.000000 -0.103416 249.000000 -0.068022 17.000000 -0.087533 100.000000 0.082761 124.000000 -0.087963
197136.000000 1.453874 266.000000 256.000000 138.000000 -0.110034 203.000000 0.206254 233.000000 -0.087383 239.000000 -0.104500 23.000000 -0.292096 97.000000 0.069592 144.000000 -0.091193
197392.000000 1.467394 256.000000 254.000000 149.000000 -0.080752 203.000000 0.187694 219.000000 -0.094059 237.000000 -0.067914 22.000000 -0.250947 94.000000 0.074903 135.000000 -0.076583
197646.000000 1.468810 254.000000 255.000000 176.000000 0.013510 202.000000 0.207808 223.000000 -0.079669 239.000000 -0.064374 25.000000 -0.252378 91.000000 0.065908 135.000000 -0.075691
197901.000000 1.516283 255.000000 262.000000 174.000000 0.015615 208.000000 0.191164 224.000000 -0.092521 245.000000 -0.065092 26.000000 -0.286979 96.000000 0.093462 131.000000 -0.115108
198704.000000 1.343509 375.000000 270.000000 185.000000 -0.043698 221.000000 0.188982 232.000000 -0.085721 255.000000 -0.062571 14.000000 0.055184 107.000000 0.275232 156.000000 -0.090971
198974.000000 1.491802 270.000000 254.000000 173.000000 0.014077 205.000000 0.202132 228.000000 -0.185094 237.000000 -0.057994 23.000000 -0.215236 98.000000 0.123683 139.000000 -0.060719
199987.000000 1.443917 257.000000 255.000000 141.000000 -0.205426 200.000000 0.177142 227.000000 -0.039847 237.000000 0.034073 9.000000 0.466456 97.000000 0.078635 118.000000 -0.165677
200503.000000 1.677037 261.000000 262.000000 178.000000 -0.066823 208.000000 0.201298 233.000000 -0.125865 242.000000 -0.065911 25.000000 -0.054296 103.000000 0.078134 129.000000 -0.081131
200765.000000 1.526175 262.000000 265.000000 146.000000 -0.359622 218.000000 0.219138 239.000000 -0.026552 244.000000 -0.054734 29.000000 -0.157553 105.000000 0.069340 146.000000 -0.359622
201790.000000 1.483404 246.000000 249.000000 151.000000 -0.114262 198.000000 0.188967 215.000000 -0.077084 234.000000 -0.055657 14.000000 0.050098 95.000000 0.034768 137.000000 -0.111488
202561.000000 1.518260 267.000000 267.000000 182.000000 -0.005676 211.000000 0.209024 229.000000 -0.069643 251.000000 -0.067137 24.000000 -0.257773 103.000000 0.063358 132.000000 -0.117394
203096.000000 1.537889 268.000000 258.000000 178.000000 -0.008327 205.000000 0.159557 222.000000 -0.115913 243.000000 -0.096099 23.000000 -0.261832 97.000000 0.097851 144.000000 -0.092121
203354.000000 1.500519 258.000000 254.000000 132.000000 -0.112457 198.000000 0.196682 229.000000 -0.081093 237.000000 -0.063944 18.000000 -0.174244 92.000000 0.055303 117.000000 -0.092536
204110.000000 1.502275 253.000000 256.000000 175.000000 -0.008608 204.000000 0.192267 226.000000 -0.087044 241.000000 -0.052545 23.000000 -0.253622 96.000000 0.089675 140.000000 -0.116219
204629.000000 1.562059 263.000000 260.000000 176.000000 -0.001066 206.000000 0.207928 222.000000 -0.095018 243.000000 -0.032824 21.000000 -0.175076 100.000000 0.022574 130.000000 -0.104558
204889.000000 1.526662 260.000000 269.000000 186.000000 -0.014718 209.000000 0.158072 231.000000 -0.149498 252.000000 -0.092397 22.000000 -0.253881 98.000000 0.128847 110.000000 0.045083
205158.000000 1.491836 269.000000 273.000000 181.000000 -0.010397 217.000000 0.171907 235.000000 -0.111273 256.000000 -0.051133 14.000000 0.102604 105.000000 0.105877 128.000000 -0.052901
205431.000000 1.490357 273.000000 259.000000 178.000000 -0.010340 213.000000 0.360849 235.000000 0.024156 242.000000 0.041286 23.000000 -0.206160 94.000000 0.035522 145.000000 -0.438584
205935.000000 1.505251 245.000000 247.000000 138.000000 -0.114089 197.000000 0.184752 222.000000 -0.065374 230.000000 -0.057398 27.000000 -0.249688 90.000000 0.033053 138.000000 -0.114089
206436.000000 1.470358 254.000000 261.000000 181.000000 -0.005340 206.000000 0.189659 224.000000 -0.089322 243.000000 -0.046988 22.000000 -0.206010 97.000000 0.094042 144.000000 -0.084635
206697.000000 1.534984 261.000000 270.000000 146.000000 -0.129358 211.000000 0.176364 245.000000 -0.060596 253.000000 -0.063369 22.000000 -0.258374 97.000000 0.103996 146.000000 -0.129358
206967.000000 1.499798 270.000000 269.000000 181.000000 0.004136 213.000000 0.184134 231.000000 -0.119817 253.000000 -0.072462 14.000000 0.152321 101.000000 0.090315 146.000000 -0.127239
207501.000000 1.486676 265.000000 264.000000 177.000000 -0.009231 210.000000 0.191113 225.000000 -0.104811 247.000000 -0.056032 22.000000 -0.224134 95.000000 0.091900 139.000000 -0.091926
207765.000000 1.516994 264.000000 265.000000 182.000000 -0.004986 209.000000 0.193590 227.000000 -0.089419 247.000000 -0.055281 11.000000 0.335740 96.000000 0.084500 148.000000 -0.110222
208030.000000 1.507024 265.000000 251.000000 174.000000 0.000733 197.000000 0.190484 224.000000 -0.107867 232.000000 -0.062052 28.000000 -0.250123 93.000000 0.051958 115.000000 -0.089219
208281.000000 1.487368 251.000000 249.000000 140.000000 -0.120660 197.000000 0.202805 224.000000 -0.081237 231.000000 -0.055328 27.000000 -0.267208 95.000000 0.060390 140.000000 -0.120660
208530.000000 1.466946 249.000000 257.000000 177.000000 0.000533 201.000000 0.197287 220.000000 -0.097778 241.000000 -0.060585 25.000000 -0.268445 92.000000 0.098704 129.000000 -0.077519
209058.000000 1.513715 271.000000 270.000000 174.000000 -0.039594 213.000000 0.173350 242.000000 -0.094565 250.000000 -0.063029 25.000000 -0.283906 98.000000 0.112213 149.000000 -0.128980
209328.000000 1.457350 270.000000 273.000000 185.000000 -0.035309 214.000000 0.175959 243.000000 -0.094230 255.000000 -0.060501 26.000000 -0.261704 100.000000 0.101180 142.000000 -0.118287
210373.000000 1.376364 249.000000 261.000000 146.000000 -0.160971 204.000000 0.452710 235.000000 -0.147870 242.000000 -0.250346 28.000000 -0.484059 100.000000 0.336631 122.000000 -0.098086
210634.000000 1.461630 261.000000 258.000000 137.000000 -0.027241 205.000000 0.287242 234.000000 -0.007680 240.000000 0.024827 21.000000 -0.322006 96.000000 0.139844 137.000000 -0.027241
210892.000000 1.414468 258.000000 264.000000 180.000000 -0.002635 209.000000 0.123946 229.000000 -0.210347 247.000000 -0.207461 26.000000 -0.262430 98.000000 0.121693 107.000000 0.017133
211424.000000 1.459234 268.000000 267.000000 183.000000 -0.019547 210.000000 0.194842 242.000000 -0.100971 249.000000 -0.085202 12.000000 0.253512 102.000000 0.067852 145.000000 -0.106474
211691.000000 1.494814 267.000000 260.000000 144.000000 -0.137556 205.000000 0.195035 222.000000 -0.100123 244.000000 -0.060342 23.000000 -0.252223 100.000000 0.070593 144.000000 -0.137556
212213.000000 1.524389 262.000000 260.000000 179.000000 -0.004061 207.000000 0.207069 235.000000 -0.083746 243.000000 -0.050375 20.000000 -0.206068 98.000000 0.078025 131.000000 -0.095549
212473.000000 1.533856 260.000000 247.000000 146.000000 -0.065217 194.000000 0.213965 226.000000 -0.090016 232.000000 -0.097022 23.000000 -0.267838 91.000000 0.055426 127.000000 -0.105797
212720.000000 1.544955 247.000000 250.000000 172.000000 -0.019298 199.000000 0.195765 223.000000 -0.076714 236.000000 -0.078908 13.000000 0.151100 91.000000 0.065332 140.000000 -0.091427
213236.000000 1.534638 266.000000 277.000000 193.000000 -0.018903 218.000000 0.177289 238.000000 -0.116518 260.000000 -0.072883 24.000000 -0.258030 102.000000 0.111157 140.000000 -0.126492
213513.000000 1.527287 277.000000 271.000000 185.000000 0.000833 213.000000 0.201005 233.000000 -0.095156 255.000000 -0.097084 20.000000 -0.218590 101.000000 0.117397 136.000000 -0.114906
213784.000000 1.475327 271.000000 264.000000 186.000000 -0.012506 214.000000 0.173121 232.000000 -0.086110 248.000000 -0.067945 15.000000 0.038319 100.000000 0.079118 150.000000 -0.112945
214048.000000 1.480474 264.000000 261.000000 172.000000 0.007681 209.000000 0.202039 237.000000 -0.074042 244.000000 -0.050250 22.000000 -0.220859 101.000000 0.076707 140.000000 -0.098436
214309.000000 1.534873 261.000000 254.000000 179.000000 0.008497 206.000000 0.208152 228.000000 -0.105751 236.000000 -0.058807 23.000000 -0.311886 98.000000 0.065280 138.000000 -0.094969
214821.000000 1.463336 258.000000 260.000000 179.000000 0.009496 205.000000 0.171661 222.000000 -0.127352 243.000000 -0.108335 13.000000 0.027567 95.000000 0.150075 147.000000 -0.076227
215081.000000 1.567652 260.000000 256.000000 146.000000 -0.128217 201.000000 0.194841 220.000000 -0.114907 238.000000 -0.068745 25.000000 -0.296655 93.000000 0.071990 146.000000 -0.128217
215605.000000 1.534469 268.000000 271.000000 189.000000 0.002473 218.000000 0.196534 240.000000 -0.083811 255.000000 -0.061649 23.000000 -0.242349 99.000000 0.079546 125.000000 -0.074749
215876.000000 1.507366 271.000000 278.000000 189.000000 -0.029482 218.000000 0.175749 250.000000 -0.106273 258.000000 -0.069453 21.000000 -0.227459 108.000000 0.111776 123.000000 -0.055324
216154.000000 1.555002 278.000000 263.000000 179.000000 -0.008449 209.000000 0.194357 225.000000 -0.100767 247.000000 -0.061255 26.000000 -0.284306 101.000000 0.099842 144.000000 -0.096366
216417.000000 1.531769 263.000000 255.000000 179.000000 -0.001114 204.000000 0.187633 208.000000 0.154199 237.000000 -0.071756 27.000000 -0.288578 96.000000 0.054745 135.000000 -0.112257
216672.000000 1.485472 255.000000 250.000000 147.000000 -0.063951 199.000000 0.199592 225.000000 -0.090315 233.000000 -0.084703 24.000000 -0.276390 92.000000 0.060316 117.000000 -0.036645
216922.000000 1.519923 250.000000 257.000000 175.000000 -0.005988 202.000000 0.198777 220.000000 -0.100347 241.000000 -0.088794 24.000000 -0.255797 94.000000 0.104297 148.000000 -0.072445
217179.000000 1.532276 257.000000 257.000000 174.000000 -0.001822 201.000000 0.183823 218.000000 -0.114955 241.000000 -0.073403 19.000000 -0.202172 90.000000 0.102603 142.000000 -0.102965
217436.000000 1.568339 257.000000 268.000000 146.000000 -0.116397 210.000000 0.195783 245.000000 -0.049217 251.000000 -0.070313 23.000000 -0.251218 102.000000 0.090129 146.000000 -0.116397
217704.000000 1.468904 268.000000 273.000000 182.000000 -0.000880 218.000000 0.190451 223.000000 0.160058 257.000000 -0.102071 21.000000 -0.194011 105.000000 0.088780 144.000000 -0.099246
218247.000000 1.568341 270.000000 259.000000 176.000000 -0.023213 204.000000 0.171505 232.000000 -0.139170 241.000000 -0.118168 22.000000 -0.264542 42.000000 -0.036281 76.000000 -0.347710
218766.000000 1.449982 260.000000 256.000000 184.000000 0.048103 205.000000 0.237946 227.000000 -0.087070 241.000000 -0.066585 25.000000 -0.287574 96.000000 0.071112 123.000000 -0.078462
219277.000000 1.522210 255.000000 251.000000 148.000000 -0.068574 198.000000 0.200109 219.000000 -0.048371 235.000000 -0.028497 23.000000 -0.181021 87.000000 0.105389 135.000000 -0.113762
219792.000000 1.530261 264.000000 269.000000 182.000000 -0.025530 214.000000 0.267651 235.000000 -0.085594 253.000000 -0.079010 13.000000 0.208457 107.000000 0.093682 147.000000 -0.071487
220061.000000 1.459466 269.000000 273.000000 192.000000 -0.023209 217.000000 0.166650 233.000000 -0.101390 256.000000 -0.044747 15.000000 0.004339 108.000000 0.094729 149.000000 -0.112037
220334.000000 1.590016 273.000000 273.000000 186.000000 -0.011234 217.000000 0.173577 235.000000 -0.114542 256.000000 -0.076692 23.000000 -0.252368 102.000000 0.092007 129.000000 -0.129105
220607.000000 1.520720 273.000000 259.000000 171.000000 -0.012065 207.000000 0.172102 221.000000 -0.099997 244.000000 -0.062977 24.000000 -0.272964 94.000000 0.091474 135.000000 -0.095766
221115.000000 1.497601 249.000000 256.000000 176.000000 -0.026336 201.000000 0.177035 230.000000 -0.108075 237.000000 -0.078873 10.000000 0.352678 95.000000 0.077444 141.000000 -0.093952
221371.000000 1.534048 256.000000 262.000000 179.000000 -0.022997 206.000000 0.175122 225.000000 -0.111445 247.000000 -0.071400 23.000000 -0.266198 98.000000 0.077792 139.000000 -0.100616
221897.000000 1.505941 264.000000 265.000000 179.000000 0.010296 208.000000 0.211376 226.000000 -0.086994 247.000000 -0.058123 22.000000 -0.213212 98.000000 0.090868 144.000000 -0.122268
222431.000000 1.484266 269.000000 268.000000 193.000000 0.002131 217.000000 0.193685 244.000000 -0.076033 251.000000 -0.062709 26.000000 -0.256848 104.000000 0.079732 130.000000 -0.060815
223225.000000 1.511628 264.000000 251.000000 175.000000 0.024782 199.000000 0.196912 218.000000 -0.084670 235.000000 -0.032242 23.000000 -0.285109 96.000000 0.038682 131.000000 -0.105157
223476.000000 1.454182 251.000000 253.000000 173.000000 -0.020545 200.000000 0.194752 229.000000 -0.076911 237.000000 -0.049420 14.000000 0.020230 98.000000 0.043007 145.000000 -0.086564
224268.000000 1.555724 279.000000 269.000000 190.000000 -0.010942 212.000000 0.197270 230.000000 -0.096805 252.000000 -0.078671 29.000000 -0.302472 104.000000 0.100004 128.000000 -0.080656
224537.000000 1.465202 269.000000 269.000000 183.000000 0.020998 215.000000 0.197003 231.000000 -0.076430 252.000000 -0.072839 21.000000 -0.208387 105.000000 0.098260 135.000000 -0.051849
224806.000000 1.499123 269.000000 260.000000 192.000000 0.015862 209.000000 0.198040 227.000000 -0.101867 246.000000 -0.084718 23.000000 -0.259873 100.000000 0.082949 142.000000 -0.079342
225324.000000 1.479466 258.000000 254.000000 157.000000 -0.063293 199.000000 0.212868 217.000000 -0.327037 229.000000 -0.100673 23.000000 -0.253669 93.000000 0.136378 117.000000 -0.093967
225578.000000 1.583371 254.000000 259.000000 131.000000 -0.046833 212.000000 0.412384 236.000000 -0.087978 242.000000 -0.152147 24.000000 -0.126755 94.000000 0.286834 148.000000 -0.398478
227678.000000 1.488308 357.000000 253.000000 175.000000 -0.075766 205.000000 0.109627 217.000000 -0.045954 239.000000 -0.087788 28.000000 -0.212473 91.000000 0.323575 128.000000 0.179780
228998.000000 1.537085 270.000000 262.000000 177.000000 -0.006661 210.000000 0.176661 234.000000 -0.105328 244.000000 -0.095610 6.000000 0.894328 96.000000 0.046944 140.000000 -0.123250
229260.000000 1.459120 262.000000 263.000000 184.000000 0.005614 210.000000 0.198373 238.000000 -0.090639 246.000000 -0.073070 13.000000 0.085185 98.000000 0.113913 137.000000 -0.093903
229523.000000 1.540377 263.000000 257.000000 177.000000 0.017464 206.000000 0.190349 233.000000 -0.097287 240.000000 -0.079278 26.000000 -0.291255 100.000000 0.076502 146.000000 -0.095548
229780.000000 1.559136 257.000000 255.000000 164.000000 -0.027239 202.000000 0.208545 226.000000 -0.091973 236.000000 -0.075593 25.000000 -0.282953 94.000000 0.093884 137.000000 -0.088871
230035.000000 1.504623 255.000000 252.000000 140.000000 -0.090972 199.000000 0.226194 226.000000 -0.076752 233.000000 -0.076268 25.000000 -0.259943 92.000000 0.039823 140.000000 -0.090972
230548.000000 1.522979 261.000000 269.000000 145.000000 -0.123765 215.000000 0.184185 230.000000 -0.108589 253.000000 -0.093574 22.000000 -0.247538 106.000000 0.095341 145.000000 -0.123765
230817.000000 1.545170 269.000000 273.000000 191.000000 -0.029657 221.000000 0.185550 239.000000 -0.098433 258.000000 -0.075564 20.000000 -0.198311 102.000000 0.111796 143.000000 -0.117994
232390.000000 1.520279 263.000000 265.000000 138.000000 -0.148291 209.000000 0.197384 228.000000 -0.108603 232.000000 -0.096002 25.000000 -0.288611 101.000000 0.084352 182.000000 -0.015781
232920.000000 1.486931 265.000000 269.000000 187.000000 0.006628 214.000000 0.191819 245.000000 -0.081895 252.000000 -0.092397 24.000000 -0.275402 103.000000 0.093215 146.000000 -0.087793
233189.000000 1.483295 269.000000 271.000000 194.000000 -0.002855 219.000000 0.186049 236.000000 -0.120848 256.000000 -0.062055 16.000000 -0.008334 104.000000 0.092149 148.000000 -0.102447
233724.000000 1.455473 264.000000 260.000000 174.000000 -0.008717 206.000000 0.194263 208.000000 0.177351 244.000000 -0.072567 26.000000 -0.256764 98.000000 0.078184 130.000000 -0.108136
233984.000000 1.482434 260.000000 253.000000 142.000000 -0.110240 200.000000 0.196081 218.000000 -0.104748 238.000000 -0.071756 12.000000 0.210695 96.000000 0.069638 145.000000 -0.093516
234237.000000 1.531816 253.000000 253.000000 126.000000 -0.083636 203.000000 0.182901 222.000000 -0.074214 239.000000 -0.041864 21.000000 -0.247983 96.000000 0.053883 126.000000 -0.083636
234747.000000 1.492807 257.000000 278.000000 190.000000 -0.011676 220.000000 0.194890 246.000000 -0.090079 262.000000 -0.101442 23.000000 -0.239116 101.000000 0.105239 147.000000 -0.129530
235025.000000 1.504720 278.000000 274.000000 183.000000 0.009682 219.000000 0.182551 236.000000 -0.107936 257.000000 -0.072591 20.000000 -0.182880 106.000000 0.102368 147.000000 -0.099313
235299.000000 1.499780 274.000000 269.000000 182.000000 -0.025531 216.000000 0.187649 242.000000 -0.100489 252.000000 -0.061884 23.000000 -0.251250 102.000000 0.090288 132.000000 -0.089574
235568.000000 1.497914 269.000000 263.000000 180.000000 -0.017997 211.000000 0.177677 230.000000 -0.099266 247.000000 -0.104798 27.000000 -0.271506 96.000000 0.088639 147.000000 -0.104779
235831.000000 1.464262 263.000000 260.000000 177.000000 -0.024200 206.000000 0.179483 224.000000 -0.107774 244.000000 -0.087569 20.000000 -0.174250 92.000000 0.114106 142.000000 -0.139247
236091.000000 1.517291 260.000000 251.000000 136.000000 -0.102035 198.000000 0.199794 214.000000 -0.091822 235.000000 -0.081617 21.000000 -0.259780 91.000000 0.059628 134.000000 -0.128179
237945.000000 1.411616 270.000000 142.000000 69.000000 -0.227521 95.000000 0.172853 101.000000 0.122633 114.000000 0.032286 13.000000 -0.074183 84.000000 -0.039418 101.000000 0.122633
238952.000000 1.498717 254.000000 263.000000 166.000000 -0.081492 210.000000 0.155374 225.000000 -0.121383 247.000000 -0.106992 20.000000 -0.148996 99.000000 0.169039 150.000000 -0.204642
239215.000000 1.482665 263.000000 278.000000 184.000000 -0.032479 219.000000 0.252460 239.000000 -0.110299 262.000000 -0.106947 11.000000 0.293025 103.000000 0.132630 143.000000 -0.149453
239493.000000 1.483242 278.000000 267.000000 175.000000 -0.048934 210.000000 0.330674 237.000000 -0.039202 245.000000 -0.087776 15.000000 0.069606 101.000000 0.046397 150.000000 -0.188714
239760.000000 1.557995 267.000000 258.000000 180.000000 -0.001718 206.000000 0.185633 237.000000 -0.061375 242.000000 -0.062801 27.000000 -0.256035 98.000000 0.067839 136.000000 -0.118680
240018.000000 1.436681 258.000000 261.000000 177.000000 -0.008412 206.000000 0.169631 222.000000 -0.118678 244.000000 -0.087333 25.000000 -0.237601 99.000000 0.107226 146.000000 -0.084308
240279.000000 1.511958 261.000000 257.000000 176.000000 -0.016819 204.000000 0.179419 222.000000 -0.074764 242.000000 -0.064718 20.000000 -0.235992 96.000000 0.075403 140.000000 -0.115752
241036.000000 1.530909 248.000000 256.000000 180.000000 -0.023310 202.000000 0.180093 230.000000 -0.093983 237.000000 -0.062682 22.000000 -0.303137 96.000000 0.064728 134.000000 -0.128466
241292.000000 1.531380 256.000000 267.000000 190.000000 0.000787 210.000000 0.180818 243.000000 -0.098055 249.000000 -0.089074 22.000000 -0.249668 102.000000 0.106700 143.000000 -0.093037
241828.000000 1.467088 269.000000 153.000000 39.000000 -0.291457 100.000000 0.105992 110.000000 0.085397 125.000000 -0.027549 25.000000 -0.346958 90.000000 -0.057268 110.000000 0.085397
242352.000000 1.514310 371.000000 256.000000 172.000000 -0.048367 206.000000 0.182933 231.000000 -0.104842 238.000000 -0.086205 24.000000 -0.306099 105.000000 0.144517 172.000000 -0.048367
242856.000000 1.504453 248.000000 252.000000 144.000000 -0.135504 199.000000 0.191425 229.000000 -0.073104 236.000000 -0.049953 25.000000 -0.280119 93.000000 0.071161 136.000000 -0.130535
243108.000000 1.497793 252.000000 258.000000 143.000000 -0.130785 206.000000 0.184447 232.000000 -0.086838 240.000000 -0.060755 26.000000 -0.258317 98.000000 0.035159 143.000000 -0.130785
243366.000000 1.514091 258.000000 265.000000 180.000000 -0.014699 211.000000 0.189092 238.000000 -0.100926 246.000000 -0.077416 24.000000 -0.266281 100.000000 0.099878 138.000000 -0.132599
243631.000000 1.549405 265.000000 263.000000 180.000000 -0.009796 205.000000 0.179089 224.000000 -0.097307 245.000000 -0.095616 23.000000 -0.291128 97.000000 0.114989 139.000000 -0.114996
243894.000000 1.481518 263.000000 262.000000 172.000000 -0.048428 207.000000 0.182949 235.000000 -0.109200 244.000000 -0.061175 22.000000 -0.248763 99.000000 0.102433 143.000000 -0.121361
244417.000000 1.493163 261.000000 256.000000 144.000000 -0.120518 205.000000 0.170315 225.000000 -0.105813 240.000000 -0.081362 27.000000 -0.274453 98.000000 0.062693 144.000000 -0.120518
244673.000000 1.509940 256.000000 251.000000 128.000000 -0.100452 201.000000 0.255565 226.000000 -0.045061 234.000000 -0.023353 25.000000 -0.292741 93.000000 0.045944 131.000000 -0.109119
245172.000000 1.478526 248.000000 249.000000 142.000000 -0.101693 200.000000 0.177164 223.000000 -0.098431 232.000000 -0.062414 12.000000 0.184074 92.000000 0.061817 99.000000 0.038573
245684.000000 1.493983 263.000000 274.000000 151.000000 -0.121253 218.000000 0.175098 234.000000 -0.097363 257.000000 -0.072506 27.000000 -0.278841 108.000000 0.114542 144.000000 -0.078746
245958.000000 1.509561 274.000000 267.000000 179.000000 0.025358 211.000000 0.167851 227.000000 -0.108935 251.000000 -0.081413 21.000000 -0.243967 99.000000 0.105080 132.000000 -0.104264
246225.000000 1.528729 267.000000 258.000000 169.000000 0.045139 204.000000 0.217240 235.000000 -0.078385 241.000000 -0.053321 12.000000 0.268230 102.000000 0.069642 129.000000 -0.120642
246739.000000 1.519390 256.000000 254.000000 175.000000 -0.000312 205.000000 0.183134 223.000000 -0.036003 243.000000 -0.010549 22.000000 -0.254341 98.000000 0.040395 136.000000 -0.110483
247245.000000 1.505221 252.000000 252.000000 170.000000 0.051508 198.000000 0.182199 226.000000 -0.083914 234.000000 -0.081281 25.000000 -0.374293 95.000000 0.068089 122.000000 0.034138
247754.000000 1.492901 257.000000 263.000000 156.000000 -0.108748 210.000000 0.205312 229.000000 -0.090708 246.000000 -0.080126 24.000000 -0.302459 96.000000 0.173117 156.000000 -0.108748
248282.000000 1.368766 265.000000 273.000000 185.000000 0.011397 217.000000 0.195206 248.000000 -0.100827 256.000000 -0.084730 23.000000 -0.229792 104.000000 0.099559 169.000000 0.014625
248816.000000 1.531209 261.000000 251.000000 182.000000 0.029077 200.000000 0.254938 216.000000 -0.035986 235.000000 -0.031427 28.000000 -0.287206 96.000000 0.026962 140.000000 -0.112035
249067.000000 1.493524 251.000000 244.000000 142.000000 -0.098746 194.000000 0.215513 209.000000 -0.098015 230.000000 -0.062075 19.000000 -0.168983 95.000000 0.071240 133.000000 -0.040109
249564.000000 1.464734 253.000000 251.000000 166.000000 -0.029529 200.000000 0.195910 224.000000 -0.071267 232.000000 -0.047474 24.000000 -0.293952 93.000000 0.054199 127.000000 -0.106364
250625.000000 1.516126 266.000000 258.000000 177.000000 0.015810 204.000000 0.199728 233.000000 -0.067561 240.000000 -0.075538 20.000000 -0.218261 95.000000 0.076114 126.000000 -0.048447
250883.000000 1.491330 258.000000 255.000000 172.000000 0.000784 203.000000 0.202445 228.000000 -0.097525 236.000000 -0.081192 25.000000 -0.302759 94.000000 0.066446 116.000000 -0.073177
251398.000000 1.510594 260.000000 250.000000 174.000000 0.014956 198.000000 0.194031 224.000000 -0.097286 231.000000 -0.070233 22.000000 -0.250884 90.000000 0.069983 140.000000 -0.100342
252424.000000 1.479107 267.000000 272.000000 187.000000 -0.003852 216.000000 0.183859 245.000000 -0.095998 254.000000 -0.060216 12.000000 0.200876 102.000000 0.109259 144.000000 -0.121002
254253.000000 1.520704 262.000000 172.000000 55.000000 -0.311693 108.000000 0.070421 121.000000 0.001800 146.000000 -0.083782 21.000000 -0.360501 102.000000 0.085249 121.000000 0.001800
256094.000000 1.399795 256.000000 260.000000 181.000000 0.004985 205.000000 0.199093 222.000000 -0.092021 241.000000 -0.052412 25.000000 -0.274302 98.000000 0.077736 124.000000 -0.071712
256354.000000 1.442507 260.000000 276.000000 181.000000 0.011130 217.000000 0.175912 236.000000 -0.129151 259.000000 -0.063368 11.000000 0.380155 103.000000 0.105896 147.000000 -0.125186
256630.000000 1.530595 276.000000 275.000000 194.000000 -0.016145 218.000000 0.179421 237.000000 -0.094419 259.000000 -0.029905 16.000000 0.040296 108.000000 0.087818 132.000000 -0.080332
256905.000000 1.505532 275.000000 273.000000 185.000000 -0.019699 217.000000 0.184078 236.000000 -0.104902 255.000000 -0.081284 11.000000 0.372177 103.000000 0.101734 148.000000 -0.136551
257700.000000 1.474140 257.000000 254.000000 135.000000 -0.122737 202.000000 0.163060 228.000000 -0.108492 236.000000 -0.088006 26.000000 -0.260891 95.000000 0.060428 179.000000 -0.019604
258482.000000 1.478258 266.000000 270.000000 182.000000 -0.009949 213.000000 0.183092 230.000000 -0.110482 252.000000 -0.061109 13.000000 0.128022 98.000000 0.111786 140.000000 -0.108494
258752.000000 1.493324 270.000000 270.000000 147.000000 -0.128853 213.000000 0.179769 233.000000 -0.128131 247.000000 -0.079165 15.000000 0.076676 99.000000 0.093386 130.000000 -0.119857
259022.000000 1.477022 270.000000 277.000000 193.000000 -0.021297 220.000000 0.174283 250.000000 -0.106893 258.000000 -0.070923 23.000000 -0.271572 104.000000 0.098318 171.000000 -0.007645
259299.000000 1.485359 277.000000 273.000000 185.000000 -0.020174 218.000000 0.184466 246.000000 -0.079201 254.000000 -0.057697 26.000000 -0.252905 103.000000 0.094744 185.000000 -0.020174
259572.000000 1.515828 273.000000 258.000000 179.000000 0.012001 208.000000 0.184559 235.000000 -0.114218 241.000000 -0.075784 26.000000 -0.266462 95.000000 0.086783 139.000000 -0.145206
260083.000000 1.475847 253.000000 255.000000 174.000000 -0.019655 202.000000 0.189732 218.000000 -0.086854 238.000000 -0.048781 20.000000 -0.219980 94.000000 0.084457 134.000000 -0.100027
260338.000000 1.487304 255.000000 261.000000 180.000000 -0.008845 207.000000 0.173239 230.000000 -0.073109 243.000000 -0.062575 28.000000 -0.264572 97.000000 0.082950 137.000000 -0.129234
260599.000000 1.472476 261.000000 274.000000 188.000000 0.004658 218.000000 0.198906 222.000000 0.150317 255.000000 -0.040486 27.000000 -0.222314 100.000000 0.102011 140.000000 -0.116064
260873.000000 1.535469 274.000000 281.000000 196.000000 -0.026667 223.000000 0.178335 242.000000 -0.137449 265.000000 -0.075112 24.000000 -0.260801 107.000000 0.099892 167.000000 -0.062335
261430.000000 1.537961 276.000000 266.000000 185.000000 0.001162 211.000000 0.188777 242.000000 -0.084984 249.000000 -0.071412 26.000000 -0.283937 101.000000 0.088477 176.000000 -0.005846
262738.000000 1.537791 253.000000 267.000000 187.000000 -0.009360 211.000000 0.194574 231.000000 -0.109485 261.000000 0.667854 26.000000 -0.280106 102.000000 0.093308 145.000000 -0.124359
264093.000000 1.516224 262.000000 250.000000 170.000000 0.013606 200.000000 0.213995 215.000000 -0.063982 235.000000 -0.045769 25.000000 -0.268337 97.000000 0.053185 136.000000 -0.093807
264601.000000 1.511176 258.000000 268.000000 186.000000 -0.021129 213.000000 0.174278 238.000000 -0.100660 246.000000 -0.076240 24.000000 -0.284860 99.000000 0.103545 142.000000 -0.115829
264869.000000 1.523104 268.000000 263.000000 174.000000 -0.015049 207.000000 0.176379 227.000000 -0.101144 247.000000 -0.076550 28.000000 -0.274235 100.000000 0.077600 123.000000 -0.099562
265132.000000 1.500991 263.000000 268.000000 183.000000 -0.029122 210.000000 0.182384 241.000000 -0.075436 249.000000 -0.066785 13.000000 0.171478 102.000000 0.104358 141.000000 -0.115128
265400.000000 1.522162 268.000000 272.000000 182.000000 -0.022055 217.000000 0.177712 251.000000 -0.080627 257.000000 -0.099687 26.000000 -0.270097 105.000000 0.116576 182.000000 -0.022055
266208.000000 1.544015 265.000000 262.000000 172.000000 -0.016522 208.000000 0.194372 226.000000 -0.088010 246.000000 -0.052365 25.000000 -0.266920 96.000000 0.095209 149.000000 -0.113637
266725.000000 1.523684 255.000000 254.000000 171.000000 -0.016242 202.000000 0.189870 218.000000 -0.118751 239.000000 -0.066666 24.000000 -0.269478 93.000000 0.065378 138.000000 -0.119518
266979.000000 1.499544 254.000000 265.000000 178.000000 -0.009358 210.000000 0.192694 237.000000 -0.102605 247.000000 -0.062950 13.000000 0.113513 97.000000 0.098044 141.000000 -0.107632
267244.000000 1.540172 265.000000 282.000000 175.000000 -0.027135 222.000000 0.170671 256.000000 -0.101241 264.000000 -0.072370 26.000000 -0.269430 103.000000 0.109298 151.000000 -0.125269
267526.000000 1.570204 282.000000 270.000000 188.000000 -0.006288 215.000000 0.176644 243.000000 -0.096805 250.000000 -0.083451 25.000000 -0.282048 102.000000 0.110444 136.000000 -0.117603
267796.000000 1.522144 270.000000 270.000000 182.000000 -0.000677 216.000000 0.194323 233.000000 -0.100146 254.000000 -0.086210 23.000000 -0.256772 102.000000 0.095613 145.000000 -0.085609
268066.000000 1.545674 270.000000 261.000000 187.000000 -0.004077 210.000000 0.187115 225.000000 -0.100097 246.000000 -0.052479 18.000000 -0.179511 97.000000 0.082873 144.000000 -0.131111
268584.000000 1.521692 257.000000 253.000000 141.000000 -0.097210 198.000000 0.192878 229.000000 -0.094081 237.000000 -0.061275 28.000000 -0.233354 93.000000 0.073859 130.000000 -0.098368
269099.000000 1.564801 262.000000 262.000000 181.000000 -0.011131 209.000000 0.202601 223.000000 -0.090142 247.000000 -0.071820 27.000000 -0.272030 102.000000 0.090112 126.000000 -0.084751
270176.000000 1.433790 279.000000 262.000000 176.000000 -0.012688 209.000000 0.163365 237.000000 -0.095145 245.000000 -0.059392 28.000000 -0.255664 104.000000 0.029634 165.000000 -0.030838
272528.000000 1.537666 262.000000 260.000000 178.000000 -0.004343 206.000000 0.204608 234.000000 -0.109889 243.000000 -0.046740 23.000000 -0.271892 99.000000 0.092307 149.000000 -0.112383
273304.000000 1.555533 257.000000 254.000000 175.000000 -0.001975 198.000000 0.191802 230.000000 -0.084203 237.000000 -0.072242 19.000000 -0.181972 92.000000 0.050866 145.000000 -0.122838
273558.000000 1.544859 254.000000 263.000000 182.000000 -0.020627 208.000000 0.183038 226.000000 -0.103217 246.000000 -0.065694 27.000000 -0.279512 100.000000 0.095492 141.000000 -0.122550
273821.000000 1.557396 263.000000 271.000000 184.000000 -0.022212 215.000000 0.187254 232.000000 -0.102795 253.000000 -0.069659 21.000000 -0.211815 107.000000 0.099846 136.000000 -0.097147
274092.000000 1.523024 271.000000 276.000000 190.000000 -0.007555 221.000000 0.208212 248.000000 -0.106273 257.000000 -0.055661 22.000000 -0.227504 106.000000 0.094800 181.000000 -0.031849
274638.000000 1.560516 270.000000 256.000000 175.000000 -0.041223 203.000000 0.158901 222.000000 -0.110316 238.000000 -0.055661 13.000000 0.204641 94.000000 0.095644 141.000000 -0.138136
274894.000000 1.545610 256.000000 250.000000 138.000000 -0.110956 201.000000 0.224610 207.000000 0.108998 235.000000 -0.079278 20.000000 -0.161347 91.000000 0.094592 102.000000 -0.012744
275661.000000 1.688797 265.000000 261.000000 167.000000 -0.065790 205.000000 0.100984 230.000000 -0.180005 247.000000 -0.108764 22.000000 -0.131344 92.000000 0.176587 134.000000 -0.161101
275922.000000 1.412443 261.000000 264.000000 181.000000 0.045499 212.000000 0.189025 232.000000 -0.130222 241.000000 -0.064893 12.000000 0.249528 97.000000 0.082867 125.000000 -0.151537
276186.000000 1.514938 264.000000 266.000000 158.000000 -0.017039 215.000000 0.348495 238.000000 0.046678 252.000000 0.081881 31.000000 -0.288290 106.000000 0.088634 139.000000 -0.068529
277232.000000 1.436895 253.000000 253.000000 171.000000 0.014545 201.000000 0.111114 217.000000 -0.142647 235.000000 -0.057129 24.000000 -0.352669 97.000000 0.150263 143.000000 -0.109718
277485.000000 1.463045 253.000000 256.000000 172.000000 -0.020079 205.000000 0.212932 221.000000 -0.154967 240.000000 -0.091922 10.000000 0.218422 92.000000 0.082448 135.000000 -0.109000
277741.000000 1.466793 256.000000 254.000000 177.000000 -0.014283 200.000000 0.181706 220.000000 -0.082196 238.000000 -0.059408 19.000000 -0.236357 94.000000 0.110001 146.000000 -0.074767
277995.000000 1.447157 254.000000 276.000000 189.000000 -0.036662 218.000000 0.180468 222.000000 0.102129 257.000000 -0.086929 7.000000 0.616655 103.000000 0.117741 134.000000 -0.063465
278813.000000 1.500767 269.000000 259.000000 185.000000 -0.020643 204.000000 0.168556 235.000000 -0.116333 242.000000 -0.087323 25.000000 -0.255112 95.000000 0.093243 132.000000 -0.049026
279072.000000 1.458397 259.000000 256.000000 176.000000 -0.013843 202.000000 0.185783 230.000000 -0.099186 238.000000 -0.057633 16.000000 -0.096527 95.000000 0.084101 143.000000 -0.059500
279576.000000 1.470331 248.000000 256.000000 179.000000 -0.011709 205.000000 0.183589 219.000000 -0.107852 240.000000 -0.066097 10.000000 0.194596 98.000000 0.051615 146.000000 -0.096243
279832.000000 1.477666 256.000000 267.000000 180.000000 0.021645 216.000000 0.195989 245.000000 -0.139842 251.000000 -0.109732 23.000000 -0.235001 101.000000 0.104670 124.000000 -0.061961
280099.000000 1.490911 267.000000 264.000000 179.000000 -0.035575 209.000000 0.207465 226.000000 -0.095013 249.000000 -0.049451 13.000000 0.039218 99.000000 0.152057 129.000000 -0.080625
280363.000000 1.481425 264.000000 261.000000 145.000000 -0.086758 207.000000 0.227259 226.000000 -0.104246 242.000000 -0.083868 20.000000 -0.196946 100.000000 0.086112 127.000000 -0.068717
280624.000000 1.482483 261.000000 272.000000 184.000000 -0.030753 216.000000 0.208570 246.000000 -0.094344 253.000000 -0.083153 26.000000 -0.260561 103.000000 0.129640 134.000000 -0.068372
281166.000000 1.444404 270.000000 253.000000 174.000000 0.000990 201.000000 0.194030 219.000000 -0.117538 239.000000 -0.070860 18.000000 -0.223777 96.000000 0.085722 137.000000 -0.038292
281419.000000 1.425987 253.000000 243.000000 173.000000 -0.001708 194.000000 0.232995 215.000000 -0.076880 229.000000 -0.070268 19.000000 -0.237778 94.000000 0.043887 124.000000 -0.016487
281662.000000 1.459229 243.000000 251.000000 171.000000 -0.014293 199.000000 0.229671 228.000000 -0.080625 235.000000 -0.064717 20.000000 -0.217058 102.000000 0.051361 131.000000 -0.066658
281913.000000 1.522022 251.000000 252.000000 176.000000 0.016519 202.000000 0.190220 228.000000 -0.098746 234.000000 -0.107163 10.000000 0.229670 97.000000 0.077363 127.000000 -0.049717
282430.000000 1.442275 265.000000 273.000000 174.000000 0.018682 217.000000 0.208995 250.000000 -0.112727 257.000000 -0.086566 12.000000 0.135255 104.000000 0.117418 137.000000 -0.056458
282703.000000 1.489971 273.000000 264.000000 181.000000 0.016001 209.000000 0.217069 225.000000 -0.123261 249.000000 -0.071836 11.000000 0.177434 100.000000 0.101068 134.000000 -0.074140
282967.000000 1.460092 264.000000 263.000000 177.000000 0.011691 213.000000 0.179531 240.000000 -0.100219 246.000000 -0.080876 12.000000 0.137710 99.000000 0.116018 150.000000 -0.060348
283230.000000 1.449566 263.000000 257.000000 180.000000 0.006827 204.000000 0.185436 236.000000 -0.103495 243.000000 -0.064638 12.000000 0.095149 95.000000 0.089737 130.000000 -0.019500
283487.000000 1.444581 257.000000 259.000000 176.000000 -0.022686 206.000000 0.196815 235.000000 -0.104592 243.000000 -0.086582 19.000000 -0.233817 102.000000 0.083246 125.000000 -0.026242
283746.000000 1.491696 259.000000 247.000000 166.000000 0.002540 196.000000 0.221318 216.000000 -0.114138 235.000000 -0.095187 9.000000 0.305272 94.000000 0.057573 148.000000 -0.055817
283993.000000 1.473389 247.000000 250.000000 151.000000 -0.064087 201.000000 0.202057 217.000000 -0.109230 237.000000 -0.045076 7.000000 0.470222 99.000000 0.068326 127.000000 -0.051158
284243.000000 1.479280 250.000000 257.000000 180.000000 -0.012774 205.000000 0.206977 223.000000 -0.098760 241.000000 -0.064151 15.000000 -0.089969 95.000000 0.100377 125.000000 -0.016114
284500.000000 1.470788 257.000000 266.000000 182.000000 -0.005582 211.000000 0.217254 228.000000 -0.096475 249.000000 -0.083154 22.000000 -0.261831 102.000000 0.101193 136.000000 -0.072211
284766.000000 1.496265 266.000000 264.000000 150.000000 -0.099308 208.000000 0.204874 227.000000 -0.105141 245.000000 -0.075909 26.000000 -0.284205 100.000000 0.111346 121.000000 -0.061865
