1477.000000 1.654046 291.000000 271.000000 222.000000 -0.016551 244.000000 0.059232 258.000000 -0.022837 258.000000 -0.022837 20.000000 -0.170515 160.000000 0.023967 192.000000 0.015924
7619.000000 2.112728 288.000000 303.000000 254.000000 0.011723 281.000000 1.238138 278.000000 0.138968 285.000000 0.227369 14.000000 -0.134261 165.000000 0.002162 171.000000 -0.103748
9951.000000 0.984482 272.000000 279.000000 123.000000 0.115503 169.000000 0.074276 191.000000 0.003259 268.000000 -0.048963 9.000000 0.141284 138.000000 0.154247 164.000000 0.041440
13783.000000 1.385621 306.000000 276.000000 213.000000 0.026082 231.000000 0.093778 239.000000 0.061912 264.000000 -0.007541 18.000000 -0.139269 132.000000 0.036692 138.000000 0.002805
14059.000000 1.034310 276.000000 279.000000 158.000000 0.004124 189.000000 0.046475 204.000000 -0.001643 266.000000 -0.090705 10.000000 0.141098 20.000000 0.164751 32.000000 -0.090376
16118.000000 1.454276 301.000000 271.000000 143.000000 -0.050065 166.000000 0.088856 190.000000 0.021837 261.000000 0.059358 20.000000 -0.119205 136.000000 0.036439 144.000000 -0.051224
18171.000000 1.408282 304.000000 273.000000 148.000000 -0.002429 177.000000 0.078637 204.000000 0.029531 259.000000 -0.021047 23.000000 -0.146999 161.000000 0.043182 204.000000 0.029531
18444.000000 0.976289 273.000000 278.000000 34.000000 -0.372666 168.000000 0.063387 174.000000 0.045944 264.000000 -0.068179 13.000000 0.166226 126.000000 0.159717 157.000000 0.054516
20189.000000 1.305471 281.000000 304.000000 205.000000 0.001851 229.000000 0.096720 251.000000 -0.005552 296.000000 0.522224 17.000000 -0.262164 138.000000 0.036320 152.000000 0.002152
27184.000000 1.326803 260.000000 305.000000 208.000000 -0.009233 240.000000 0.068697 256.000000 -0.010015 293.000000 0.439216 17.000000 -0.338403 127.000000 0.037156 153.000000 -0.030445
27489.000000 1.441082 305.000000 288.000000 148.000000 -0.031893 199.000000 0.056224 209.000000 0.009077 278.000000 -0.011472 16.000000 -0.142175 170.000000 0.041931 186.000000 0.023183
33059.000000 1.379342 324.000000 272.000000 223.000000 -0.035015 245.000000 0.067021 254.000000 -0.021881 260.000000 -0.041989 17.000000 -0.115862 161.000000 0.031411 182.000000 -0.006613
35359.000000 1.332994 269.000000 300.000000 213.000000 -0.032238 235.000000 0.072885 257.000000 -0.039529 285.000000 0.009902 16.000000 -0.268655 139.000000 0.044518 153.000000 -0.025997
38278.000000 1.476491 300.000000 293.000000 196.000000 0.041396 229.000000 0.073716 247.000000 -0.043713 279.000000 0.032445 16.000000 -0.165515 160.000000 0.040612 196.000000 0.041396
40302.000000 1.340108 549.000000 305.000000 202.000000 -0.021663 230.000000 0.098747 252.000000 -0.037242 287.000000 -0.008952 17.000000 -0.304645 130.000000 0.044934 139.000000 0.034261
40607.000000 1.940627 305.000000 302.000000 245.000000 -0.030000 272.000000 0.044074 288.000000 -0.042573 289.000000 -0.032589 16.000000 -0.051567 137.000000 0.039028 151.000000 -0.010503
43244.000000 1.321316 293.000000 313.000000 227.000000 -0.026994 246.000000 0.104185 266.000000 -0.056410 301.000000 0.325221 20.000000 -0.218857 131.000000 0.113144 159.000000 0.007941
43843.000000 1.000221 286.000000 293.000000 207.000000 0.099327 235.000000 0.189951 254.000000 -0.251239 284.000000 0.146503 9.000000 0.134374 137.000000 0.197978 145.000000 0.067854
47033.000000 1.194201 289.000000 305.000000 170.000000 -0.082603 205.000000 0.098715 213.000000 -0.103166 291.000000 0.008497 10.000000 0.225863 33.000000 0.453027 48.000000 -0.156580
49684.000000 1.360674 297.000000 250.000000 189.000000 0.033494 215.000000 0.253871 231.000000 0.102132 239.000000 0.202588 11.000000 -0.072288 42.000000 0.185190 61.000000 -0.181347
49934.000000 1.302212 250.000000 315.000000 164.000000 -0.150296 214.000000 0.194547 232.000000 0.009562 294.000000 0.021803 12.000000 -0.029590 182.000000 0.380222 202.000000 0.002682
50820.000000 1.110549 286.000000 277.000000 121.000000 -0.080076 168.000000 0.276067 180.000000 0.034265 267.000000 -0.001474 15.000000 0.485001 51.000000 0.517384 65.000000 0.134641
51097.000000 1.160752 277.000000 294.000000 111.000000 0.100110 180.000000 0.214388 202.000000 0.111489 280.000000 -0.037727 7.000000 0.139435 135.000000 0.351912 172.000000 0.023855
54584.000000 1.410347 290.000000 294.000000 211.000000 0.128480 248.000000 0.339029 271.000000 0.086427 277.000000 0.000737 20.000000 -0.336864 141.000000 0.207616 159.000000 0.006176
55464.000000 1.454372 292.000000 285.000000 178.000000 -0.174969 228.000000 0.201379 234.000000 0.002257 273.000000 0.101192 19.000000 -0.055581 122.000000 0.161757 132.000000 -0.092789
56050.000000 1.183229 301.000000 296.000000 234.000000 -0.093545 275.000000 0.128540 277.000000 0.211738 285.000000 -0.153874 11.000000 -0.022836 162.000000 0.236675 187.000000 0.036064
58669.000000 1.447508 280.000000 283.000000 172.000000 0.058635 213.000000 0.209688 226.000000 0.070550 272.000000 0.477304 17.000000 -0.297461 165.000000 0.046629 172.000000 0.058635
59536.000000 1.141539 268.000000 279.000000 151.000000 0.009858 175.000000 0.076347 182.000000 0.019044 267.000000 0.057209 9.000000 0.117525 25.000000 0.381567 40.000000 -0.186712
61855.000000 1.004813 268.000000 271.000000 173.000000 -0.041186 201.000000 0.117839 217.000000 0.061208 253.000000 0.066914 13.000000 -0.073590 153.000000 0.014409 158.000000 -0.036485
62126.000000 1.060972 271.000000 315.000000 175.000000 -0.070690 193.000000 0.042461 210.000000 -0.034153 299.000000 -0.040941 17.000000 -0.220422 142.000000 0.098246 157.000000 0.041317
62737.000000 1.087307 296.000000 301.000000 159.000000 0.028547 198.000000 0.060847 214.000000 -0.026989 288.000000 -0.026366 11.000000 -0.005199 132.000000 0.148296 144.000000 0.076776
65057.000000 1.100548 274.000000 278.000000 192.000000 0.014705 219.000000 0.222589 232.000000 0.079909 260.000000 0.077603 20.000000 -0.262147 164.000000 0.166381 180.000000 0.003043
65335.000000 1.308010 278.000000 313.000000 242.000000 -0.070817 282.000000 0.190344 298.000000 -0.071678 303.000000 0.022634 18.000000 -0.225032 180.000000 0.229515 198.000000 0.075094
69704.000000 1.183635 257.000000 290.000000 205.000000 0.024576 232.000000 0.131772 242.000000 0.039813 268.000000 0.025251 22.000000 -0.189909 169.000000 0.042304 181.000000 0.012632
69994.000000 1.146067 290.000000 291.000000 153.000000 -0.001974 184.000000 0.073309 214.000000 -0.013574 279.000000 0.644747 8.000000 0.045439 134.000000 0.067792 153.000000 -0.001974
70562.000000 2.000372 277.000000 301.000000 217.000000 -0.079969 241.000000 0.065078 263.000000 -0.000893 290.000000 0.008574 18.000000 -0.028233 138.000000 0.007602 151.000000 -0.068277
71472.000000 1.227118 309.000000 297.000000 231.000000 0.018950 264.000000 0.190221 272.000000 0.026382 285.000000 0.375503 18.000000 -0.107727 123.000000 0.033105 151.000000 -0.032303
75849.000000 1.841724 416.000000 300.000000 256.000000 0.000063 279.000000 0.120534 265.000000 -0.007554 272.000000 -0.018573 14.000000 -0.133543 179.000000 0.064686 187.000000 -0.012947
76428.000000 1.390544 279.000000 272.000000 184.000000 0.049703 211.000000 0.154155 221.000000 0.085361 255.000000 0.024892 16.000000 -0.246352 160.000000 0.063824 184.000000 0.049703
76700.000000 1.519264 272.000000 268.000000 182.000000 0.056035 216.000000 0.146335 220.000000 0.045081 249.000000 0.035017 16.000000 -0.218385 126.000000 0.080754 131.000000 -0.071174
76968.000000 1.517648 268.000000 289.000000 186.000000 0.038971 225.000000 0.126585 236.000000 0.100832 276.000000 0.254746 19.000000 -0.208495 163.000000 0.088845 186.000000 0.038971
77257.000000 1.440609 289.000000 292.000000 201.000000 0.000450 223.000000 0.130107 229.000000 0.105656 271.000000 0.064652 16.000000 -0.180975 174.000000 0.070028 182.000000 0.026061
78133.000000 1.294747 294.000000 292.000000 208.000000 0.036177 233.000000 0.141742 251.000000 0.031193 281.000000 0.286146 16.000000 -0.221303 162.000000 0.091458 185.000000 0.047368
78425.000000 1.267526 292.000000 283.000000 206.000000 0.056692 224.000000 0.131282 239.000000 0.063713 263.000000 0.059323 15.000000 -0.276344 163.000000 0.089988 179.000000 0.016664
79260.000000 1.356737 276.000000 294.000000 208.000000 0.008556 234.000000 0.142177 253.000000 0.043446 274.000000 0.072473 17.000000 -0.173090 169.000000 0.077317 213.000000 0.023744
79554.000000 1.380121 294.000000 291.000000 211.000000 0.059171 234.000000 0.136522 252.000000 0.048405 271.000000 0.063107 19.000000 -0.222384 162.000000 0.072231 203.000000 0.064142
79845.000000 1.425099 291.000000 291.000000 205.000000 0.027874 231.000000 0.161805 251.000000 0.074062 271.000000 0.061945 18.000000 -0.218006 166.000000 0.068700 207.000000 0.053343
80136.000000 1.428249 291.000000 295.000000 210.000000 0.039547 233.000000 0.138416 246.000000 0.066535 277.000000 0.066613 19.000000 -0.225059 173.000000 0.064189 176.000000 0.053892
80999.000000 1.491540 277.000000 268.000000 187.000000 0.058732 212.000000 0.147805 227.000000 0.066191 249.000000 0.061460 6.000000 0.426821 157.000000 0.035788 174.000000 0.076807
81267.000000 1.485034 268.000000 287.000000 199.000000 0.031961 224.000000 0.139984 238.000000 0.056253 270.000000 0.034936 16.000000 -0.211078 164.000000 0.052041 173.000000 0.043829
81845.000000 1.524548 291.000000 289.000000 202.000000 0.025548 227.000000 0.163985 244.000000 0.062716 265.000000 0.051085 18.000000 -0.215422 169.000000 0.059698 174.000000 0.050716
82134.000000 1.514752 289.000000 1073.000000 771.000000 -0.154497 796.000000 1.085880 831.000000 -0.917774 1062.000000 -0.145251 20.000000 -0.224718 502.000000 1.109838 540.000000 -0.805709
87310.000000 1.040754 291.000000 277.000000 113.000000 0.255093 172.000000 0.061834 233.000000 -0.117475 263.000000 -0.081458 24.000000 -0.547127 128.000000 0.302035 198.000000 -0.063385
87587.000000 1.017179 277.000000 286.000000 68.000000 0.021527 174.000000 0.003181 189.000000 -0.059372 276.000000 -0.026924 14.000000 -0.090830 121.000000 0.216825 172.000000 -0.032681
89380.000000 1.319231 294.000000 275.000000 188.000000 -0.022980 217.000000 0.082757 226.000000 -0.004030 264.000000 0.490597 17.000000 -0.126774 120.000000 -0.003450 133.000000 -0.076601
89655.000000 1.610502 275.000000 274.000000 180.000000 -0.013007 218.000000 0.079966 228.000000 0.022379 259.000000 0.167599 16.000000 -0.132322 110.000000 -0.010362 124.000000 -0.067397
91408.000000 2.165092 302.000000 283.000000 149.000000 -0.166395 179.000000 0.227148 194.000000 -0.066238 263.000000 0.013011 21.000000 -0.109735 135.000000 0.147037 155.000000 0.034200
93118.000000 1.100029 302.000000 296.000000 152.000000 0.047695 196.000000 0.069591 229.000000 -0.087305 282.000000 0.016190 9.000000 0.031363 126.000000 0.260375 152.000000 0.047695
94270.000000 1.027885 280.000000 295.000000 120.000000 0.241189 189.000000 0.260063 210.000000 0.039748 285.000000 -0.081630 10.000000 -0.159216 140.000000 0.491786 178.000000 0.014702
100116.000000 1.319641 265.000000 234.000000 148.000000 0.024088 172.000000 0.184948 201.000000 0.080639 213.000000 0.072004 18.000000 -0.231033 128.000000 0.023714 131.000000 -0.024766
100624.000000 1.306896 274.000000 279.000000 188.000000 0.057825 215.000000 0.155316 252.000000 0.031868 261.000000 -0.042930 14.000000 -0.203387 162.000000 0.110316 188.000000 0.057825
101187.000000 1.369702 284.000000 291.000000 209.000000 -0.066595 229.000000 0.175677 236.000000 0.088248 279.000000 0.206177 15.000000 -0.245800 173.000000 0.086115 180.000000 0.025285
101478.000000 1.382965 291.000000 288.000000 201.000000 -0.033510 226.000000 0.123247 242.000000 0.020442 269.000000 0.060048 16.000000 -0.211550 126.000000 0.125062 142.000000 0.033118
102062.000000 1.404892 296.000000 286.000000 207.000000 0.051503 231.000000 0.200767 258.000000 0.117915 267.000000 0.070485 21.000000 -0.253668 165.000000 0.073350 178.000000 0.067473
102348.000000 1.352709 286.000000 269.000000 180.000000 0.000641 212.000000 0.182335 243.000000 0.063794 250.000000 0.078874 15.000000 -0.183169 147.000000 0.055895 180.000000 0.000641
102893.000000 1.460930 276.000000 284.000000 202.000000 -0.036691 223.000000 0.131928 256.000000 0.017133 262.000000 -0.038417 16.000000 -0.224743 166.000000 0.092790 178.000000 0.101177
103463.000000 1.332602 286.000000 289.000000 233.000000 0.050769 265.000000 0.143857 260.000000 0.122634 267.000000 0.127617 18.000000 -0.204312 172.000000 0.060986 193.000000 0.020515
104612.000000 1.366412 272.000000 270.000000 160.000000 -0.042618 212.000000 0.397601 233.000000 0.152242 252.000000 0.122008 16.000000 -0.101567 149.000000 0.239043 160.000000 -0.042618
105172.000000 1.364233 290.000000 278.000000 178.000000 0.076084 234.000000 0.192134 253.000000 0.066114 254.000000 0.040033 17.000000 -0.180877 162.000000 0.202761 179.000000 0.066021
105741.000000 1.400471 291.000000 299.000000 215.000000 -0.000768 234.000000 0.197351 263.000000 0.058448 280.000000 -0.014122 18.000000 -0.191725 126.000000 0.123405 146.000000 -0.038039
106329.000000 1.454453 289.000000 295.000000 213.000000 -0.010406 234.000000 0.139248 261.000000 -0.072947 284.000000 0.155391 18.000000 -0.207223 174.000000 0.092480 191.000000 -0.022113
107175.000000 1.259280 276.000000 298.000000 184.000000 0.049250 228.000000 0.187055 254.000000 -0.114343 285.000000 0.114466 17.000000 -0.184872 126.000000 0.120298 142.000000 0.004155
107473.000000 1.323730 298.000000 290.000000 210.000000 0.030439 227.000000 0.276161 249.000000 -0.201424 276.000000 -0.030938 13.000000 0.056065 20.000000 0.024685 32.000000 0.000908
108362.000000 1.369766 306.000000 303.000000 200.000000 -0.049796 246.000000 0.360392 277.000000 0.316537 290.000000 -0.112366 10.000000 0.257697 127.000000 0.134203 146.000000 -0.202663
108665.000000 1.257541 303.000000 279.000000 216.000000 0.132527 245.000000 0.357901 260.000000 -0.024592 265.000000 0.082131 14.000000 -0.186411 50.000000 0.130486 86.000000 -0.181317
109516.000000 1.340691 294.000000 292.000000 148.000000 -0.166865 228.000000 0.201332 260.000000 0.132807 276.000000 -0.002491 24.000000 -0.126552 167.000000 0.209436 215.000000 0.088354
112756.000000 1.827070 727.000000 180.000000 108.000000 0.082285 153.000000 0.709182 167.000000 -0.160770 167.000000 -0.160770 14.000000 0.049014 47.000000 0.447587 66.000000 0.003934
117710.000000 1.409373 1756.000000 286.000000 158.000000 0.173230 212.000000 0.253639 235.000000 -0.109919 277.000000 0.033998 11.000000 0.101222 100.000000 0.832320 111.000000 0.315486
135677.000000 1.814375 292.000000 299.000000 204.000000 -0.170973 227.000000 0.031330 232.000000 -0.079547 288.000000 1.478526 18.000000 -0.018371 31.000000 0.155893 63.000000 -0.230675
135976.000000 1.886409 299.000000 308.000000 258.000000 -0.104201 278.000000 0.098134 279.000000 0.092381 295.000000 0.530656 19.000000 -0.120065 143.000000 0.036536 155.000000 -0.076003
136284.000000 1.850842 308.000000 303.000000 203.000000 -0.001258 227.000000 0.094058 244.000000 -0.016004 288.000000 0.687822 20.000000 -0.176651 179.000000 0.001564 203.000000 -0.001258
137159.000000 1.455942 280.000000 274.000000 186.000000 -0.079860 235.000000 0.419748 242.000000 -0.057071 253.000000 0.334574 15.000000 -0.112083 140.000000 0.180955 149.000000 -0.071287
141546.000000 1.188137 4113.000000 287.000000 240.000000 -0.036894 266.000000 0.773466 264.000000 0.124250 271.000000 0.242070 15.000000 -0.124167 164.000000 -0.033966 173.000000 -0.061363
141833.000000 1.430565 287.000000 280.000000 181.000000 -0.038150 216.000000 0.065533 235.000000 -0.027524 268.000000 0.355863 16.000000 -0.144861 166.000000 -0.044781 168.000000 -0.052634
142113.000000 1.508466 280.000000 286.000000 191.000000 -0.064073 216.000000 0.068793 253.000000 0.002319 264.000000 0.005957 15.000000 -0.097069 125.000000 -0.037632 141.000000 -0.109135
143002.000000 2.074798 308.000000 291.000000 181.000000 -0.020143 222.000000 0.071098 240.000000 -0.001958 267.000000 0.007480 13.000000 -0.032722 168.000000 -0.021568 181.000000 -0.020143
143856.000000 1.387233 295.000000 286.000000 192.000000 -0.008540 218.000000 0.097965 238.000000 0.028075 267.000000 0.027089 17.000000 -0.178722 166.000000 0.003357 193.000000 -0.003367
145635.000000 1.412603 287.000000 274.000000 208.000000 -0.050511 234.000000 0.067955 250.000000 -0.007875 260.000000 -0.005461 18.000000 -0.088493 126.000000 -0.042366 148.000000 -0.090892
146197.000000 1.003513 288.000000 287.000000 237.000000 -0.074060 255.000000 0.028853 272.000000 -0.032072 276.000000 -0.033312 10.000000 0.161932 36.000000 0.282639 48.000000 -0.162519
146484.000000 1.094870 287.000000 299.000000 254.000000 -0.043873 278.000000 0.035110 284.000000 -0.005563 285.000000 -0.010579 10.000000 0.169950 20.000000 0.085969 32.000000 -0.163309
151739.000000 1.345376 265.000000 256.000000 83.000000 -0.321769 191.000000 0.156163 234.000000 0.041592 245.000000 0.220840 22.000000 -0.271268 152.000000 0.029122 186.000000 0.104314
152862.000000 1.967694 287.000000 298.000000 189.000000 -0.045617 218.000000 0.087598 240.000000 -0.031368 284.000000 0.470766 16.000000 -0.058952 20.000000 -0.013105 34.000000 -0.086210
154644.000000 1.596675 294.000000 271.000000 201.000000 -0.060107 225.000000 0.059735 236.000000 -0.025486 256.000000 -0.037523 14.000000 -0.081398 121.000000 -0.035234 143.000000 -0.124134
155201.000000 1.171537 286.000000 299.000000 247.000000 -0.063854 272.000000 0.034466 278.000000 -0.022351 289.000000 -0.036378 8.000000 0.185597 38.000000 0.222370 52.000000 -0.147457
155500.000000 1.100911 299.000000 313.000000 266.000000 -0.097649 292.000000 0.006050 300.000000 -0.018699 302.000000 -0.029624 10.000000 0.199970 21.000000 0.170549 40.000000 -0.239529
155813.000000 1.106396 313.000000 298.000000 96.000000 0.029655 188.000000 0.019257 238.000000 -0.064718 283.000000 -0.073586 12.000000 0.163542 135.000000 0.195060 178.000000 0.000259
159278.000000 2.081692 291.000000 309.000000 266.000000 -0.035372 288.000000 0.059299 291.000000 0.108954 298.000000 0.698140 15.000000 -0.062006 131.000000 0.013116 155.000000 -0.080018
159587.000000 1.501197 309.000000 290.000000 215.000000 -0.052229 242.000000 0.076674 252.000000 -0.013201 275.000000 -0.037557 18.000000 -0.132423 128.000000 -0.024524 144.000000 -0.067317
160188.000000 1.126582 311.000000 290.000000 243.000000 -0.074624 265.000000 0.024171 270.000000 -0.012318 272.000000 -0.007679 19.000000 0.201157 31.000000 0.463838 57.000000 -0.084641
160478.000000 0.979267 290.000000 280.000000 158.000000 0.001114 185.000000 0.019814 210.000000 -0.043397 267.000000 -0.021297 11.000000 0.178923 119.000000 0.190675 158.000000 0.001114
163930.000000 1.411023 261.000000 293.000000 196.000000 0.038259 219.000000 0.124545 240.000000 0.029013 272.000000 0.032176 19.000000 -0.292251 172.000000 0.057349 196.000000 0.038259
164223.000000 1.356108 293.000000 319.000000 214.000000 -0.040733 245.000000 0.065359 261.000000 -0.021961 298.000000 0.017882 19.000000 -0.215587 136.000000 0.063418 160.000000 0.020677
165702.000000 1.297636 288.000000 270.000000 201.000000 -0.055892 229.000000 0.064831 236.000000 0.007448 255.000000 -0.025938 18.000000 -0.128850 114.000000 -0.026390 146.000000 -0.082428
165972.000000 1.173733 270.000000 299.000000 235.000000 -0.055376 258.000000 0.042696 275.000000 -0.030174 287.000000 -0.027573 12.000000 0.203264 28.000000 0.903672 46.000000 -0.135716
166271.000000 1.151505 299.000000 309.000000 255.000000 -0.059528 278.000000 0.025629 293.000000 -0.061035 296.000000 -0.051898 11.000000 0.183321 36.000000 0.504543 53.000000 -0.146398
170911.000000 1.370168 282.000000 307.000000 211.000000 -0.040332 233.000000 0.065876 252.000000 -0.016743 283.000000 -0.020045 16.000000 -0.239487 137.000000 0.031673 155.000000 -0.030818
171499.000000 2.015094 281.000000 294.000000 188.000000 -0.063907 221.000000 0.073812 258.000000 -0.008965 272.000000 -0.016379 17.000000 -0.020626 126.000000 0.015355 149.000000 -0.053266
173561.000000 1.302603 295.000000 294.000000 246.000000 -0.021502 273.000000 0.814938 270.000000 0.100660 277.000000 0.274467 19.000000 -0.119406 127.000000 -0.027999 147.000000 -0.100067
173855.000000 1.388683 294.000000 263.000000 199.000000 -0.040324 224.000000 0.047905 235.000000 -0.026061 248.000000 -0.038366 17.000000 -0.117292 114.000000 -0.047933 140.000000 -0.110940
178185.000000 1.448545 262.000000 278.000000 189.000000 0.063188 212.000000 0.154849 230.000000 0.071621 262.000000 0.052328 19.000000 -0.285891 165.000000 0.073997 192.000000 0.042185
178741.000000 1.387523 278.000000 302.000000 208.000000 -0.033845 232.000000 0.062553 254.000000 -0.046147 280.000000 0.000864 13.000000 0.024451 124.000000 0.008475 153.000000 -0.066226
179667.000000 1.489376 315.000000 288.000000 232.000000 -0.011127 267.000000 0.064455 268.000000 0.089141 275.000000 0.422809 24.000000 -0.116942 165.000000 -0.035685 179.000000 -0.055905
179955.000000 1.453418 288.000000 303.000000 243.000000 -0.003568 279.000000 1.036056 289.000000 0.216558 290.000000 0.256667 18.000000 -0.104717 122.000000 -0.012178 154.000000 -0.081893
180258.000000 1.107905 303.000000 264.000000 208.000000 -0.032148 233.000000 0.056068 246.000000 -0.015326 248.000000 -0.031236 9.000000 0.123860 119.000000 -0.012559 127.000000 -0.053938
180522.000000 1.180801 264.000000 277.000000 164.000000 -0.038136 185.000000 0.000045 229.000000 -0.074905 263.000000 -0.031392 10.000000 0.147086 39.000000 0.122715 52.000000 -0.105452
180799.000000 1.128531 277.000000 290.000000 82.000000 0.057272 179.000000 0.012462 185.000000 -0.001127 279.000000 0.011392 9.000000 0.135364 118.000000 0.187383 167.000000 -0.009105
183131.000000 0.989373 289.000000 297.000000 42.000000 -0.643431 179.000000 0.064816 225.000000 -0.077961 286.000000 -0.126944 9.000000 0.094858 126.000000 0.345053 225.000000 -0.077961
184006.000000 1.481884 267.000000 275.000000 185.000000 0.046956 210.000000 0.149808 217.000000 0.115483 266.000000 0.468788 15.000000 -0.197580 164.000000 0.042646 188.000000 0.071439
185159.000000 1.386646 289.000000 292.000000 245.000000 -0.028210 271.000000 0.151522 267.000000 0.040550 274.000000 0.974846 17.000000 -0.071927 113.000000 -0.023446 153.000000 -0.189528
186047.000000 1.159176 306.000000 292.000000 85.000000 -0.041181 181.000000 -0.004435 191.000000 -0.021612 279.000000 -0.031897 10.000000 0.154679 38.000000 0.235005 51.000000 -0.157194
190994.000000 1.434172 301.000000 289.000000 239.000000 -0.023541 268.000000 0.626772 266.000000 0.136709 273.000000 0.242730 10.000000 0.020833 122.000000 -0.012150 138.000000 -0.088592
191283.000000 1.272637 289.000000 259.000000 189.000000 -0.035755 217.000000 0.067188 233.000000 -0.039896 247.000000 -0.017797 18.000000 -0.117127 116.000000 -0.028508 140.000000 -0.085155
191831.000000 0.948264 289.000000 300.000000 254.000000 -0.071664 277.000000 -0.011662 286.000000 -0.020658 291.000000 -0.032539 9.000000 0.113813 137.000000 0.112158 165.000000 -0.032345
195048.000000 1.313704 266.000000 298.000000 198.000000 0.022647 226.000000 0.126860 251.000000 0.051060 287.000000 0.314667 15.000000 -0.252032 172.000000 0.051537 199.000000 0.022663
196202.000000 1.109561 273.000000 306.000000 256.000000 -0.078869 279.000000 0.032554 288.000000 -0.031036 292.000000 -0.037509 12.000000 0.159373 37.000000 0.224106 50.000000 -0.128244
199415.000000 1.380282 263.000000 293.000000 206.000000 -0.019413 228.000000 0.086669 241.000000 0.009490 276.000000 -0.005887 15.000000 -0.224939 132.000000 0.025191 152.000000 -0.044854
200294.000000 1.402179 297.000000 275.000000 201.000000 -0.069174 230.000000 0.043112 241.000000 -0.031638 264.000000 -0.019710 17.000000 -0.095907 122.000000 -0.010814 152.000000 -0.080095
201180.000000 1.183132 299.000000 290.000000 66.000000 -0.058231 184.000000 0.013886 222.000000 -0.056737 278.000000 -0.060235 12.000000 0.137821 129.000000 0.234789 173.000000 -0.006352
204949.000000 1.352990 313.000000 312.000000 257.000000 -0.029395 288.000000 1.064414 285.000000 0.129383 292.000000 0.209806 18.000000 -0.145711 134.000000 -0.004298 156.000000 -0.050834
205532.000000 1.021472 271.000000 295.000000 248.000000 -0.063056 272.000000 0.036193 281.000000 -0.026283 282.000000 -0.012004 10.000000 0.144889 32.000000 0.403058 47.000000 -0.118965
205827.000000 1.046257 295.000000 293.000000 60.000000 -0.145619 180.000000 0.005013 205.000000 -0.040442 281.000000 0.001179 10.000000 0.169627 132.000000 0.199597 172.000000 0.004042
208997.000000 1.383570 268.000000 285.000000 176.000000 0.028172 212.000000 0.137339 231.000000 0.055019 268.000000 0.060098 2.000000 1.280780 166.000000 0.051527 176.000000 0.028172
209282.000000 1.350442 285.000000 317.000000 221.000000 -0.025988 243.000000 0.071710 266.000000 -0.010766 307.000000 0.429873 17.000000 -0.254088 140.000000 0.061533 162.000000 0.015279
210217.000000 1.184515 316.000000 265.000000 209.000000 -0.057079 231.000000 0.042919 249.000000 -0.039901 250.000000 -0.050622 18.000000 -0.118808 158.000000 -0.024027 175.000000 -0.022537
210760.000000 1.058529 278.000000 286.000000 59.000000 -0.104450 178.000000 0.003372 198.000000 -0.018496 274.000000 0.000798 8.000000 0.144014 131.000000 0.164203 163.000000 -0.015845
213664.000000 1.333839 291.000000 287.000000 189.000000 0.005845 211.000000 0.136986 225.000000 0.044728 275.000000 0.299586 16.000000 -0.266068 168.000000 0.048778 177.000000 0.021427
213951.000000 1.361748 287.000000 317.000000 222.000000 -0.042207 247.000000 0.056097 259.000000 -0.021380 302.000000 0.147902 15.000000 -0.253627 132.000000 0.050266 180.000000 -0.006735
214268.000000 1.437291 317.000000 294.000000 216.000000 -0.030400 242.000000 0.060856 264.000000 -0.031900 280.000000 -0.032557 20.000000 -0.073666 128.000000 0.007500 147.000000 -0.031356
215122.000000 1.060505 276.000000 282.000000 61.000000 -0.027274 179.000000 0.028183 215.000000 -0.043919 267.000000 -0.124893 9.000000 0.103232 120.000000 0.263728 172.000000 0.008544
217713.000000 1.371815 270.000000 333.000000 292.000000 -0.033777 312.000000 0.053935 315.000000 0.118464 322.000000 0.472570 18.000000 -0.193280 156.000000 0.050009 183.000000 -0.034049
218046.000000 1.440689 333.000000 284.000000 218.000000 -0.030360 243.000000 0.059371 252.000000 -0.015457 269.000000 -0.038653 16.000000 -0.126287 123.000000 -0.003432 130.000000 -0.026159
218624.000000 1.092882 294.000000 302.000000 65.000000 -0.100020 185.000000 0.020002 206.000000 -0.019042 292.000000 -0.060267 10.000000 0.126848 139.000000 0.226958 206.000000 -0.019042
222114.000000 1.071662 273.000000 304.000000 79.000000 0.007696 188.000000 0.012416 196.000000 -0.013007 289.000000 -0.062523 15.000000 0.074061 139.000000 0.158295 182.000000 0.009438
228826.000000 1.398165 291.000000 292.000000 194.000000 0.013292 220.000000 0.136431 259.000000 0.008595 281.000000 0.314408 19.000000 -0.303639 172.000000 0.048287 174.000000 0.037535
229426.000000 1.956395 308.000000 316.000000 272.000000 -0.035957 295.000000 0.099249 295.000000 0.099249 302.000000 0.285958 17.000000 -0.039061 136.000000 0.033658 163.000000 -0.031094
230004.000000 0.953965 262.000000 279.000000 228.000000 -0.073257 254.000000 0.030411 266.000000 -0.035326 268.000000 -0.050984 11.000000 0.152555 35.000000 0.240388 64.000000 -0.061887
230283.000000 0.943263 279.000000 287.000000 205.000000 -0.053213 227.000000 0.030941 254.000000 -0.045768 280.000000 0.034906 8.000000 0.139408 125.000000 0.142896 171.000000 -0.043666
233197.000000 1.436633 286.000000 287.000000 190.000000 0.035673 217.000000 0.135469 243.000000 0.044198 266.000000 0.052976 18.000000 -0.269729 169.000000 0.061882 190.000000 0.035673
234114.000000 1.331335 311.000000 257.000000 201.000000 -0.041664 224.000000 0.082333 240.000000 -0.016195 244.000000 -0.024141 15.000000 -0.121566 116.000000 -0.005802 121.000000 -0.041726
234371.000000 1.084967 257.000000 283.000000 71.000000 -0.051728 171.000000 0.015956 187.000000 -0.006457 272.000000 -0.012306 11.000000 0.159636 34.000000 0.223352 48.000000 -0.124360
237279.000000 1.346210 294.000000 307.000000 200.000000 -0.029784 228.000000 0.081769 247.000000 0.006047 285.000000 -0.003871 11.000000 -0.012536 132.000000 -0.005411 153.000000 -0.060129
237896.000000 1.412772 310.000000 296.000000 229.000000 -0.040394 253.000000 0.052457 265.000000 -0.004344 285.000000 -0.036757 20.000000 -0.122838 167.000000 0.018899 183.000000 -0.034359
238192.000000 1.013120 296.000000 287.000000 156.000000 0.008137 189.000000 0.034907 217.000000 -0.027054 277.000000 0.001190 8.000000 0.163448 31.000000 0.394605 46.000000 -0.109408
240798.000000 1.321121 270.000000 285.000000 188.000000 -0.024027 216.000000 0.089895 233.000000 -0.010794 266.000000 0.001679 17.000000 -0.057877 122.000000 -0.012588 134.000000 -0.064468
245176.000000 1.131663 275.000000 281.000000 35.000000 -0.369167 177.000000 0.018715 231.000000 -0.044484 267.000000 -0.023388 12.000000 0.166866 135.000000 0.156944 174.000000 -0.014012
247777.000000 1.349687 265.000000 306.000000 218.000000 -0.036424 235.000000 0.080959 259.000000 -0.037333 291.000000 0.045063 17.000000 -0.246143 133.000000 0.073009 154.000000 -0.025721
248083.000000 2.042995 306.000000 297.000000 233.000000 -0.080739 259.000000 0.022725 277.000000 -0.056853 281.000000 -0.036242 16.000000 -0.083009 138.000000 0.027981 158.000000 0.008937
251875.000000 1.514267 304.000000 278.000000 214.000000 -0.036311 238.000000 0.070477 250.000000 -0.009005 264.000000 -0.020682 20.000000 -0.094356 132.000000 -0.024014 149.000000 -0.057098
252153.000000 1.195071 278.000000 296.000000 244.000000 -0.054824 267.000000 0.042024 278.000000 -0.030391 287.000000 -0.045832 10.000000 0.195368 32.000000 0.634425 49.000000 -0.131816
255968.000000 1.132175 259.000000 283.000000 60.000000 -0.097154 172.000000 0.011253 213.000000 -0.052649 268.000000 -0.072728 18.000000 0.037473 124.000000 0.209007 213.000000 -0.052649
258883.000000 1.189825 293.000000 296.000000 250.000000 -0.044497 275.000000 0.017289 277.000000 0.025440 283.000000 -0.014779 9.000000 0.169669 30.000000 0.610297 45.000000 -0.143764
261225.000000 1.890208 297.000000 260.000000 185.000000 0.025129 219.000000 0.061400 234.000000 0.037841 236.000000 0.051352 21.000000 -0.070074 153.000000 0.014516 185.000000 0.025129
264434.000000 1.378198 292.000000 266.000000 214.000000 -0.026538 232.000000 0.047665 235.000000 0.039671 253.000000 -0.033745 17.000000 -0.101676 154.000000 0.000943 178.000000 0.008654
264700.000000 1.106006 266.000000 290.000000 171.000000 -0.000984 195.000000 0.023655 217.000000 0.000440 278.000000 -0.010719 18.000000 -0.018730 38.000000 0.130175 55.000000 -0.065608
268521.000000 1.001257 288.000000 285.000000 101.000000 0.055360 182.000000 0.037823 210.000000 -0.047619 272.000000 -0.056630 10.000000 0.142824 128.000000 0.173293 175.000000 0.011710
272298.000000 1.124956 290.000000 301.000000 254.000000 -0.091944 276.000000 0.014923 284.000000 -0.026847 286.000000 -0.037035 13.000000 0.159674 20.000000 0.135113 37.000000 -0.227474
272599.000000 0.955770 301.000000 286.000000 34.000000 -0.418746 178.000000 0.009959 219.000000 -0.053556 271.000000 -0.077788 12.000000 0.141741 125.000000 0.206590 219.000000 -0.053556
275200.000000 1.408696 265.000000 293.000000 193.000000 0.002665 218.000000 0.099731 256.000000 -0.016099 277.000000 0.237431 18.000000 -0.254346 174.000000 0.026336 183.000000 -0.008319
275805.000000 1.366551 312.000000 268.000000 211.000000 -0.043840 236.000000 0.053932 245.000000 -0.020488 253.000000 -0.037637 17.000000 -0.135942 123.000000 -0.028213 138.000000 -0.059169
276073.000000 0.994824 268.000000 293.000000 169.000000 -0.040533 189.000000 -0.002884 223.000000 -0.058306 280.000000 0.021507 10.000000 0.173760 39.000000 0.178244 51.000000 -0.122369
284268.000000 1.906283 291.000000 284.000000 193.000000 -0.036913 219.000000 0.084689 235.000000 -0.016157 271.000000 -0.010265 20.000000 -0.081006 165.000000 -0.025440 193.000000 -0.036913
284840.000000 1.106680 288.000000 315.000000 273.000000 -0.055392 294.000000 0.006599 299.000000 0.012131 302.000000 0.054639 12.000000 0.142152 34.000000 0.354034 57.000000 -0.063525
287191.000000 1.819669 303.000000 321.000000 224.000000 -0.033575 250.000000 0.072479 263.000000 -0.015687 305.000000 0.080690 15.000000 -0.060097 141.000000 0.006326 154.000000 -0.006964
287512.000000 1.420924 321.000000 280.000000 231.000000 -0.039764 251.000000 0.069999 264.000000 -0.013729 267.000000 -0.036565 23.000000 -0.082431 163.000000 0.020596 173.000000 0.019107
287792.000000 1.084876 280.000000 289.000000 78.000000 -0.008904 176.000000 0.031519 186.000000 0.012696 275.000000 -0.087293 11.000000 0.132400 128.000000 0.141670 171.000000 0.011958
290718.000000 1.373791 307.000000 271.000000 218.000000 -0.053636 237.000000 0.052039 256.000000 -0.034840 259.000000 -0.052880 15.000000 -0.122933 159.000000 -0.012479 198.000000 -0.034483
290989.000000 1.068452 271.000000 284.000000 165.000000 0.008083 183.000000 0.038320 214.000000 -0.023417 269.000000 -0.031394 10.000000 0.130538 39.000000 0.128139 56.000000 -0.068492
293292.000000 1.342771 261.000000 313.000000 221.000000 -0.018699 243.000000 0.065410 258.000000 -0.046503 300.000000 0.002697 16.000000 -0.260804 135.000000 0.054962 141.000000 0.040292
293937.000000 1.060452 332.000000 268.000000 224.000000 -0.045629 241.000000 0.054214 254.000000 -0.021728 257.000000 -0.029721 19.000000 -0.114531 156.000000 0.018118 185.000000 0.003840
294205.000000 1.007098 268.000000 293.000000 79.000000 0.025867 183.000000 0.031923 206.000000 -0.004907 280.000000 -0.068556 12.000000 0.128979 134.000000 0.213511 176.000000 0.015231
297107.000000 1.091115 284.000000 284.000000 157.000000 -0.023247 173.000000 -0.001553 183.000000 -0.002134 268.000000 -0.003807 8.000000 0.172589 41.000000 0.232448 53.000000 -0.156833
299433.000000 1.394353 278.000000 298.000000 211.000000 -0.019701 232.000000 0.089060 243.000000 -0.001898 278.000000 0.005861 15.000000 -0.189378 174.000000 0.000774 188.000000 -0.016263
300024.000000 1.133256 293.000000 308.000000 190.000000 -0.005267 208.000000 0.008792 240.000000 -0.056098 295.000000 -0.020897 10.000000 0.176595 45.000000 0.155186 57.000000 -0.169878
302670.000000 0.998967 287.000000 295.000000 77.000000 -0.024134 183.000000 0.030360 228.000000 -0.054230 283.000000 -0.044215 15.000000 0.130125 135.000000 0.135065 177.000000 0.024780
307638.000000 1.045926 277.000000 288.000000 59.000000 -0.124592 176.000000 0.033674 183.000000 0.017434 273.000000 -0.094874 9.000000 0.160771 132.000000 0.175475 182.000000 0.022325
310261.000000 1.164341 282.000000 282.000000 154.000000 -0.047195 187.000000 0.027695 203.000000 -0.016065 266.000000 -0.017065 10.000000 0.159795 34.000000 0.225595 48.000000 -0.104280
312298.000000 1.389327 271.000000 289.000000 196.000000 0.005264 219.000000 0.111442 240.000000 0.021553 278.000000 0.428717 17.000000 -0.248560 172.000000 0.037582 180.000000 0.017709
315833.000000 1.068434 286.000000 291.000000 171.000000 0.002568 189.000000 0.010812 222.000000 -0.063069 277.000000 -0.042678 15.000000 0.176037 20.000000 0.125583 40.000000 -0.171391
323426.000000 1.319682 292.000000 286.000000 226.000000 0.001159 264.000000 0.040315 265.000000 0.038936 269.000000 0.023983 19.000000 -0.106149 168.000000 0.024043 183.000000 -0.002869
325469.000000 1.311878 292.000000 301.000000 186.000000 -0.061632 222.000000 0.054778 242.000000 -0.038342 285.000000 0.102099 17.000000 -0.122605 128.000000 -0.024500 149.000000 -0.097933
328115.000000 1.356758 305.000000 281.000000 188.000000 0.016927 205.000000 0.056818 233.000000 -0.037163 272.000000 -0.013403 22.000000 -0.124498 164.000000 0.034122 177.000000 0.009513
330459.000000 1.171600 314.000000 280.000000 240.000000 -0.026488 259.000000 0.055079 264.000000 0.019123 265.000000 0.018010 21.000000 -0.108293 165.000000 0.038450 173.000000 0.034576
332485.000000 1.760766 298.000000 293.000000 200.000000 -0.051661 227.000000 0.073575 245.000000 -0.016204 280.000000 0.004468 16.000000 -0.096912 119.000000 0.017043 145.000000 -0.062976
333075.000000 0.986350 297.000000 284.000000 241.000000 0.062287 263.000000 0.600812 260.000000 0.510499 267.000000 0.706440 9.000000 0.195190 33.000000 0.449483 48.000000 -0.145627
335114.000000 1.321878 303.000000 300.000000 230.000000 -0.041303 260.000000 0.070468 284.000000 -0.019094 289.000000 -0.014549 11.000000 0.026300 124.000000 0.021913 148.000000 0.002805
343314.000000 1.374353 311.000000 286.000000 239.000000 -0.027368 263.000000 0.048104 269.000000 0.003057 270.000000 -0.007679 17.000000 -0.114079 168.000000 0.019776 173.000000 0.000388
343600.000000 1.150880 286.000000 298.000000 34.000000 -0.427616 192.000000 0.008308 222.000000 -0.029342 284.000000 -0.091633 15.000000 0.125834 134.000000 0.190520 179.000000 -0.015328
348286.000000 1.067743 290.000000 294.000000 184.000000 -0.003605 206.000000 0.019607 214.000000 -0.009705 283.000000 -0.033116 22.000000 0.083340 35.000000 0.236757 57.000000 -0.071645
350336.000000 1.925346 302.000000 299.000000 237.000000 -0.029045 262.000000 0.054889 273.000000 0.003621 289.000000 -0.036550 18.000000 -0.049732 165.000000 0.019433 189.000000 -0.008202
352374.000000 1.909532 301.000000 304.000000 197.000000 -0.017304 227.000000 0.086831 238.000000 -0.003545 279.000000 -0.032446 21.000000 -0.087251 179.000000 0.005144 197.000000 -0.017304
357618.000000 1.930566 282.000000 283.000000 186.000000 0.027907 215.000000 0.146004 237.000000 0.040989 264.000000 0.044437 15.000000 -0.096440 168.000000 0.042657 187.000000 0.023721
361421.000000 1.082086 288.000000 276.000000 78.000000 -0.034602 167.000000 0.006379 183.000000 -0.019436 262.000000 -0.054245 11.000000 0.182635 42.000000 0.140869 55.000000 -0.133050
363752.000000 1.967118 292.000000 283.000000 216.000000 -0.065928 237.000000 0.055889 253.000000 -0.042419 271.000000 -0.025820 19.000000 -0.065702 122.000000 0.017149 155.000000 -0.101018
366382.000000 1.771092 294.000000 283.000000 226.000000 -0.043435 252.000000 0.049434 273.000000 -0.016035 275.000000 -0.011521 15.000000 -0.043312 123.000000 0.007784 151.000000 -0.045394
368999.000000 1.060848 277.000000 299.000000 166.000000 -0.024353 193.000000 0.044143 210.000000 0.018046 286.000000 -0.038978 4.000000 0.195347 30.000000 0.509389 50.000000 -0.070486
371347.000000 1.112965 300.000000 303.000000 175.000000 -0.019891 196.000000 0.019184 206.000000 -0.014312 288.000000 -0.078308 10.000000 0.164925 34.000000 0.393667 49.000000 -0.134703
375724.000000 1.292814 287.000000 317.000000 225.000000 -0.035264 249.000000 0.085391 275.000000 -0.026208 305.000000 0.058339 17.000000 -0.252421 157.000000 0.034482 176.000000 -0.013213
378981.000000 1.244344 304.000000 271.000000 135.000000 -0.026142 195.000000 0.036694 206.000000 0.003136 258.000000 0.041241 15.000000 -0.115263 159.000000 0.036835 183.000000 -0.012053
381593.000000 1.627426 306.000000 265.000000 220.000000 -0.021127 243.000000 0.048341 251.000000 0.029438 253.000000 0.022480 20.000000 -0.093216 157.000000 -0.020235 213.000000 -0.015030
383891.000000 1.387645 265.000000 304.000000 187.000000 0.002402 233.000000 0.081004 276.000000 0.010329 285.000000 -0.007759 16.000000 -0.273860 132.000000 0.036914 153.000000 -0.050026
387147.000000 0.937505 284.000000 283.000000 70.000000 -0.021220 175.000000 0.021865 188.000000 0.004324 269.000000 -0.098792 11.000000 0.138367 127.000000 0.130726 169.000000 -0.000125
393889.000000 1.196482 310.000000 269.000000 177.000000 0.026237 194.000000 0.038274 218.000000 -0.007429 254.000000 0.031414 16.000000 -0.102968 160.000000 0.026332 178.000000 0.025939
398840.000000 1.185164 290.000000 267.000000 154.000000 -0.011002 177.000000 0.039090 188.000000 0.033917 253.000000 0.020613 15.000000 -0.107565 159.000000 0.019797 163.000000 0.018589
401149.000000 1.281766 277.000000 306.000000 208.000000 -0.020545 239.000000 0.072576 260.000000 -0.040433 294.000000 -0.013635 17.000000 -0.247592 130.000000 0.024376 135.000000 0.017871
401764.000000 1.132240 309.000000 298.000000 55.000000 -0.237020 187.000000 -0.007895 205.000000 -0.022597 284.000000 -0.030642 11.000000 0.177460 138.000000 0.113642 205.000000 -0.022597
404699.000000 1.052586 305.000000 285.000000 239.000000 -0.105111 263.000000 0.083086 270.000000 0.102586 271.000000 0.106896 9.000000 0.182712 38.000000 0.261486 51.000000 -0.159376
407327.000000 1.227757 298.000000 263.000000 149.000000 -0.024922 191.000000 0.031022 202.000000 0.011713 251.000000 0.051365 17.000000 -0.100550 119.000000 -0.014221 132.000000 -0.039094
409928.000000 1.034081 288.000000 308.000000 174.000000 -0.014180 200.000000 0.020318 212.000000 0.000348 294.000000 -0.028352 11.000000 0.158312 38.000000 0.307572 55.000000 -0.107742
411985.000000 1.357555 295.000000 289.000000 216.000000 -0.052770 242.000000 0.063845 256.000000 -0.017065 278.000000 -0.006032 10.000000 0.036098 172.000000 -0.007925 180.000000 -0.042393
414329.000000 1.346301 303.000000 291.000000 236.000000 -0.032413 257.000000 0.064137 278.000000 -0.049779 280.000000 -0.046613 20.000000 -0.122637 173.000000 0.042697 189.000000 0.006742
414620.000000 1.025568 291.000000 298.000000 83.000000 -0.012503 181.000000 0.021546 195.000000 0.007377 287.000000 -0.061940 10.000000 0.131523 141.000000 0.127333 195.000000 0.007377
419304.000000 1.069346 294.000000 311.000000 179.000000 -0.010909 196.000000 0.022993 227.000000 0.006423 298.000000 0.018149 9.000000 0.168579 35.000000 0.416459 50.000000 -0.174437
421334.000000 1.456334 281.000000 320.000000 224.000000 -0.026175 248.000000 0.058074 270.000000 -0.039056 303.000000 -0.008477 19.000000 -0.294418 159.000000 0.053855 180.000000 -0.025581
