8490.000000 1.219189 239.000000 288.000000 206.000000 0.058806 231.000000 0.213053 257.000000 -0.020364 266.000000 0.014918 21.000000 -0.225404 169.000000 0.038164 182.000000 0.056362
26305.000000 1.451382 181.000000 365.000000 294.000000 0.025486 316.000000 0.141348 336.000000 -0.051931 343.000000 -0.015661 20.000000 -0.483336 162.000000 0.137310 219.000000 -0.036252
44586.000000 2.024171 259.000000 295.000000 210.000000 0.055409 238.000000 0.234060 266.000000 -0.005238 274.000000 0.035857 31.000000 -0.186267 176.000000 0.038045 210.000000 0.055409
45424.000000 2.392056 260.000000 271.000000 195.000000 0.115392 216.000000 0.269607 241.000000 0.045030 250.000000 0.031567 20.000000 -0.108006 161.000000 -0.085971 184.000000 0.059451
46216.000000 2.116824 249.000000 284.000000 146.000000 -0.157226 229.000000 0.242243 253.000000 0.033746 260.000000 -0.011130 22.000000 -0.126359 169.000000 -0.003511 241.000000 0.115848
48561.000000 2.282667 195.000000 343.000000 248.000000 -0.026302 287.000000 0.169908 309.000000 -0.012426 322.000000 0.017871 21.000000 0.109671 20.000000 0.129921 119.000000 -0.137629
49943.000000 1.194085 248.000000 548.000000 466.000000 0.035720 500.000000 0.179217 517.000000 -0.027946 523.000000 0.013998 13.000000 -0.134316 221.000000 2.263025 258.000000 -0.223022
55456.000000 2.064637 243.000000 298.000000 210.000000 0.052118 235.000000 0.190741 266.000000 -0.028083 274.000000 -0.009039 24.000000 -0.170756 175.000000 0.013136 194.000000 0.016821
57605.000000 1.856111 248.000000 253.000000 137.000000 -0.166973 198.000000 0.202462 223.000000 0.049141 230.000000 0.021869 19.000000 -0.089470 21.000000 -0.094659 37.000000 -0.196131
59061.000000 2.191679 169.000000 338.000000 252.000000 -0.015736 281.000000 0.143150 301.000000 -0.037273 313.000000 -0.000142 22.000000 0.005970 169.000000 0.113807 189.000000 0.024951
120429.000000 1.342148 263.000000 269.000000 190.000000 0.033200 213.000000 0.148231 234.000000 0.013372 253.000000 0.141269 18.000000 -0.061569 21.000000 -0.046475 30.000000 -0.130960
204715.000000 0.796288 240.000000 210.000000 157.000000 -0.127194 179.000000 -0.017886 188.000000 -0.042510 193.000000 -0.000754 18.000000 -0.160783 119.000000 0.004924 145.000000 -0.087303
207789.000000 1.485561 203.000000 223.000000 173.000000 -0.031251 201.000000 0.060284 204.000000 0.087226 211.000000 0.255626 18.000000 -0.095489 132.000000 -0.002427 149.000000 -0.061470
208700.000000 1.651147 449.000000 434.000000 216.000000 0.166378 265.000000 0.587503 309.000000 -0.023062 409.000000 -0.012415 20.000000 0.022966 259.000000 0.536561 309.000000 -0.023062
209134.000000 1.574514 434.000000 452.000000 237.000000 0.071615 287.000000 0.560676 336.000000 0.033041 433.000000 0.110737 24.000000 -0.141081 270.000000 0.351628 336.000000 0.033041
209586.000000 1.723180 452.000000 428.000000 227.000000 0.101413 270.000000 0.578089 319.000000 0.023447 414.000000 0.241322 19.000000 -0.070065 175.000000 0.416206 215.000000 0.133764
210868.000000 1.710471 436.000000 415.000000 234.000000 0.144169 273.000000 0.535029 319.000000 0.043243 393.000000 0.036914 18.000000 -0.035767 175.000000 0.336287 195.000000 -0.865059
212130.000000 1.399671 847.000000 407.000000 229.000000 0.122524 274.000000 0.580548 319.000000 0.055689 381.000000 -0.015141 20.000000 -0.111756 177.000000 0.297071 224.000000 0.135612
212537.000000 1.499217 407.000000 397.000000 236.000000 0.154356 270.000000 0.554984 310.000000 0.037508 377.000000 0.009911 22.000000 -0.243025 166.000000 0.387335 221.000000 0.116285
212934.000000 1.399928 397.000000 413.000000 194.000000 -0.811209 271.000000 0.532083 313.000000 -0.000141 393.000000 0.038808 18.000000 -0.098285 175.000000 0.243273 223.000000 0.166521
213347.000000 1.383730 413.000000 397.000000 195.000000 -0.710709 270.000000 0.536971 315.000000 0.039873 377.000000 0.031176 19.000000 -0.145643 174.000000 0.348964 219.000000 0.099478
213744.000000 1.553859 397.000000 400.000000 225.000000 0.084518 276.000000 0.525899 324.000000 0.030913 384.000000 0.123325 20.000000 -0.172551 173.000000 0.398168 218.000000 0.091886
214144.000000 1.472261 400.000000 795.000000 631.000000 0.084607 673.000000 0.575166 719.000000 0.053354 771.000000 -0.003291 19.000000 -0.169323 402.000000 1.489122 429.000000 -0.260471
215316.000000 1.436171 377.000000 395.000000 228.000000 0.027678 278.000000 0.524593 316.000000 0.044203 367.000000 0.028074 16.000000 -0.188373 172.000000 0.317804 193.000000 -0.835284
215711.000000 1.593291 395.000000 404.000000 234.000000 0.128199 273.000000 0.592521 318.000000 0.061694 379.000000 0.020217 29.000000 -0.256428 178.000000 0.367104 224.000000 0.098904
216115.000000 1.520810 404.000000 379.000000 223.000000 0.063181 270.000000 0.581819 308.000000 0.112476 358.000000 0.073042 20.000000 -0.147044 173.000000 0.252913 192.000000 -0.846741
216494.000000 1.451083 379.000000 413.000000 241.000000 0.077230 288.000000 0.559800 335.000000 0.086836 395.000000 0.104268 19.000000 -0.154294 180.000000 0.265688 231.000000 0.084267
216907.000000 1.488217 413.000000 374.000000 213.000000 0.083556 264.000000 0.591503 320.000000 0.064138 352.000000 -0.012211 19.000000 -0.130765 169.000000 0.283793 213.000000 0.083556
217281.000000 1.273152 374.000000 393.000000 194.000000 -0.615184 270.000000 0.522355 323.000000 0.039108 370.000000 0.009906 17.000000 -0.095388 174.000000 0.246116 224.000000 0.109645
217674.000000 1.405612 393.000000 389.000000 222.000000 0.084400 272.000000 0.556252 311.000000 0.109434 365.000000 0.048417 19.000000 -0.099420 168.000000 0.271156 216.000000 0.106061
218063.000000 1.603842 389.000000 388.000000 205.000000 -0.628666 284.000000 0.528998 335.000000 0.054657 366.000000 0.064689 22.000000 -0.168915 183.000000 0.273166 231.000000 0.020063
218451.000000 1.520629 388.000000 396.000000 229.000000 0.093058 266.000000 0.520517 325.000000 0.108684 382.000000 0.165833 21.000000 -0.194402 176.000000 0.271132 193.000000 -0.837362
218847.000000 1.444923 396.000000 414.000000 174.000000 0.287210 277.000000 0.530066 335.000000 0.063714 393.000000 0.026472 16.000000 -0.105185 173.000000 0.302429 196.000000 -0.758776
219653.000000 1.628542 392.000000 382.000000 192.000000 -0.774731 270.000000 0.553087 304.000000 0.173383 362.000000 0.087944 25.000000 -0.221991 171.000000 0.250206 192.000000 -0.774731
220437.000000 1.514043 402.000000 765.000000 598.000000 -0.448509 668.000000 0.633152 709.000000 0.154686 742.000000 0.199936 21.000000 -0.202085 394.000000 1.460156 432.000000 -0.270876
221630.000000 1.659546 428.000000 389.000000 191.000000 -0.884293 268.000000 0.708136 318.000000 0.114986 370.000000 -0.017820 25.000000 -0.199451 171.000000 0.264891 218.000000 0.192917
222400.000000 1.609807 381.000000 402.000000 230.000000 0.097363 277.000000 0.576204 324.000000 0.038982 389.000000 0.306709 22.000000 -0.259390 176.000000 0.430363 219.000000 0.051314
225179.000000 1.527666 412.000000 420.000000 227.000000 0.131053 273.000000 0.659849 322.000000 0.066240 397.000000 0.007966 23.000000 -0.177630 251.000000 0.304410 322.000000 0.066240
225599.000000 1.593470 420.000000 808.000000 588.000000 -1.043685 669.000000 0.681252 716.000000 0.031770 786.000000 -0.039202 19.000000 -0.074195 397.000000 1.460673 436.000000 -0.266506
226407.000000 1.517272 808.000000 422.000000 197.000000 -0.724577 273.000000 0.614374 322.000000 0.017306 403.000000 0.036803 23.000000 -0.257194 178.000000 0.450109 223.000000 0.158184
264773.000000 1.039422 169.000000 322.000000 226.000000 -0.117474 266.000000 0.123247 289.000000 -0.039044 297.000000 -0.030941 18.000000 -0.503776 100.000000 0.438577 151.000000 0.041351
267147.000000 0.855263 177.000000 351.000000 232.000000 -0.135899 295.000000 0.128072 316.000000 -0.034731 324.000000 -0.031172 18.000000 -0.408047 98.000000 0.404025 142.000000 -0.015098
270000.000000 0.883275 179.000000 372.000000 231.000000 -0.152789 324.000000 0.133100 344.000000 -0.057806 347.000000 -0.026693 12.000000 -0.798355 105.000000 0.489450 156.000000 0.037659
299049.000000 2.089076 224.000000 292.000000 205.000000 -0.018903 234.000000 0.130141 259.000000 -0.067603 266.000000 -0.051145 22.000000 -0.684250 108.000000 0.269824 142.000000 -0.135864
299578.000000 2.153308 237.000000 265.000000 171.000000 0.051819 209.000000 0.195910 233.000000 -0.021788 244.000000 0.021566 20.000000 -0.256302 102.000000 -0.007602 136.000000 -0.163902
300077.000000 2.215706 234.000000 268.000000 192.000000 0.080394 213.000000 0.216819 237.000000 0.005627 246.000000 0.007398 20.000000 -0.272602 108.000000 0.014561 145.000000 -0.196128
300586.000000 2.165535 241.000000 268.000000 143.000000 -0.194091 211.000000 0.191819 235.000000 -0.024044 245.000000 0.008795 18.000000 -0.225753 103.000000 -0.021082 143.000000 -0.194091
301082.000000 2.109030 228.000000 260.000000 176.000000 0.041191 204.000000 0.178401 215.000000 0.086049 238.000000 -0.026849 21.000000 -0.568620 98.000000 0.150315 137.000000 -0.186455
301567.000000 1.949373 225.000000 278.000000 201.000000 0.042304 224.000000 0.167555 250.000000 -0.053260 257.000000 -0.061473 19.000000 -0.780284 113.000000 0.226597 154.000000 -0.090533
302066.000000 2.015173 221.000000 275.000000 169.000000 0.056946 219.000000 0.140125 245.000000 -0.065536 251.000000 -0.043327 21.000000 -0.701867 98.000000 0.302581 137.000000 -0.135469
303044.000000 1.989719 212.000000 289.000000 213.000000 0.012743 235.000000 0.113026 255.000000 -0.083684 265.000000 -0.053340 20.000000 -0.804342 108.000000 0.288818 145.000000 -0.149297
304011.000000 2.097966 191.000000 300.000000 228.000000 -0.000591 247.000000 0.097857 271.000000 -0.050044 275.000000 -0.022427 20.000000 -0.782959 108.000000 0.262366 170.000000 0.047038
308522.000000 2.096506 216.000000 273.000000 187.000000 0.014074 219.000000 0.124999 245.000000 -0.073200 255.000000 -0.020205 20.000000 -0.746661 103.000000 0.346129 166.000000 0.019670
365881.000000 0.756005 173.000000 338.000000 225.000000 -0.133902 283.000000 0.141818 303.000000 -0.033401 317.000000 0.035660 17.000000 -0.551595 110.000000 0.444402 159.000000 0.014451
366395.000000 0.778541 176.000000 282.000000 230.000000 -0.058620 261.000000 0.023888 252.000000 -0.073543 259.000000 0.004734 18.000000 -0.613497 99.000000 0.479469 156.000000 -0.046456
370200.000000 2.043813 225.000000 259.000000 149.000000 -0.117947 207.000000 0.222320 227.000000 -0.001505 234.000000 0.033212 22.000000 -0.164857 126.000000 -0.057573 149.000000 -0.117947
377037.000000 1.040909 403.000000 221.000000 136.000000 0.008591 169.000000 0.119359 177.000000 0.083074 200.000000 0.086112 18.000000 -0.546881 104.000000 0.387871 136.000000 0.008591
377429.000000 0.963261 171.000000 227.000000 182.000000 0.097821 206.000000 0.162647 201.000000 0.088884 208.000000 0.207005 24.000000 -0.479197 100.000000 0.399331 163.000000 0.125125
377823.000000 0.999025 167.000000 222.000000 138.000000 0.082038 166.000000 0.123009 176.000000 0.111770 200.000000 0.081517 20.000000 -0.491992 106.000000 0.438341 144.000000 0.046019
379012.000000 0.918685 388.000000 239.000000 140.000000 0.008389 164.000000 0.102821 204.000000 0.039154 213.000000 0.065611 21.000000 -0.526564 103.000000 0.411480 144.000000 -0.013853
379426.000000 1.104469 175.000000 231.000000 110.000000 0.386629 170.000000 0.126741 178.000000 0.112761 210.000000 0.094611 22.000000 -0.415968 108.000000 0.394701 148.000000 0.035079
380213.000000 0.961865 386.000000 244.000000 101.000000 0.397065 163.000000 0.101303 167.000000 0.088998 221.000000 0.066477 20.000000 -0.473762 102.000000 0.411861 167.000000 0.088998
380619.000000 0.980642 162.000000 241.000000 197.000000 0.052413 220.000000 0.099765 216.000000 0.049890 223.000000 0.194138 19.000000 -0.587947 105.000000 0.374793 146.000000 -0.037617
381434.000000 0.963412 167.000000 241.000000 195.000000 0.036430 220.000000 0.150490 212.000000 0.056101 219.000000 0.120506 22.000000 -0.508061 99.000000 0.381284 127.000000 0.009233
381675.000000 2.244047 241.000000 412.000000 214.000000 0.022285 284.000000 0.393401 324.000000 0.014611 396.000000 0.261773 21.000000 -0.238495 172.000000 1.031740 214.000000 0.022285
382641.000000 0.956910 386.000000 240.000000 103.000000 0.384182 171.000000 0.097915 179.000000 0.046566 218.000000 0.064816 16.000000 -0.547653 100.000000 0.399150 142.000000 -0.041505
383044.000000 0.970207 163.000000 244.000000 206.000000 0.030816 223.000000 0.154516 216.000000 0.045488 223.000000 0.154516 26.000000 -0.498175 106.000000 0.401536 169.000000 0.068386
383288.000000 2.236179 244.000000 172.000000 47.000000 -0.484353 125.000000 -0.051834 134.000000 -0.091598 156.000000 -0.054499 21.000000 -0.253773 20.000000 -0.210403 47.000000 -0.484353
384111.000000 2.139921 416.000000 170.000000 40.000000 -0.357413 131.000000 -0.061518 141.000000 -0.104544 152.000000 -0.088857 20.000000 -0.050800 20.000000 -0.050800 40.000000 -0.357413
384281.000000 0.944061 170.000000 256.000000 214.000000 0.019328 235.000000 0.065599 224.000000 0.034767 231.000000 0.015050 25.000000 -0.494777 106.000000 0.433416 137.000000 0.023633
384708.000000 1.014233 171.000000 240.000000 197.000000 0.017711 219.000000 0.091926 208.000000 0.025280 215.000000 0.036737 24.000000 -0.464888 99.000000 0.402276 140.000000 -0.052211
385116.000000 0.915109 168.000000 260.000000 212.000000 0.010848 239.000000 0.054500 229.000000 0.030817 236.000000 0.032917 17.000000 -0.504296 97.000000 0.478795 139.000000 -0.052429
385376.000000 2.201505 260.000000 169.000000 42.000000 -0.378136 126.000000 -0.033213 132.000000 -0.072836 150.000000 -0.039170 21.000000 -0.244906 20.000000 -0.201835 43.000000 -0.397117
385545.000000 0.969027 169.000000 271.000000 222.000000 0.013478 250.000000 0.080029 242.000000 0.026096 249.000000 0.058461 25.000000 -0.475678 100.000000 0.518272 134.000000 -0.059280
386675.000000 2.215782 261.000000 180.000000 136.000000 -0.018339 159.000000 0.042727 157.000000 0.009953 164.000000 0.023009 17.000000 -0.063402 20.000000 -0.152446 36.000000 -0.329813
386855.000000 0.910015 180.000000 241.000000 202.000000 0.011535 220.000000 0.123745 210.000000 0.037021 217.000000 0.053401 20.000000 -0.581519 100.000000 0.412982 149.000000 0.016441
387269.000000 0.961081 173.000000 246.000000 196.000000 0.022400 225.000000 0.098640 213.000000 0.034486 220.000000 0.039110 23.000000 -0.463374 96.000000 0.390983 128.000000 -0.001991
387683.000000 0.846287 168.000000 267.000000 226.000000 -0.007084 246.000000 0.133994 241.000000 0.018602 248.000000 0.182034 21.000000 -0.467052 100.000000 0.511340 139.000000 -0.066404
388127.000000 0.884984 177.000000 276.000000 216.000000 -0.009701 255.000000 0.074985 241.000000 -0.000626 248.000000 0.027179 22.000000 -0.537636 102.000000 0.549716 144.000000 -0.041378
388858.000000 2.077724 287.000000 173.000000 50.000000 -0.356162 137.000000 -0.019215 141.000000 -0.051316 148.000000 -0.049498 24.000000 -0.294030 20.000000 -0.212212 50.000000 -0.356162
483466.000000 0.823636 185.000000 336.000000 241.000000 -0.085783 276.000000 0.127085 285.000000 0.079718 312.000000 -0.008008 24.000000 -0.547965 106.000000 0.495485 150.000000 0.005205
490956.000000 0.812272 183.000000 328.000000 250.000000 -0.066958 274.000000 0.128622 291.000000 -0.048009 296.000000 -0.069420 18.000000 -0.636519 110.000000 0.484204 151.000000 0.007463
491961.000000 0.754907 182.000000 325.000000 219.000000 -0.069140 272.000000 0.136065 292.000000 -0.044670 299.000000 -0.050829 19.000000 -0.558179 101.000000 0.523584 144.000000 0.028752
492969.000000 0.697588 174.000000 339.000000 221.000000 -0.115506 280.000000 0.147116 297.000000 -0.007131 315.000000 -0.003213 20.000000 -0.679479 102.000000 0.519929 152.000000 0.005973
496006.000000 0.809639 179.000000 309.000000 217.000000 -0.085721 258.000000 0.115829 282.000000 -0.037917 286.000000 -0.049688 22.000000 -0.523968 112.000000 0.437629 169.000000 -0.046161
496493.000000 0.735939 178.000000 313.000000 230.000000 -0.095628 261.000000 0.103214 278.000000 -0.044953 285.000000 -0.012539 19.000000 -0.672004 107.000000 0.493248 171.000000 -0.061397
499899.000000 0.711946 172.000000 337.000000 214.000000 -0.116943 280.000000 0.121409 283.000000 0.110516 306.000000 -0.040756 8.000000 -0.166987 108.000000 0.491981 146.000000 0.015268
500414.000000 0.831977 178.000000 339.000000 225.000000 -0.117335 282.000000 0.123262 301.000000 -0.052083 315.000000 -0.010298 19.000000 -0.575174 112.000000 0.452233 166.000000 0.008540
501421.000000 0.779043 175.000000 323.000000 236.000000 -0.103981 268.000000 0.127510 295.000000 -0.028131 298.000000 -0.036423 17.000000 -0.680800 103.000000 0.501038 143.000000 0.010284
502407.000000 0.753558 171.000000 318.000000 226.000000 -0.099969 266.000000 0.096065 282.000000 -0.031520 295.000000 0.000158 18.000000 -0.769686 108.000000 0.507627 203.000000 -0.093855
503391.000000 0.776299 176.000000 305.000000 220.000000 -0.089371 255.000000 0.137480 266.000000 0.050740 284.000000 0.008998 20.000000 -0.594221 100.000000 0.494617 167.000000 -0.082428
511242.000000 0.927145 174.000000 324.000000 105.000000 0.469224 270.000000 0.118042 279.000000 0.038056 302.000000 -0.006642 23.000000 -0.434781 110.000000 0.504179 268.000000 0.113826
512239.000000 0.854733 178.000000 316.000000 225.000000 -0.106800 259.000000 0.113717 263.000000 0.092353 294.000000 -0.020283 17.000000 -0.554877 101.000000 0.433511 142.000000 0.011036
512745.000000 0.877195 190.000000 314.000000 215.000000 -0.035268 254.000000 0.142584 263.000000 0.108759 291.000000 0.005233 19.000000 0.104640 23.000000 0.366285 40.000000 -0.094593
513234.000000 0.790157 175.000000 328.000000 235.000000 -0.079280 269.000000 0.135329 288.000000 -0.064155 304.000000 0.012116 19.000000 -0.556115 110.000000 0.440374 159.000000 0.032321
516776.000000 0.801646 182.000000 311.000000 220.000000 -0.067835 257.000000 0.138043 275.000000 -0.034465 288.000000 -0.013573 26.000000 -0.462431 100.000000 0.481110 154.000000 -0.061881
518262.000000 0.798399 176.000000 333.000000 234.000000 -0.073916 280.000000 0.147919 295.000000 -0.005546 311.000000 -0.011692 18.000000 -0.693546 106.000000 0.483429 109.000000 0.462927
519767.000000 0.862463 490.000000 342.000000 242.000000 -0.055707 290.000000 0.141472 299.000000 0.036740 318.000000 -0.048837 21.000000 -0.656251 113.000000 0.222178 152.000000 -0.022744
521280.000000 0.792383 179.000000 333.000000 242.000000 -0.077898 277.000000 0.129812 285.000000 0.055079 307.000000 -0.045032 20.000000 -0.550048 108.000000 0.511106 159.000000 0.038508
522047.000000 2.311286 187.000000 305.000000 170.000000 0.050030 243.000000 0.115126 264.000000 -0.069905 278.000000 -0.040879 25.000000 -0.537645 109.000000 0.269810 170.000000 0.050030
552087.000000 1.004906 185.000000 628.000000 537.000000 0.016536 574.000000 0.162397 588.000000 0.023229 603.000000 -0.022835 20.000000 -0.454467 288.000000 0.775112 331.000000 -0.231535
556704.000000 2.672993 166.000000 343.000000 249.000000 -0.023493 291.000000 0.170442 309.000000 -0.031925 321.000000 0.000018 27.000000 -0.239074 172.000000 0.181587 196.000000 0.059045
560279.000000 2.686729 205.000000 358.000000 261.000000 -0.049535 306.000000 0.126343 325.000000 -0.058121 338.000000 -0.018167 20.000000 -0.121264 175.000000 0.147722 183.000000 0.107972
564891.000000 2.548217 187.000000 234.000000 142.000000 -0.113967 176.000000 0.239275 195.000000 0.065579 214.000000 0.075266 22.000000 -0.103854 20.000000 -0.036832 52.000000 -0.456158
607251.000000 0.927666 181.000000 309.000000 199.000000 -0.088575 257.000000 0.135472 276.000000 -0.077208 288.000000 -0.035642 15.000000 -0.601362 98.000000 0.475841 155.000000 -0.091959
633372.000000 0.871001 186.000000 592.000000 285.000000 -0.065138 356.000000 0.283867 406.000000 0.051048 572.000000 -0.009876 18.000000 -0.637192 111.000000 0.480363 167.000000 0.081145
