197.000000 0.821802 197.000000 290.000000 246.000000 -0.119768 269.000000 0.042441 271.000000 0.137190 278.000000 0.321171 17.000000 -0.230721 84.000000 0.316379 126.000000 -0.063713
6044.000000 0.824741 320.000000 297.000000 168.000000 -0.063122 207.000000 0.012225 209.000000 0.005720 283.000000 0.411628 18.000000 -0.278424 92.000000 0.333498 150.000000 -0.100348
11603.000000 0.887319 329.000000 331.000000 289.000000 -0.105171 310.000000 0.039766 315.000000 0.345017 319.000000 0.280377 18.000000 -0.281867 97.000000 0.342643 132.000000 -0.043888
13512.000000 0.937495 317.000000 331.000000 206.000000 -0.055331 235.000000 0.042819 237.000000 0.028525 320.000000 0.315701 19.000000 -0.232942 96.000000 0.294568 98.000000 0.279332
15402.000000 0.949010 301.000000 314.000000 186.000000 -0.046320 222.000000 0.031268 223.000000 0.026753 297.000000 0.181884 16.000000 -0.264140 90.000000 0.299440 129.000000 -0.027049
17565.000000 0.949894 293.000000 321.000000 180.000000 -0.036032 215.000000 0.038906 221.000000 0.028717 308.000000 0.061832 17.000000 -0.208257 94.000000 0.307259 129.000000 -0.045109
17886.000000 0.550044 321.000000 630.000000 322.000000 0.366406 409.000000 0.374792 475.000000 -0.013774 616.000000 0.161706 16.000000 -0.216070 91.000000 0.373850 114.000000 0.011060
18516.000000 0.710891 630.000000 305.000000 167.000000 -0.049073 212.000000 0.050988 261.000000 -0.123526 292.000000 0.189578 19.000000 -0.238861 91.000000 0.368163 141.000000 -0.052474
18821.000000 0.729017 305.000000 321.000000 187.000000 -0.085544 224.000000 0.006116 261.000000 -0.102615 308.000000 0.328231 18.000000 -0.198806 92.000000 0.371740 172.000000 -0.082613
33403.000000 0.712585 333.000000 322.000000 161.000000 -0.018414 226.000000 0.043544 229.000000 0.033794 309.000000 0.298701 19.000000 -0.207603 98.000000 0.351896 162.000000 -0.022646
35925.000000 0.757174 322.000000 316.000000 193.000000 -0.053778 224.000000 0.033620 268.000000 -0.122288 304.000000 0.335675 18.000000 -0.175634 86.000000 0.287298 88.000000 0.266451
36560.000000 0.770191 319.000000 307.000000 258.000000 -0.146630 286.000000 -0.015692 288.000000 0.118792 295.000000 0.236912 19.000000 -0.222083 86.000000 0.392588 89.000000 0.363638
37497.000000 0.777055 328.000000 327.000000 201.000000 -0.034260 236.000000 0.051996 238.000000 0.029613 315.000000 0.189563 21.000000 -0.140424 98.000000 0.276911 137.000000 -0.028668
38734.000000 0.934185 300.000000 300.000000 164.000000 -0.063621 217.000000 -0.013934 265.000000 -0.141740 289.000000 0.396179 18.000000 -0.222980 90.000000 0.314626 91.000000 0.305817
40930.000000 0.859144 314.000000 312.000000 224.000000 0.000503 291.000000 0.007272 292.000000 0.037335 299.000000 0.418464 17.000000 -0.207751 91.000000 0.276325 132.000000 -0.044871
41242.000000 0.966332 312.000000 308.000000 256.000000 -0.183669 287.000000 0.082206 285.000000 -0.037323 292.000000 0.310765 17.000000 -0.174108 84.000000 0.354920 159.000000 -0.110780
46631.000000 0.789699 331.000000 313.000000 270.000000 -0.049796 292.000000 0.049813 293.000000 0.080127 300.000000 0.366742 18.000000 -0.290208 96.000000 0.351094 146.000000 -0.063118
47861.000000 0.784703 300.000000 325.000000 187.000000 -0.067879 234.000000 0.016506 236.000000 -0.017882 313.000000 0.379845 19.000000 -0.221804 93.000000 0.353963 95.000000 0.319763
51940.000000 0.760204 309.000000 296.000000 238.000000 -0.126989 275.000000 0.038404 274.000000 0.003685 281.000000 0.436554 17.000000 -0.310927 91.000000 0.345152 131.000000 -0.063153
54430.000000 1.013354 327.000000 328.000000 284.000000 -0.101303 307.000000 0.049542 309.000000 0.149322 316.000000 0.413366 19.000000 -0.201692 97.000000 0.363155 144.000000 -0.073816
55391.000000 0.916099 312.000000 311.000000 171.000000 -0.060550 222.000000 0.010455 267.000000 -0.137665 294.000000 0.269169 14.000000 -0.239167 91.000000 0.351197 92.000000 0.341228
56316.000000 0.718809 303.000000 287.000000 165.000000 -0.053042 198.000000 0.056301 248.000000 -0.109983 274.000000 0.448011 18.000000 -0.311098 90.000000 0.335344 165.000000 -0.053042
57550.000000 1.009323 314.000000 316.000000 188.000000 -0.070255 225.000000 0.005859 274.000000 -0.101255 305.000000 0.429214 18.000000 -0.191572 93.000000 0.302378 139.000000 -0.054455
61874.000000 0.679360 308.000000 314.000000 165.000000 -0.021696 224.000000 0.040391 266.000000 -0.095973 302.000000 0.280736 18.000000 -0.280624 96.000000 0.381793 125.000000 0.015520
63073.000000 0.964012 294.000000 314.000000 269.000000 -0.101110 293.000000 0.090566 294.000000 0.135566 301.000000 0.380033 17.000000 -0.277728 96.000000 0.355284 134.000000 -0.055561
70880.000000 0.880707 303.000000 299.000000 253.000000 -0.136426 278.000000 -0.000796 286.000000 0.414203 287.000000 0.364172 18.000000 -0.235470 90.000000 0.389465 120.000000 -0.067477
74180.000000 0.737257 317.000000 307.000000 177.000000 0.004516 212.000000 0.061821 215.000000 0.042196 296.000000 0.410482 18.000000 -0.348069 97.000000 0.314599 124.000000 0.029020
75382.000000 0.913414 301.000000 287.000000 227.000000 -0.160015 266.000000 -0.017944 268.000000 0.091053 275.000000 0.401210 20.000000 -0.165724 84.000000 0.356111 130.000000 -0.175126
75957.000000 0.966286 288.000000 313.000000 209.000000 -0.040656 228.000000 0.033291 260.000000 -0.112413 300.000000 0.494519 19.000000 -0.187584 96.000000 0.320550 97.000000 0.315127
76270.000000 1.029893 313.000000 313.000000 209.000000 -0.002724 227.000000 0.035706 264.000000 -0.097979 299.000000 0.407535 20.000000 -0.238538 90.000000 0.276130 93.000000 0.270284
80197.000000 0.908134 303.000000 316.000000 202.000000 -0.000710 225.000000 0.050530 270.000000 -0.158732 302.000000 0.350971 18.000000 -0.214230 88.000000 0.391572 147.000000 0.003243
82060.000000 0.749619 304.000000 302.000000 259.000000 -0.122115 281.000000 -0.000609 286.000000 0.249046 290.000000 0.323702 17.000000 -0.332201 90.000000 0.404793 143.000000 -0.098197
84561.000000 0.599639 304.000000 325.000000 202.000000 -0.081383 229.000000 0.027241 247.000000 -0.046066 312.000000 0.145359 18.000000 -0.312367 91.000000 0.431130 127.000000 -0.030517
87091.000000 0.599626 323.000000 321.000000 133.000000 0.014767 220.000000 -0.007071 233.000000 -0.120753 308.000000 0.088666 21.000000 -0.080719 90.000000 0.657477 133.000000 0.014767
93270.000000 0.717497 293.000000 318.000000 180.000000 0.030844 227.000000 0.077646 247.000000 -0.012619 300.000000 0.148009 16.000000 -0.356312 96.000000 0.361006 161.000000 0.044482
97883.000000 0.765782 320.000000 318.000000 200.000000 -0.069357 228.000000 0.033621 273.000000 -0.104167 305.000000 0.247870 18.000000 -0.288451 93.000000 0.362113 140.000000 -0.047148
98201.000000 0.709596 318.000000 319.000000 178.000000 -0.091741 227.000000 0.004090 256.000000 -0.122837 307.000000 0.319471 19.000000 -0.250545 91.000000 0.385459 143.000000 -0.087555
99136.000000 0.711704 308.000000 294.000000 164.000000 -0.046188 205.000000 0.002087 239.000000 -0.141426 283.000000 0.319077 18.000000 -0.276339 86.000000 0.374120 134.000000 -0.065515
100684.000000 0.764891 321.000000 303.000000 244.000000 -0.050597 282.000000 0.079530 284.000000 0.198089 291.000000 0.377650 17.000000 -0.274688 80.000000 0.347493 133.000000 -0.112176
102222.000000 0.918420 322.000000 320.000000 273.000000 -0.117242 299.000000 0.023215 298.000000 -0.022161 305.000000 0.339830 18.000000 -0.231644 96.000000 0.343837 148.000000 -0.066614
102864.000000 0.555396 322.000000 298.000000 238.000000 -0.131787 277.000000 0.054422 278.000000 0.098607 285.000000 0.387525 20.000000 -0.177033 79.000000 0.319533 130.000000 -0.094322
105317.000000 1.015093 299.000000 302.000000 261.000000 -0.115014 281.000000 0.000096 280.000000 -0.045828 287.000000 0.385582 18.000000 -0.237492 93.000000 0.359691 173.000000 -0.057710
107172.000000 0.835805 317.000000 310.000000 265.000000 -0.102901 289.000000 0.045927 291.000000 0.130957 298.000000 0.395957 18.000000 -0.298129 84.000000 0.420787 166.000000 -0.076600
107803.000000 0.823884 321.000000 306.000000 197.000000 -0.069708 218.000000 0.021877 249.000000 -0.099720 295.000000 0.265546 17.000000 -0.309111 90.000000 0.380375 143.000000 -0.070707
110267.000000 0.590718 598.000000 293.000000 205.000000 -0.043948 272.000000 -0.005937 278.000000 0.284127 281.000000 0.173782 17.000000 -0.313405 87.000000 0.452396 131.000000 -0.080030
111207.000000 0.750441 323.000000 313.000000 170.000000 -0.037805 227.000000 0.045754 273.000000 -0.102946 301.000000 0.224811 18.000000 -0.301597 91.000000 0.417337 149.000000 -0.039483
112436.000000 0.832370 306.000000 311.000000 255.000000 -0.133432 290.000000 0.069467 284.000000 -0.088950 291.000000 0.109953 23.000000 -0.141457 91.000000 0.414294 145.000000 -0.012337
112747.000000 0.740248 311.000000 316.000000 252.000000 -0.134016 295.000000 0.076331 291.000000 -0.040832 298.000000 0.274059 22.000000 -0.225976 91.000000 0.350091 144.000000 -0.075267
114021.000000 0.952184 317.000000 312.000000 197.000000 0.004108 224.000000 0.113794 226.000000 0.101099 299.000000 0.384423 19.000000 -0.155072 91.000000 0.344804 150.000000 -0.028228
114333.000000 0.732792 312.000000 295.000000 178.000000 -0.039470 210.000000 0.080953 263.000000 -0.076194 281.000000 0.380373 17.000000 -0.302817 85.000000 0.278307 178.000000 -0.039470
114932.000000 0.942301 304.000000 327.000000 234.000000 0.015723 306.000000 0.069672 302.000000 -0.027382 309.000000 0.261240 19.000000 -0.244924 97.000000 0.327637 163.000000 -0.020375
116204.000000 0.956786 314.000000 303.000000 178.000000 -0.071978 217.000000 0.029197 258.000000 -0.108356 291.000000 0.367742 19.000000 -0.197932 91.000000 0.329703 166.000000 -0.096004
116816.000000 0.726676 309.000000 291.000000 237.000000 -0.175295 270.000000 0.036571 276.000000 0.366602 279.000000 0.248938 20.000000 -0.224296 86.000000 0.337149 157.000000 -0.096533
118671.000000 0.861912 308.000000 298.000000 164.000000 -0.065376 211.000000 -0.048729 212.000000 -0.060657 286.000000 0.169375 18.000000 -0.239182 86.000000 0.325050 164.000000 -0.065376
120531.000000 0.782339 312.000000 303.000000 165.000000 -0.026202 217.000000 0.009970 219.000000 0.004030 285.000000 0.085608 19.000000 -0.212037 91.000000 0.380624 165.000000 -0.026202
122066.000000 0.591797 319.000000 303.000000 192.000000 -0.070217 223.000000 0.048952 224.000000 0.047808 290.000000 0.251808 19.000000 -0.302261 93.000000 0.354609 95.000000 0.334233
122369.000000 0.769065 303.000000 310.000000 267.000000 -0.107367 289.000000 0.065377 289.000000 0.065377 296.000000 0.325816 20.000000 -0.186842 90.000000 0.360244 143.000000 -0.052989
122679.000000 0.812837 310.000000 308.000000 170.000000 -0.030332 219.000000 0.008118 257.000000 -0.139420 297.000000 0.222087 20.000000 -0.183137 91.000000 0.379057 138.000000 -0.048090
124524.000000 0.981802 305.000000 311.000000 189.000000 -0.093057 222.000000 0.014624 265.000000 -0.138539 300.000000 0.301457 18.000000 -0.268385 95.000000 0.350051 175.000000 -0.076821
125139.000000 0.729368 304.000000 290.000000 172.000000 -0.088008 201.000000 0.041567 231.000000 -0.057759 277.000000 0.431758 17.000000 -0.321602 86.000000 0.288370 139.000000 -0.138698
126047.000000 0.891635 328.000000 323.000000 182.000000 -0.062119 230.000000 0.041737 251.000000 -0.061441 310.000000 0.348749 20.000000 -0.310746 97.000000 0.370648 147.000000 -0.032963
127594.000000 0.946581 304.000000 300.000000 181.000000 -0.067839 207.000000 0.024904 258.000000 -0.148777 288.000000 0.295219 17.000000 -0.290488 90.000000 0.352946 166.000000 -0.066569
128847.000000 0.824517 309.000000 321.000000 186.000000 -0.076180 225.000000 0.031453 228.000000 0.015936 308.000000 0.314451 19.000000 -0.204195 93.000000 0.361857 143.000000 -0.038026
129773.000000 0.917303 299.000000 297.000000 162.000000 -0.035300 205.000000 0.038853 227.000000 -0.079829 285.000000 0.254201 17.000000 -0.244752 85.000000 0.351265 130.000000 -0.064407
130070.000000 0.812510 297.000000 326.000000 196.000000 -0.085955 233.000000 -0.009922 277.000000 -0.167760 314.000000 0.253947 18.000000 -0.257521 94.000000 0.358917 138.000000 -0.086723
131962.000000 0.955277 309.000000 313.000000 269.000000 -0.093701 292.000000 0.046097 292.000000 0.046097 299.000000 0.310752 22.000000 -0.156055 87.000000 0.363083 129.000000 -0.041030
133231.000000 0.817268 310.000000 309.000000 192.000000 -0.026727 222.000000 0.034465 223.000000 0.028604 297.000000 0.345501 17.000000 -0.362750 96.000000 0.319335 169.000000 -0.013685
133846.000000 0.873713 306.000000 308.000000 179.000000 -0.070031 219.000000 0.026208 253.000000 -0.121584 295.000000 0.364922 17.000000 -0.262496 88.000000 0.367095 139.000000 -0.076284
134456.000000 0.736644 302.000000 318.000000 177.000000 -0.066692 228.000000 0.019467 276.000000 -0.087132 306.000000 0.248761 19.000000 -0.298687 95.000000 0.388506 154.000000 -0.058573
137281.000000 0.763061 332.000000 309.000000 187.000000 -0.059861 217.000000 0.033715 269.000000 -0.115984 296.000000 0.264296 18.000000 -0.288681 92.000000 0.417192 129.000000 -0.040066
139130.000000 0.941176 318.000000 324.000000 284.000000 -0.109389 303.000000 0.037431 303.000000 0.037431 310.000000 0.372839 20.000000 -0.227600 92.000000 0.355318 94.000000 0.340145
139454.000000 0.914643 324.000000 302.000000 164.000000 -0.044748 206.000000 0.016882 207.000000 0.011600 285.000000 0.216351 18.000000 -0.277787 91.000000 0.380987 141.000000 -0.071661
140366.000000 0.805485 299.000000 296.000000 169.000000 -0.037131 211.000000 0.014404 254.000000 -0.099154 284.000000 0.324298 18.000000 -0.238873 91.000000 0.401958 142.000000 -0.074577
140662.000000 0.841838 296.000000 305.000000 246.000000 -0.094061 284.000000 0.023164 285.000000 0.067788 292.000000 0.280766 18.000000 -0.223584 83.000000 0.385713 141.000000 -0.084292
141603.000000 0.771759 312.000000 301.000000 166.000000 -0.019060 211.000000 0.033684 214.000000 0.011365 287.000000 0.444668 22.000000 -0.261719 96.000000 0.353814 166.000000 -0.019060
141904.000000 0.957095 301.000000 307.000000 171.000000 -0.054076 221.000000 0.008104 252.000000 -0.133132 295.000000 0.382653 18.000000 -0.258767 91.000000 0.324152 143.000000 -0.049876
142514.000000 0.900266 303.000000 303.000000 164.000000 -0.081113 218.000000 -0.005766 260.000000 -0.090516 288.000000 0.305032 20.000000 -0.152302 86.000000 0.392776 164.000000 -0.081113
143769.000000 1.020566 322.000000 311.000000 263.000000 -0.129908 290.000000 0.042665 292.000000 0.123371 299.000000 0.296082 18.000000 -0.261661 92.000000 0.362550 130.000000 -0.069873
144080.000000 0.905175 311.000000 317.000000 197.000000 -0.123359 218.000000 -0.027949 229.000000 -0.074264 303.000000 0.419847 19.000000 -0.268619 93.000000 0.382742 131.000000 -0.052983
145006.000000 1.040420 303.000000 314.000000 181.000000 -0.041787 218.000000 0.016317 259.000000 -0.111521 301.000000 0.382665 14.000000 -0.298436 90.000000 0.344373 137.000000 -0.048228
146891.000000 0.925843 297.000000 300.000000 184.000000 -0.055674 222.000000 0.029906 223.000000 0.019890 288.000000 0.377570 18.000000 -0.233733 91.000000 0.334951 168.000000 -0.016630
148775.000000 0.652117 311.000000 301.000000 228.000000 -0.019909 280.000000 0.015045 279.000000 -0.010645 286.000000 0.404402 19.000000 -0.219434 91.000000 0.326258 148.000000 -0.076096
149369.000000 1.280378 293.000000 320.000000 180.000000 -0.088011 229.000000 0.004532 263.000000 -0.102082 308.000000 0.660377 20.000000 -0.166485 96.000000 0.231260 140.000000 -0.078872
150345.000000 1.012067 334.000000 310.000000 173.000000 -0.086725 219.000000 0.037008 222.000000 0.006522 292.000000 0.144735 22.000000 -0.172638 93.000000 0.367568 128.000000 -0.074767
153481.000000 1.080175 312.000000 303.000000 247.000000 -0.128683 282.000000 0.033592 282.000000 0.033592 289.000000 0.524313 19.000000 -0.232116 90.000000 0.398779 167.000000 -0.067160
154746.000000 1.164187 323.000000 315.000000 275.000000 -0.116566 294.000000 0.021926 296.000000 0.097067 303.000000 0.402271 16.000000 -0.226142 85.000000 0.363574 86.000000 0.333793
156931.000000 1.149215 314.000000 305.000000 245.000000 -0.148293 284.000000 0.061769 287.000000 0.221848 294.000000 0.406614 18.000000 -0.134578 90.000000 0.354714 164.000000 -0.118732
158483.000000 0.974830 331.000000 323.000000 199.000000 0.002976 225.000000 0.075012 240.000000 0.010108 308.000000 0.470470 18.000000 -0.284842 92.000000 0.292505 94.000000 0.279887
159119.000000 0.928684 313.000000 326.000000 190.000000 -0.079262 236.000000 0.004079 275.000000 -0.133415 314.000000 0.318874 19.000000 -0.267977 93.000000 0.322931 95.000000 0.299404
160063.000000 1.097366 304.000000 306.000000 177.000000 -0.073069 211.000000 0.035707 214.000000 0.015785 293.000000 0.482963 17.000000 -0.230783 80.000000 0.277603 128.000000 -0.063743
163495.000000 0.954704 308.000000 315.000000 199.000000 -0.060535 224.000000 0.028542 227.000000 -0.011881 299.000000 0.248557 18.000000 -0.269152 91.000000 0.351255 145.000000 -0.054910
166298.000000 1.135767 305.000000 303.000000 173.000000 -0.078712 217.000000 0.021273 260.000000 -0.105500 292.000000 0.418998 17.000000 -0.266269 90.000000 0.322854 173.000000 -0.078712
172528.000000 1.206548 302.000000 296.000000 187.000000 -0.068494 210.000000 0.015032 211.000000 0.014703 281.000000 0.330455 18.000000 -0.216744 91.000000 0.337818 93.000000 0.318211
173117.000000 1.031928 293.000000 313.000000 174.000000 -0.001819 222.000000 0.026674 265.000000 -0.135755 301.000000 0.487741 20.000000 -0.257336 89.000000 0.367826 146.000000 -0.011471
175287.000000 0.937476 299.000000 626.000000 351.000000 -0.155690 404.000000 0.317554 406.000000 0.297476 608.000000 0.311103 20.000000 -0.226177 306.000000 1.160515 351.000000 -0.155690
176235.000000 1.104670 322.000000 308.000000 168.000000 -0.095266 218.000000 0.017148 224.000000 -0.003777 293.000000 0.419044 18.000000 -0.296647 92.000000 0.356320 168.000000 -0.095266
176543.000000 1.192163 308.000000 315.000000 194.000000 -0.077552 228.000000 0.035739 266.000000 -0.114372 301.000000 0.483589 20.000000 -0.228575 96.000000 0.344604 141.000000 -0.084387
177440.000000 1.135238 285.000000 319.000000 189.000000 -0.067849 230.000000 0.044859 268.000000 -0.081570 299.000000 0.050749 21.000000 -0.171940 94.000000 0.323922 151.000000 -0.074402
181140.000000 0.967335 313.000000 297.000000 185.000000 -0.095923 210.000000 0.003309 254.000000 -0.151424 286.000000 0.429314 18.000000 -0.265535 89.000000 0.355623 136.000000 -0.085956
182045.000000 1.187603 313.000000 324.000000 283.000000 -0.101819 303.000000 0.033952 304.000000 0.098905 311.000000 0.309078 18.000000 -0.277379 92.000000 0.303595 94.000000 0.294065
182369.000000 1.044299 324.000000 326.000000 188.000000 -0.077775 229.000000 0.018826 277.000000 -0.107931 314.000000 0.335800 19.000000 -0.305089 97.000000 0.356286 149.000000 -0.052026
183924.000000 0.933964 311.000000 317.000000 225.000000 -0.018228 296.000000 0.030486 297.000000 0.065753 304.000000 0.272883 19.000000 -0.151224 91.000000 0.396711 137.000000 -0.008558
186095.000000 0.856238 293.000000 244.000000 162.000000 0.056580 223.000000 0.072148 219.000000 0.041302 226.000000 0.018104 17.000000 -0.180609 93.000000 0.362356 125.000000 0.016239
188208.000000 0.946192 289.000000 295.000000 170.000000 -0.057871 205.000000 0.034135 238.000000 -0.131632 278.000000 0.284432 16.000000 -0.249482 86.000000 0.307589 127.000000 -0.077462
199383.000000 0.801047 313.000000 309.000000 265.000000 -0.083542 288.000000 0.049173 290.000000 0.125631 297.000000 0.470740 19.000000 -0.209126 98.000000 0.319201 146.000000 -0.040467
201795.000000 0.706254 310.000000 309.000000 252.000000 -0.020126 288.000000 0.147224 290.000000 0.258196 297.000000 0.386254 18.000000 -0.263227 96.000000 0.318949 165.000000 -0.091586
206602.000000 0.993810 304.000000 306.000000 176.000000 -0.042541 216.000000 0.005267 253.000000 -0.104889 291.000000 0.295254 16.000000 -0.235076 87.000000 0.334406 124.000000 -0.075926
207513.000000 0.750187 298.000000 289.000000 166.000000 -0.015203 196.000000 0.037633 241.000000 -0.180250 277.000000 0.294640 18.000000 -0.272242 87.000000 0.387227 156.000000 -0.045344
207802.000000 0.684780 289.000000 310.000000 260.000000 -0.067742 289.000000 0.082884 291.000000 0.172696 298.000000 0.247477 11.000000 -0.246223 97.000000 0.365263 146.000000 -0.025988
212347.000000 0.706944 314.000000 317.000000 173.000000 0.002320 227.000000 0.036255 229.000000 0.011945 306.000000 0.219278 19.000000 -0.284359 96.000000 0.376550 97.000000 0.371894
213575.000000 0.960846 302.000000 291.000000 166.000000 -0.064343 206.000000 0.007491 207.000000 -0.007369 279.000000 0.394091 19.000000 -0.160675 92.000000 0.330891 166.000000 -0.064343
214464.000000 0.980685 312.000000 315.000000 237.000000 -0.069872 294.000000 0.037246 293.000000 -0.012676 300.000000 0.431431 18.000000 -0.286996 97.000000 0.294717 130.000000 -0.068917
215094.000000 0.601490 315.000000 294.000000 167.000000 0.018995 200.000000 0.084828 253.000000 -0.099105 280.000000 0.499907 18.000000 -0.336253 91.000000 0.318151 167.000000 0.018995
215989.000000 0.898133 300.000000 591.000000 287.000000 0.138794 384.000000 0.388180 459.000000 -0.058871 579.000000 0.408824 11.000000 -0.262525 298.000000 0.414062 381.000000 0.370312
216890.000000 1.013028 310.000000 310.000000 170.000000 -0.097396 221.000000 0.031082 268.000000 -0.109560 298.000000 0.472207 19.000000 -0.226154 95.000000 0.286607 149.000000 -0.102411
218095.000000 0.661690 292.000000 578.000000 311.000000 -0.083703 373.000000 0.451331 437.000000 -0.037064 564.000000 0.374812 17.000000 -0.291477 289.000000 0.421203 325.000000 -0.024707
219589.000000 0.679910 296.000000 301.000000 166.000000 -0.042448 212.000000 0.022990 215.000000 0.000576 289.000000 0.324136 16.000000 -0.359633 92.000000 0.386758 138.000000 -0.035190
221056.000000 0.925454 307.000000 308.000000 198.000000 -0.061926 216.000000 0.005956 269.000000 -0.145706 296.000000 0.284987 18.000000 -0.267368 88.000000 0.353997 90.000000 0.350940
222260.000000 0.736225 303.000000 294.000000 168.000000 -0.026946 211.000000 0.022475 256.000000 -0.139656 281.000000 0.353433 19.000000 -0.269261 91.000000 0.379012 169.000000 -0.027260
223466.000000 0.608372 318.000000 308.000000 270.000000 -0.094484 287.000000 0.035940 292.000000 0.346865 296.000000 0.293590 19.000000 -0.275105 97.000000 0.348468 150.000000 -0.063506
224660.000000 0.791941 299.000000 288.000000 164.000000 -0.034201 205.000000 0.018369 239.000000 -0.149892 273.000000 0.269056 18.000000 -0.257072 86.000000 0.394825 166.000000 -0.052884
224948.000000 0.744635 288.000000 307.000000 185.000000 -0.073699 211.000000 0.026331 215.000000 0.011033 294.000000 0.220001 17.000000 -0.269738 86.000000 0.410250 131.000000 -0.057587
225255.000000 0.662073 307.000000 319.000000 168.000000 -0.039876 227.000000 0.011771 228.000000 0.011740 306.000000 0.249798 19.000000 -0.285058 97.000000 0.394109 148.000000 -0.063371
225574.000000 0.685223 319.000000 316.000000 174.000000 -0.041099 222.000000 0.040877 224.000000 0.026144 304.000000 0.254874 19.000000 -0.268788 90.000000 0.415633 92.000000 0.395695
225890.000000 0.660532 316.000000 299.000000 249.000000 -0.184278 278.000000 -0.015862 285.000000 0.300863 287.000000 0.204750 19.000000 -0.264328 86.000000 0.389763 88.000000 0.366034
227106.000000 0.755579 303.000000 315.000000 271.000000 -0.138398 294.000000 0.027322 294.000000 0.027322 301.000000 0.300361 15.000000 -0.290864 83.000000 0.417708 130.000000 -0.020004
227421.000000 0.651175 315.000000 320.000000 282.000000 -0.043166 299.000000 0.073887 302.000000 0.259686 309.000000 0.336066 20.000000 -0.208341 93.000000 0.346034 162.000000 -0.072900
228988.000000 0.572443 303.000000 298.000000 163.000000 -0.054410 215.000000 -0.018139 259.000000 -0.098621 288.000000 0.201052 12.000000 -0.450676 85.000000 0.365390 155.000000 -0.077341
230874.000000 0.920259 313.000000 308.000000 192.000000 -0.040939 221.000000 0.057086 263.000000 -0.084656 295.000000 0.361270 18.000000 -0.254742 89.000000 0.337483 125.000000 -0.072854
231182.000000 0.762899 308.000000 617.000000 290.000000 -0.167428 387.000000 0.486540 389.000000 0.469863 600.000000 0.238287 18.000000 -0.301804 92.000000 0.408287 166.000000 -0.039229
233962.000000 0.694279 323.000000 329.000000 160.000000 -0.042094 230.000000 0.028812 232.000000 0.008860 308.000000 0.024500 19.000000 -0.292819 97.000000 0.453393 160.000000 -0.042094
237402.000000 0.661209 313.000000 300.000000 166.000000 -0.041224 210.000000 0.016801 212.000000 0.005297 287.000000 0.278046 18.000000 -0.278256 90.000000 0.399660 136.000000 -0.055439
238001.000000 0.602834 299.000000 650.000000 316.000000 -0.087728 415.000000 0.440518 417.000000 0.424265 638.000000 0.266506 7.000000 -0.130505 323.000000 0.448479 416.000000 0.429938
238975.000000 0.744705 324.000000 311.000000 178.000000 -0.055032 216.000000 0.021644 218.000000 0.001645 298.000000 0.304605 20.000000 -0.236436 89.000000 0.394865 167.000000 -0.037667
239895.000000 0.764039 299.000000 302.000000 164.000000 -0.033074 207.000000 0.040030 209.000000 0.014904 288.000000 0.300922 19.000000 -0.211900 89.000000 0.358492 126.000000 -0.044437
240197.000000 0.743007 302.000000 332.000000 194.000000 -0.058431 230.000000 0.024985 234.000000 0.017242 318.000000 0.293888 20.000000 -0.193044 92.000000 0.363071 145.000000 -0.020422
240851.000000 0.643325 322.000000 316.000000 193.000000 -0.058511 230.000000 0.026989 268.000000 -0.135849 303.000000 0.268428 21.000000 -0.193491 92.000000 0.374224 144.000000 -0.064120
241167.000000 0.610230 316.000000 313.000000 184.000000 -0.060063 220.000000 0.032289 253.000000 -0.109436 300.000000 0.258121 16.000000 -0.196854 88.000000 0.403241 141.000000 -0.056851
243337.000000 1.070422 321.000000 315.000000 272.000000 -0.122288 294.000000 0.006117 296.000000 0.119706 303.000000 0.303796 19.000000 -0.132978 90.000000 0.315693 168.000000 -0.082929
246752.000000 0.777121 306.000000 322.000000 274.000000 -0.108151 301.000000 0.038214 303.000000 0.119045 310.000000 0.327321 17.000000 -0.326828 91.000000 0.370959 163.000000 -0.029860
248330.000000 0.818074 308.000000 294.000000 202.000000 -0.083447 273.000000 0.115394 279.000000 0.385723 282.000000 0.318419 17.000000 -0.312222 86.000000 0.346178 164.000000 -0.096644
250209.000000 0.620612 314.000000 301.000000 158.000000 -0.030485 210.000000 0.025501 214.000000 -0.006162 289.000000 0.288290 19.000000 -0.208732 90.000000 0.404354 158.000000 -0.030485
250809.000000 0.625518 299.000000 303.000000 183.000000 -0.118874 211.000000 0.015500 213.000000 -0.004045 289.000000 0.478276 17.000000 -0.134716 89.000000 0.425283 127.000000 -0.013889
251752.000000 0.683905 314.000000 308.000000 194.000000 -0.068717 221.000000 0.031787 247.000000 -0.104560 293.000000 0.268715 18.000000 -0.323211 95.000000 0.401743 166.000000 -0.043685
252674.000000 0.725695 303.000000 301.000000 186.000000 -0.082381 213.000000 0.001427 216.000000 -0.020314 290.000000 0.403100 17.000000 -0.319277 92.000000 0.393981 133.000000 -0.021114
252975.000000 0.610608 301.000000 296.000000 247.000000 -0.106347 275.000000 0.042601 277.000000 0.191786 284.000000 0.278321 18.000000 -0.251478 81.000000 0.392379 130.000000 -0.068952
257939.000000 0.993717 321.000000 1243.000000 934.000000 0.040642 1037.000000 0.439512 1063.000000 0.015973 1230.000000 0.287732 18.000000 -0.238462 320.000000 0.874763 410.000000 0.348369
260411.000000 0.868938 318.000000 301.000000 179.000000 -0.088184 217.000000 -0.007995 267.000000 -0.106663 290.000000 0.360329 19.000000 -0.271942 93.000000 0.364620 95.000000 0.334823
261020.000000 0.722997 308.000000 304.000000 166.000000 -0.020796 220.000000 0.032259 266.000000 -0.089639 291.000000 0.384747 17.000000 -0.304590 90.000000 0.392945 139.000000 -0.038697
261324.000000 0.748024 304.000000 302.000000 165.000000 -0.086412 211.000000 -0.044262 243.000000 -0.163353 291.000000 0.272224 16.000000 -0.295455 86.000000 0.400377 165.000000 -0.086412
264163.000000 0.731785 322.000000 655.000000 308.000000 0.336771 421.000000 0.468011 477.000000 -0.031201 643.000000 0.385424 18.000000 -0.273090 98.000000 0.387784 137.000000 -0.092888
265130.000000 0.720767 312.000000 307.000000 166.000000 -0.048289 223.000000 0.020613 243.000000 -0.092555 296.000000 0.326581 20.000000 -0.210443 96.000000 0.377894 143.000000 -0.047287
269439.000000 0.738976 641.000000 311.000000 194.000000 -0.024454 223.000000 0.050723 260.000000 -0.092398 300.000000 0.261132 18.000000 -0.295160 91.000000 0.394874 151.000000 -0.040740
269750.000000 0.617480 311.000000 301.000000 167.000000 -0.088356 208.000000 -0.022618 209.000000 -0.038589 289.000000 0.256708 18.000000 -0.297581 87.000000 0.403407 148.000000 -0.086915
270353.000000 0.905582 302.000000 328.000000 200.000000 -0.084526 235.000000 0.035627 278.000000 -0.120611 315.000000 0.373105 17.000000 -0.258338 91.000000 0.337440 135.000000 -0.051566
279966.000000 0.704862 319.000000 302.000000 166.000000 -0.018758 219.000000 0.037385 247.000000 -0.121252 287.000000 0.250661 20.000000 -0.243304 93.000000 0.398420 150.000000 -0.050669
280574.000000 0.541224 306.000000 286.000000 236.000000 -0.069075 265.000000 0.082979 262.000000 0.019359 269.000000 0.315722 17.000000 -0.264655 86.000000 0.346628 150.000000 -0.142068
284915.000000 0.728304 300.000000 299.000000 246.000000 -0.092193 278.000000 0.012759 276.000000 -0.037930 283.000000 0.414420 17.000000 -0.175694 86.000000 0.371159 134.000000 -0.037412
287389.000000 0.731406 307.000000 292.000000 179.000000 -0.039527 210.000000 0.036255 258.000000 -0.088871 281.000000 0.278134 18.000000 -0.252230 90.000000 0.366941 147.000000 -0.055877
289838.000000 0.797678 306.000000 325.000000 190.000000 -0.079593 228.000000 0.041066 286.000000 -0.116113 314.000000 0.308527 19.000000 -0.227258 90.000000 0.375278 125.000000 -0.041117
291770.000000 0.729896 311.000000 312.000000 166.000000 -0.064514 217.000000 0.047275 254.000000 -0.106254 294.000000 0.170283 17.000000 -0.318664 91.000000 0.398573 144.000000 -0.023587
292082.000000 0.728117 312.000000 334.000000 194.000000 -0.080662 242.000000 0.034766 291.000000 -0.118289 322.000000 0.342448 19.000000 -0.279346 97.000000 0.383053 167.000000 -0.037338
295586.000000 0.751534 314.000000 306.000000 175.000000 -0.029825 219.000000 0.019702 221.000000 -0.001677 295.000000 0.354719 18.000000 -0.306368 92.000000 0.368914 129.000000 -0.031425
296193.000000 0.804691 301.000000 313.000000 270.000000 -0.121223 292.000000 0.089341 297.000000 0.288699 300.000000 0.188261 17.000000 -0.232161 80.000000 0.399529 82.000000 0.375485
296506.000000 0.516206 313.000000 325.000000 192.000000 -0.039981 235.000000 0.039281 277.000000 -0.105702 314.000000 0.238841 20.000000 -0.277697 97.000000 0.427697 161.000000 -0.015893
297154.000000 0.544580 323.000000 303.000000 163.000000 -0.004721 216.000000 0.029653 261.000000 -0.105329 287.000000 0.287098 18.000000 -0.273459 92.000000 0.410316 139.000000 -0.011946
298059.000000 0.618735 602.000000 300.000000 164.000000 -0.041783 213.000000 0.011068 214.000000 0.005002 284.000000 0.249153 19.000000 -0.207456 92.000000 0.355397 164.000000 -0.041783
298359.000000 0.800810 300.000000 298.000000 165.000000 -0.008320 212.000000 0.017666 244.000000 -0.116850 286.000000 0.390298 20.000000 -0.171856 86.000000 0.362236 165.000000 -0.008320
298975.000000 0.577444 318.000000 304.000000 254.000000 -0.087476 283.000000 0.110766 289.000000 0.421000 292.000000 0.413555 20.000000 -0.262886 93.000000 0.345469 153.000000 -0.152838
300196.000000 0.773698 301.000000 593.000000 290.000000 -0.098463 380.000000 0.394628 428.000000 -0.053102 580.000000 0.256803 16.000000 -0.272554 296.000000 0.442087 378.000000 0.374346
300789.000000 0.481866 593.000000 316.000000 188.000000 -0.080017 224.000000 0.013605 264.000000 -0.122131 303.000000 0.354031 19.000000 -0.268824 94.000000 0.397914 144.000000 -0.051427
302037.000000 0.516563 308.000000 298.000000 175.000000 -0.056629 214.000000 0.025218 249.000000 -0.094450 286.000000 0.382070 18.000000 -0.276651 88.000000 0.328053 147.000000 -0.044607
303557.000000 0.662244 312.000000 303.000000 163.000000 -0.025672 220.000000 0.011475 226.000000 -0.002146 294.000000 0.339934 18.000000 -0.318039 93.000000 0.357630 96.000000 0.327646
303860.000000 0.670671 303.000000 303.000000 181.000000 -0.064481 215.000000 0.034248 259.000000 -0.087461 292.000000 0.294121 17.000000 -0.272702 91.000000 0.353130 139.000000 -0.044920
304460.000000 0.614861 297.000000 294.000000 168.000000 0.011879 209.000000 0.042541 256.000000 -0.111724 283.000000 0.355953 19.000000 -0.237363 92.000000 0.328766 168.000000 0.011879
304754.000000 0.718022 294.000000 288.000000 166.000000 -0.052477 198.000000 0.020939 201.000000 -0.005707 271.000000 0.242257 17.000000 -0.292856 90.000000 0.347241 133.000000 -0.055547
305353.000000 0.479033 311.000000 318.000000 274.000000 -0.116397 297.000000 0.044059 298.000000 0.084059 305.000000 0.414404 19.000000 -0.193111 93.000000 0.408329 96.000000 0.386275
305983.000000 0.825608 312.000000 302.000000 165.000000 -0.045597 217.000000 -0.002443 261.000000 -0.135610 288.000000 0.400487 11.000000 -0.332103 86.000000 0.361271 167.000000 -0.063073
306285.000000 0.663247 302.000000 299.000000 162.000000 -0.004578 211.000000 0.013197 213.000000 -0.003824 286.000000 0.437447 17.000000 -0.290014 85.000000 0.359847 87.000000 0.349517
306584.000000 0.770692 299.000000 300.000000 166.000000 -0.055047 212.000000 0.035517 266.000000 -0.104666 289.000000 0.337844 20.000000 -0.165811 86.000000 0.354739 136.000000 -0.058903
306884.000000 0.713190 300.000000 292.000000 169.000000 -0.022568 200.000000 0.042821 201.000000 0.042100 279.000000 0.394403 18.000000 -0.276684 86.000000 0.347404 123.000000 -0.084039
307808.000000 0.647224 311.000000 313.000000 197.000000 -0.095986 226.000000 0.024907 268.000000 -0.091050 302.000000 0.372444 17.000000 -0.288326 98.000000 0.345703 162.000000 -0.076598
308427.000000 0.805236 306.000000 308.000000 171.000000 -0.094575 216.000000 -0.010312 268.000000 -0.171848 295.000000 0.359690 19.000000 -0.261878 92.000000 0.347385 171.000000 -0.094575
311201.000000 0.973999 296.000000 295.000000 237.000000 -0.226962 274.000000 0.007222 275.000000 0.081595 282.000000 0.341597 18.000000 -0.182427 91.000000 0.336474 92.000000 0.312069
314247.000000 0.619826 309.000000 304.000000 171.000000 -0.087697 214.000000 0.107617 219.000000 0.091316 292.000000 0.491018 19.000000 -0.306755 94.000000 0.283088 171.000000 -0.087697
323287.000000 0.818249 608.000000 296.000000 175.000000 -0.053575 214.000000 0.012507 243.000000 -0.125517 284.000000 0.574532 19.000000 -0.206376 94.000000 0.307303 156.000000 -0.066508
325955.000000 0.533805 299.000000 571.000000 272.000000 -0.007317 371.000000 0.448534 442.000000 -0.035004 561.000000 0.630764 18.000000 -0.257780 91.000000 0.358097 159.000000 -0.035751
327157.000000 1.062037 317.000000 313.000000 193.000000 -0.054215 227.000000 0.019546 268.000000 -0.114231 299.000000 0.425755 20.000000 -0.274938 96.000000 0.340755 142.000000 -0.079717
328657.000000 1.024981 300.000000 307.000000 169.000000 -0.061488 222.000000 0.032197 240.000000 -0.067899 294.000000 0.547763 17.000000 -0.226273 90.000000 0.332741 132.000000 -0.050250
330800.000000 0.948038 294.000000 304.000000 198.000000 -0.056006 216.000000 0.028727 217.000000 0.023695 290.000000 0.346220 19.000000 -0.159045 85.000000 0.395689 165.000000 -0.050347
332618.000000 0.662457 290.000000 298.000000 171.000000 -0.029089 212.000000 0.051051 260.000000 -0.099781 286.000000 0.341897 16.000000 -0.387137 85.000000 0.341672 88.000000 0.316972
332916.000000 0.673843 298.000000 293.000000 171.000000 -0.055796 206.000000 0.009203 219.000000 -0.043445 283.000000 0.260157 17.000000 -0.332990 88.000000 0.349329 129.000000 -0.045187
333527.000000 0.858901 318.000000 313.000000 267.000000 -0.130862 292.000000 0.041536 294.000000 0.121631 301.000000 0.396457 20.000000 -0.254941 94.000000 0.327377 150.000000 -0.059215
333840.000000 0.792270 313.000000 308.000000 224.000000 -0.013040 287.000000 0.062979 289.000000 0.143167 296.000000 0.348653 19.000000 -0.291540 94.000000 0.346002 137.000000 -0.063651
334148.000000 0.744170 308.000000 309.000000 174.000000 -0.044734 218.000000 0.015880 235.000000 -0.062207 297.000000 0.385317 18.000000 -0.315549 92.000000 0.358636 130.000000 -0.057085
334457.000000 0.762309 309.000000 309.000000 188.000000 -0.048262 220.000000 0.031614 263.000000 -0.069043 298.000000 0.437545 18.000000 -0.317094 90.000000 0.329711 92.000000 0.314414
335076.000000 0.752715 310.000000 300.000000 169.000000 -0.063823 202.000000 0.038390 206.000000 0.035192 288.000000 0.379029 18.000000 -0.283006 82.000000 0.341321 123.000000 -0.054165
336025.000000 0.748687 328.000000 314.000000 178.000000 -0.040502 226.000000 -0.012147 236.000000 -0.063385 298.000000 0.270944 20.000000 -0.308225 99.000000 0.375031 144.000000 -0.057385
336339.000000 0.534173 314.000000 315.000000 187.000000 -0.028496 229.000000 0.025169 238.000000 -0.026083 301.000000 0.400515 18.000000 -0.299527 92.000000 0.378056 154.000000 -0.044265
336962.000000 0.850951 308.000000 311.000000 188.000000 -0.054482 220.000000 0.026429 222.000000 0.015190 299.000000 0.415909 20.000000 -0.186355 92.000000 0.361310 160.000000 -0.055372
337273.000000 0.796518 311.000000 307.000000 262.000000 -0.124714 286.000000 0.047744 285.000000 0.003010 292.000000 0.330801 17.000000 -0.239721 81.000000 0.390437 165.000000 -0.098821
338853.000000 0.843695 309.000000 308.000000 167.000000 -0.046734 219.000000 0.006068 221.000000 -0.004309 294.000000 0.373384 18.000000 -0.280773 92.000000 0.371971 146.000000 -0.059260
339161.000000 0.810485 308.000000 605.000000 300.000000 0.319703 390.000000 0.567519 464.000000 -0.037791 594.000000 0.520233 21.000000 -0.184954 92.000000 0.466519 146.000000 0.045514
340408.000000 0.971524 320.000000 306.000000 218.000000 -0.273840 285.000000 0.287352 288.000000 0.441396 295.000000 0.676272 19.000000 -0.272207 94.000000 0.264091 221.000000 -0.314028
340714.000000 1.007370 306.000000 308.000000 166.000000 -0.021881 219.000000 -0.048355 220.000000 -0.061443 294.000000 0.139782 18.000000 0.161068 86.000000 0.532965 88.000000 0.530834
343465.000000 0.590169 304.000000 290.000000 253.000000 -0.007824 269.000000 0.062443 272.000000 0.179057 279.000000 0.460797 17.000000 -0.300252 90.000000 0.315156 171.000000 -0.109265
345926.000000 1.165349 299.000000 301.000000 171.000000 -0.094299 210.000000 0.013415 213.000000 -0.017447 287.000000 0.587182 8.000000 0.397982 90.000000 0.277293 125.000000 -0.069296
353177.000000 0.762302 325.000000 313.000000 190.000000 -0.067158 224.000000 0.044864 254.000000 -0.088418 299.000000 0.250595 19.000000 -0.170677 96.000000 0.387410 134.000000 -0.039996
355016.000000 0.758698 319.000000 321.000000 226.000000 0.030926 300.000000 0.085643 299.000000 0.055204 306.000000 0.188778 19.000000 -0.228605 95.000000 0.384533 132.000000 -0.063444
355337.000000 0.611538 321.000000 310.000000 265.000000 -0.109185 289.000000 0.007634 296.000000 0.336427 298.000000 0.205910 18.000000 -0.225952 98.000000 0.406148 159.000000 -0.086806
356564.000000 0.667259 302.000000 293.000000 166.000000 -0.043118 202.000000 0.007260 205.000000 -0.015029 280.000000 0.097397 17.000000 -0.190374 90.000000 0.402446 124.000000 -0.035581
360272.000000 0.714205 304.000000 300.000000 243.000000 -0.147051 279.000000 -0.010736 282.000000 0.144641 288.000000 0.024516 10.000000 -0.130779 90.000000 0.341309 94.000000 0.321402
362986.000000 0.905608 300.000000 296.000000 186.000000 -0.071284 210.000000 0.048341 242.000000 -0.086626 282.000000 0.358436 8.000000 0.019855 90.000000 0.381202 171.000000 -0.083447
364528.000000 0.605893 619.000000 305.000000 177.000000 -0.108558 211.000000 0.012336 213.000000 0.006616 291.000000 0.197663 17.000000 -0.302163 90.000000 0.383168 147.000000 -0.089561
366688.000000 1.069292 305.000000 307.000000 193.000000 -0.037882 218.000000 0.030942 247.000000 -0.098527 296.000000 0.309639 18.000000 -0.290864 96.000000 0.330236 168.000000 -0.048381
366995.000000 1.040346 307.000000 301.000000 174.000000 -0.046489 211.000000 0.021066 212.000000 0.000752 287.000000 0.368479 8.000000 0.055989 92.000000 0.322685 174.000000 -0.046489
367296.000000 1.022506 301.000000 300.000000 183.000000 -0.071677 216.000000 0.022992 217.000000 0.012333 288.000000 0.364202 17.000000 -0.307636 90.000000 0.331939 92.000000 0.317645
367596.000000 1.021867 300.000000 322.000000 279.000000 -0.118872 301.000000 0.065595 302.000000 0.100548 309.000000 0.315361 17.000000 -0.275434 91.000000 0.339378 92.000000 0.324582
371394.000000 1.317760 310.000000 299.000000 178.000000 -0.051975 211.000000 0.040391 253.000000 -0.085896 284.000000 0.414526 18.000000 -0.229674 91.000000 0.259823 131.000000 -0.086852
371990.000000 0.980114 297.000000 326.000000 230.000000 0.012271 305.000000 0.092303 300.000000 -0.048841 307.000000 0.202695 10.000000 -0.172973 95.000000 0.347717 145.000000 -0.067228
374832.000000 1.108419 328.000000 314.000000 189.000000 -0.061691 225.000000 0.033982 227.000000 0.002790 297.000000 0.175093 18.000000 -0.320668 98.000000 0.317045 165.000000 -0.071895
375146.000000 1.150755 314.000000 318.000000 262.000000 -0.138259 297.000000 0.076585 300.000000 0.276663 304.000000 0.381507 15.000000 -0.243022 90.000000 0.372416 91.000000 0.357620
375464.000000 1.070740 318.000000 312.000000 177.000000 -0.097770 223.000000 0.020017 225.000000 0.014045 295.000000 0.231190 17.000000 -0.306125 96.000000 0.347798 141.000000 -0.119225
375776.000000 0.904810 312.000000 303.000000 248.000000 -0.113981 282.000000 0.007009 282.000000 0.007009 289.000000 0.417480 19.000000 -0.200094 90.000000 0.377621 168.000000 -0.036619
377323.000000 0.771570 313.000000 312.000000 168.000000 -0.066913 224.000000 0.018260 270.000000 -0.112963 299.000000 0.258028 17.000000 -0.289040 92.000000 0.388141 94.000000 0.338109
378236.000000 0.771405 299.000000 303.000000 170.000000 -0.053934 211.000000 0.027069 251.000000 -0.143931 285.000000 0.143340 18.000000 -0.253689 85.000000 0.392394 141.000000 -0.056520
382309.000000 0.992228 305.000000 305.000000 176.000000 -0.073732 214.000000 0.016458 216.000000 0.000878 292.000000 0.400475 18.000000 -0.250673 89.000000 0.350498 135.000000 -0.057495
384193.000000 0.940846 313.000000 307.000000 183.000000 -0.059967 221.000000 0.035332 249.000000 -0.090218 284.000000 -0.043416 17.000000 -0.253981 88.000000 0.351330 119.000000 -0.062243
386085.000000 0.966645 306.000000 318.000000 195.000000 -0.069260 226.000000 0.010316 228.000000 -0.014825 306.000000 0.330972 19.000000 -0.224640 99.000000 0.343243 158.000000 -0.061783
387994.000000 1.024189 326.000000 314.000000 273.000000 -0.106632 293.000000 0.048263 294.000000 0.088576 301.000000 0.366101 9.000000 0.052513 93.000000 0.356929 131.000000 -0.043813
388308.000000 0.884563 314.000000 302.000000 173.000000 -0.039321 211.000000 0.078358 212.000000 0.072417 290.000000 0.497243 20.000000 -0.228041 91.000000 0.297822 92.000000 0.287524
389538.000000 0.896317 324.000000 637.000000 354.000000 -0.143045 417.000000 0.384541 458.000000 -0.062585 625.000000 0.371506 18.000000 -0.367979 320.000000 0.779480 354.000000 -0.143045
391383.000000 0.818668 293.000000 317.000000 184.000000 -0.072948 228.000000 0.056206 262.000000 -0.074277 305.000000 0.334123 18.000000 -0.268589 95.000000 0.344513 134.000000 -0.085960
392024.000000 0.759822 324.000000 324.000000 201.000000 -0.091799 234.000000 0.026803 267.000000 -0.123716 311.000000 0.210749 18.000000 -0.265697 91.000000 0.402124 157.000000 -0.027693
392348.000000 0.741970 324.000000 312.000000 255.000000 -0.105627 291.000000 0.011630 289.000000 -0.008418 296.000000 0.227148 18.000000 -0.281838 85.000000 0.396690 147.000000 -0.050423
395183.000000 0.664857 316.000000 315.000000 269.000000 -0.106959 294.000000 0.030251 294.000000 0.030251 301.000000 0.110752 21.000000 -0.147996 89.000000 0.401221 141.000000 -0.044587
395498.000000 0.646739 315.000000 309.000000 180.000000 -0.046414 213.000000 0.030798 214.000000 0.011127 296.000000 0.156831 18.000000 -0.251881 92.000000 0.414123 138.000000 -0.047573
396454.000000 0.787852 323.000000 328.000000 153.000000 -0.068726 240.000000 -0.014292 294.000000 -0.127444 316.000000 0.397367 19.000000 -0.233967 97.000000 0.370811 98.000000 0.351000
397417.000000 1.045144 311.000000 310.000000 266.000000 -0.104532 289.000000 0.023654 282.000000 -0.096865 289.000000 0.023654 21.000000 -0.151528 88.000000 0.340477 169.000000 -0.074922
397727.000000 0.870458 310.000000 307.000000 165.000000 -0.045312 217.000000 0.001253 266.000000 -0.140409 290.000000 0.133623 20.000000 -0.161816 89.000000 0.374043 138.000000 -0.043948
400876.000000 0.749122 327.000000 305.000000 258.000000 -0.072491 284.000000 0.136206 285.000000 0.155704 292.000000 0.392678 18.000000 -0.312196 97.000000 0.360003 127.000000 -0.053336
401818.000000 0.884691 318.000000 310.000000 193.000000 -0.066850 223.000000 0.005564 269.000000 -0.132413 297.000000 0.233654 20.000000 -0.177348 92.000000 0.393148 147.000000 -0.046049
402128.000000 0.813952 310.000000 317.000000 272.000000 -0.130753 296.000000 0.047540 296.000000 0.047540 303.000000 0.204154 16.000000 -0.295109 88.000000 0.391471 126.000000 -0.031254
402445.000000 0.806881 317.000000 340.000000 299.000000 -0.103477 319.000000 0.078371 317.000000 0.028622 324.000000 0.157806 19.000000 -0.284326 96.000000 0.387606 156.000000 -0.028795
402785.000000 0.665564 340.000000 332.000000 212.000000 -0.059134 236.000000 0.045865 237.000000 0.016146 318.000000 0.104403 18.000000 -0.342322 97.000000 0.417315 165.000000 -0.047100
404358.000000 1.020788 307.000000 332.000000 290.000000 -0.136550 311.000000 0.016320 311.000000 0.016320 318.000000 0.331257 18.000000 -0.265042 96.000000 0.336072 166.000000 -0.034905
405342.000000 0.691017 325.000000 313.000000 181.000000 -0.052830 222.000000 0.032465 271.000000 -0.071425 301.000000 0.073352 18.000000 -0.249029 84.000000 0.397387 144.000000 -0.009633
405976.000000 0.647712 321.000000 302.000000 191.000000 -0.103103 213.000000 0.012760 267.000000 -0.081173 290.000000 0.272197 19.000000 -0.228116 87.000000 0.384580 88.000000 0.384549
406574.000000 0.811678 296.000000 324.000000 280.000000 -0.109277 303.000000 0.049612 306.000000 0.204720 311.000000 0.194782 18.000000 -0.300344 95.000000 0.375026 145.000000 -0.060564
407221.000000 0.749328 323.000000 321.000000 194.000000 -0.060136 228.000000 0.032824 232.000000 0.008246 309.000000 0.164488 17.000000 -0.356503 97.000000 0.407535 160.000000 -0.029432
407542.000000 0.743094 321.000000 312.000000 189.000000 -0.056769 219.000000 0.030565 262.000000 -0.105187 296.000000 0.221802 18.000000 -0.287061 88.000000 0.356184 90.000000 0.326481
408466.000000 0.754126 301.000000 310.000000 164.000000 -0.068558 214.000000 0.028337 258.000000 -0.117320 298.000000 0.269986 18.000000 -0.302597 87.000000 0.411129 138.000000 -0.056066
409434.000000 1.008715 329.000000 314.000000 201.000000 -0.055376 231.000000 0.022178 266.000000 -0.117885 297.000000 0.016569 19.000000 -0.238654 97.000000 0.352550 134.000000 -0.036677
409748.000000 0.830157 314.000000 323.000000 193.000000 -0.053716 229.000000 0.028714 232.000000 0.003761 309.000000 0.140474 19.000000 -0.266235 91.000000 0.389975 140.000000 -0.052947
410071.000000 0.681621 323.000000 311.000000 265.000000 -0.108089 290.000000 0.048008 286.000000 -0.073669 293.000000 0.139199 18.000000 -0.276093 85.000000 0.419202 135.000000 -0.035906
410382.000000 0.586427 311.000000 310.000000 218.000000 -0.035110 289.000000 -0.011708 290.000000 0.028104 297.000000 0.246284 18.000000 -0.234735 86.000000 0.425077 140.000000 -0.052726
411331.000000 0.727211 329.000000 319.000000 277.000000 -0.107036 298.000000 0.034218 300.000000 0.148497 307.000000 0.165738 18.000000 -0.290674 91.000000 0.391613 93.000000 0.381487
413858.000000 1.080219 331.000000 308.000000 270.000000 -0.117411 287.000000 0.027510 288.000000 0.098059 295.000000 0.356289 20.000000 -0.268603 97.000000 0.374016 139.000000 -0.050767
415724.000000 1.142450 317.000000 322.000000 277.000000 -0.114719 301.000000 0.042915 302.000000 0.103087 309.000000 0.518511 19.000000 -0.246157 103.000000 0.306925 141.000000 -0.037733
416350.000000 1.135079 304.000000 315.000000 191.000000 -0.066706 227.000000 0.018182 229.000000 -0.017399 303.000000 0.410277 19.000000 -0.296096 96.000000 0.366462 144.000000 -0.065310
416975.000000 0.999282 310.000000 298.000000 244.000000 -0.170674 277.000000 -0.046866 280.000000 0.121739 287.000000 0.332320 18.000000 -0.259181 89.000000 0.438671 153.000000 -0.160395
417908.000000 0.784734 325.000000 938.000000 592.000000 -0.118671 633.000000 0.726114 665.000000 -0.129890 923.000000 0.304157 19.000000 -0.330389 326.000000 0.484925 355.000000 -0.208663
418846.000000 0.885725 938.000000 305.000000 263.000000 -0.113948 284.000000 0.071319 291.000000 0.342244 293.000000 0.224642 18.000000 -0.313317 91.000000 0.348827 92.000000 0.333922
419447.000000 1.133870 296.000000 325.000000 230.000000 -0.015297 304.000000 0.032463 302.000000 -0.044089 309.000000 0.396272 18.000000 -0.233388 96.000000 0.375676 158.000000 -0.019735
419772.000000 1.083620 325.000000 335.000000 227.000000 -0.078150 245.000000 -0.008464 287.000000 -0.130909 321.000000 0.369906 23.000000 -0.219812 100.000000 0.392195 164.000000 -0.041316
421718.000000 0.789169 316.000000 333.000000 211.000000 -0.071177 243.000000 0.036676 276.000000 -0.108965 319.000000 0.199940 21.000000 -0.199422 93.000000 0.451609 158.000000 -0.027446
423639.000000 0.920659 304.000000 304.000000 171.000000 -0.001790 212.000000 0.059777 214.000000 0.056205 292.000000 0.240723 18.000000 -0.273413 86.000000 0.434895 138.000000 -0.058499
424599.000000 0.820381 327.000000 308.000000 197.000000 -0.056895 226.000000 0.034971 227.000000 0.024093 295.000000 0.436225 19.000000 -0.272361 98.000000 0.331916 143.000000 -0.055188
426153.000000 0.942981 313.000000 328.000000 204.000000 -0.094638 231.000000 0.018371 241.000000 -0.026489 307.000000 -0.012648 22.000000 -0.178463 94.000000 0.354682 157.000000 -0.043132
427770.000000 0.942884 313.000000 305.000000 173.000000 -0.014514 216.000000 0.025344 218.000000 0.019765 288.000000 0.156127 17.000000 -0.246551 90.000000 0.418154 173.000000 -0.014514
428075.000000 1.205143 305.000000 670.000000 379.000000 -0.118011 428.000000 0.378088 481.000000 -0.021502 651.000000 0.239501 16.000000 -0.210093 331.000000 1.047428 388.000000 -0.105049
431028.000000 0.835720 334.000000 324.000000 209.000000 -0.070205 235.000000 -0.003640 238.000000 -0.029643 312.000000 0.247913 19.000000 -0.225252 97.000000 0.348855 153.000000 -0.039721
431352.000000 0.797019 324.000000 329.000000 189.000000 0.028549 235.000000 0.076387 267.000000 -0.047502 316.000000 0.384798 19.000000 -0.389437 97.000000 0.600958 168.000000 0.147483
432002.000000 0.856666 321.000000 317.000000 191.000000 -0.069118 227.000000 0.007071 229.000000 -0.015577 302.000000 0.250659 4.000000 0.485019 95.000000 0.382652 153.000000 0.001744
433626.000000 0.940128 317.000000 317.000000 199.000000 -0.070598 230.000000 0.013228 236.000000 -0.022821 299.000000 0.078447 21.000000 -0.193648 98.000000 0.331758 199.000000 -0.070598
433943.000000 0.932489 317.000000 308.000000 171.000000 -0.033986 219.000000 0.032757 222.000000 -0.002634 291.000000 0.219296 19.000000 -0.203609 92.000000 0.344355 171.000000 -0.033986
434251.000000 0.833560 308.000000 306.000000 166.000000 -0.073521 223.000000 0.013611 255.000000 -0.130576 290.000000 0.184402 21.000000 -0.214008 91.000000 0.405443 166.000000 -0.073521
438062.000000 0.587210 315.000000 309.000000 216.000000 -0.021412 288.000000 0.041864 289.000000 0.071707 296.000000 0.195436 19.000000 -0.348936 96.000000 0.359157 135.000000 0.042541
440882.000000 0.841630 312.000000 313.000000 269.000000 -0.111785 292.000000 0.045612 289.000000 -0.005797 296.000000 0.228089 18.000000 -0.249388 91.000000 0.428367 123.000000 -0.016525
442802.000000 1.015862 311.000000 302.000000 219.000000 -0.123747 281.000000 0.014075 279.000000 -0.043448 286.000000 0.358040 18.000000 -0.259717 85.000000 0.328840 167.000000 -0.132556
445022.000000 0.682901 309.000000 314.000000 270.000000 -0.177491 293.000000 -0.037054 299.000000 0.279952 303.000000 0.192852 20.000000 -0.165827 92.000000 0.399848 138.000000 -0.047415
445655.000000 0.872493 319.000000 321.000000 180.000000 -0.056193 234.000000 0.026628 274.000000 -0.115531 309.000000 0.215880 19.000000 -0.295359 101.000000 0.353546 145.000000 -0.055688
446607.000000 0.787495 309.000000 309.000000 191.000000 -0.091160 224.000000 0.020094 275.000000 -0.115452 292.000000 0.200032 18.000000 -0.296391 91.000000 0.380240 93.000000 0.375366
448136.000000 0.914486 319.000000 328.000000 194.000000 -0.059048 231.000000 0.022113 270.000000 -0.127302 316.000000 0.221195 19.000000 -0.334446 98.000000 0.355824 147.000000 -0.029718
449667.000000 0.577398 597.000000 303.000000 258.000000 -0.075985 282.000000 0.104044 283.000000 0.155769 290.000000 0.242556 17.000000 -0.246176 87.000000 0.403195 134.000000 -0.029127
449970.000000 0.744046 303.000000 319.000000 269.000000 -0.129485 298.000000 -0.002949 299.000000 0.052349 306.000000 0.328729 20.000000 -0.214104 96.000000 0.344746 97.000000 0.341219
450899.000000 0.783344 297.000000 305.000000 168.000000 -0.034715 211.000000 0.032479 214.000000 0.004690 293.000000 0.251225 18.000000 -0.279914 91.000000 0.345397 93.000000 0.334095
451204.000000 0.724533 305.000000 301.000000 166.000000 -0.042240 216.000000 0.008933 256.000000 -0.104124 286.000000 0.269980 18.000000 -0.279277 90.000000 0.327431 133.000000 -0.031582
451505.000000 0.812080 301.000000 297.000000 165.000000 -0.033952 210.000000 0.014623 256.000000 -0.163885 285.000000 0.310678 17.000000 -0.241354 86.000000 0.374399 88.000000 0.374086
451802.000000 0.919848 297.000000 303.000000 206.000000 0.011126 282.000000 0.029905 283.000000 0.069858 290.000000 0.424921 17.000000 -0.326704 87.000000 0.314232 129.000000 -0.033435
452105.000000 0.995359 303.000000 319.000000 259.000000 -0.115328 298.000000 0.090332 299.000000 0.165018 306.000000 0.363183 20.000000 -0.217964 97.000000 0.340358 178.000000 -0.092150
453379.000000 0.933998 321.000000 307.000000 219.000000 0.007638 286.000000 0.072589 287.000000 0.103891 294.000000 0.412416 19.000000 -0.279640 89.000000 0.390440 91.000000 0.371569
454955.000000 0.741869 319.000000 305.000000 180.000000 -0.047242 216.000000 0.014750 255.000000 -0.132007 288.000000 0.258277 20.000000 -0.223507 90.000000 0.343607 138.000000 -0.018637
455574.000000 0.858932 314.000000 299.000000 261.000000 -0.099888 278.000000 0.055568 280.000000 0.144470 287.000000 0.395302 18.000000 -0.259800 90.000000 0.304009 135.000000 -0.180876
457436.000000 0.591805 311.000000 307.000000 166.000000 0.056711 219.000000 0.016490 252.000000 -0.159280 295.000000 0.209814 18.000000 -0.407238 94.000000 0.377978 96.000000 0.357916
460447.000000 0.694201 293.000000 300.000000 168.000000 -0.051016 210.000000 -0.005203 247.000000 -0.169419 287.000000 0.117524 16.000000 -0.361866 84.000000 0.379890 87.000000 0.355973
462558.000000 0.847070 298.000000 293.000000 180.000000 -0.043852 204.000000 0.037636 234.000000 -0.097128 281.000000 0.210445 17.000000 -0.246505 84.000000 0.320893 141.000000 -0.105906
467981.000000 0.869967 318.000000 305.000000 256.000000 -0.126613 284.000000 0.054827 279.000000 -0.079985 286.000000 0.169717 19.000000 -0.183311 86.000000 0.361001 123.000000 -0.034919
468286.000000 0.880327 305.000000 303.000000 188.000000 -0.063636 213.000000 0.046536 246.000000 -0.144296 290.000000 0.226675 20.000000 -0.184378 88.000000 0.346642 150.000000 -0.103902
471292.000000 0.822130 288.000000 310.000000 260.000000 -0.122713 289.000000 0.029138 289.000000 0.029138 296.000000 0.413935 19.000000 -0.107885 88.000000 0.345706 126.000000 -0.036343
472224.000000 0.722775 310.000000 298.000000 173.000000 -0.117711 207.000000 0.070971 243.000000 -0.116849 285.000000 0.240063 18.000000 -0.290436 87.000000 0.444201 133.000000 -0.028182
476701.000000 0.697712 298.000000 298.000000 189.000000 -0.078917 212.000000 0.009044 244.000000 -0.131566 289.000000 0.106510 14.000000 -0.284422 87.000000 0.376784 141.000000 -0.078887
479408.000000 0.893340 306.000000 297.000000 185.000000 -0.081034 206.000000 0.024170 243.000000 -0.145706 281.000000 0.294609 18.000000 -0.206533 86.000000 0.365255 124.000000 -0.060999
480003.000000 0.805830 298.000000 324.000000 279.000000 -0.149656 303.000000 0.087944 304.000000 0.138053 311.000000 0.248226 14.000000 -0.391052 91.000000 0.412802 136.000000 -0.078625
480327.000000 0.673052 324.000000 322.000000 279.000000 -0.071583 301.000000 0.171723 302.000000 0.230986 309.000000 0.360830 21.000000 -0.225316 96.000000 0.345502 133.000000 -0.076992
493817.000000 0.468672 2570.000000 282.000000 179.000000 -0.063746 198.000000 0.031756 237.000000 -0.161738 269.000000 0.156051 22.000000 -0.178725 84.000000 0.379642 130.000000 -0.083089
494955.000000 0.775593 286.000000 285.000000 177.000000 -0.062996 199.000000 0.009982 229.000000 -0.140725 273.000000 0.247033 19.000000 -0.211524 86.000000 0.352113 136.000000 -0.097791
501569.000000 0.589198 830.000000 297.000000 252.000000 -0.162024 276.000000 0.083039 277.000000 0.143306 284.000000 0.324561 20.000000 -0.259284 91.000000 0.402254 132.000000 -0.035031
504713.000000 0.889919 295.000000 284.000000 176.000000 -0.063089 198.000000 0.019905 224.000000 -0.154609 273.000000 0.244924 17.000000 -0.285927 85.000000 0.320046 135.000000 -0.134483
506124.000000 0.922083 294.000000 297.000000 185.000000 -0.041898 205.000000 0.032663 253.000000 -0.151757 284.000000 0.295282 18.000000 -0.290755 96.000000 0.304669 142.000000 -0.081223
506717.000000 0.837145 296.000000 277.000000 179.000000 -0.058855 199.000000 0.039685 242.000000 -0.133859 266.000000 0.154295 19.000000 -0.208295 92.000000 0.344310 130.000000 -0.089354
510097.000000 0.820189 275.000000 281.000000 170.000000 -0.046566 191.000000 0.059908 235.000000 -0.122977 269.000000 0.257602 16.000000 -0.254139 84.000000 0.302005 129.000000 -0.067599
510679.000000 0.860528 301.000000 299.000000 260.000000 -0.130925 278.000000 0.061489 280.000000 0.171865 287.000000 0.147618 19.000000 -0.254003 95.000000 0.317570 131.000000 -0.027334
510978.000000 0.814029 299.000000 291.000000 187.000000 -0.046032 210.000000 0.037007 244.000000 -0.136614 278.000000 0.318563 9.000000 -0.015078 97.000000 0.322464 137.000000 -0.079792
511269.000000 0.811618 291.000000 290.000000 246.000000 -0.155139 269.000000 0.030098 271.000000 0.154973 278.000000 0.234612 14.000000 -0.250232 87.000000 0.342853 141.000000 -0.077770
511559.000000 0.718013 290.000000 280.000000 174.000000 -0.028397 193.000000 0.057886 236.000000 -0.114404 268.000000 0.272369 18.000000 -0.249901 87.000000 0.301351 122.000000 -0.061033
512702.000000 0.676078 300.000000 293.000000 238.000000 -0.128554 272.000000 0.092305 274.000000 0.256725 281.000000 0.188950 19.000000 -0.255050 90.000000 0.304575 140.000000 -0.100015
514442.000000 0.925610 283.000000 287.000000 174.000000 -0.035387 197.000000 0.058703 238.000000 -0.127568 274.000000 0.245333 17.000000 -0.272463 84.000000 0.286283 136.000000 -0.085623
516510.000000 0.780986 288.000000 291.000000 248.000000 -0.134749 270.000000 0.033478 270.000000 0.033478 277.000000 0.333040 19.000000 -0.204187 86.000000 0.351583 142.000000 -0.090157
523037.000000 0.786049 283.000000 277.000000 235.000000 -0.133699 256.000000 0.082458 256.000000 0.082458 263.000000 0.171721 20.000000 -0.143435 86.000000 0.312958 121.000000 -0.079487
524791.000000 0.800506 293.000000 284.000000 159.000000 -0.070456 193.000000 0.014674 221.000000 -0.161110 272.000000 0.152290 18.000000 -0.281655 85.000000 0.358089 137.000000 -0.072338
526272.000000 0.800768 309.000000 290.000000 238.000000 -0.206223 269.000000 -0.012772 272.000000 0.195800 279.000000 0.261929 18.000000 -0.238055 91.000000 0.294483 143.000000 -0.121208
531700.000000 0.866876 295.000000 304.000000 249.000000 -0.108698 283.000000 0.053903 294.000000 -0.017805 295.000000 -0.048024 19.000000 -0.244144 82.000000 0.353364 121.000000 -0.080550
535661.000000 0.885027 296.000000 287.000000 180.000000 -0.086720 215.000000 0.060080 232.000000 -0.126959 274.000000 0.340734 18.000000 -0.279063 86.000000 0.368572 133.000000 -0.092710
537150.000000 0.743466 304.000000 295.000000 240.000000 -0.105018 274.000000 0.026894 271.000000 -0.048560 278.000000 0.192379 18.000000 -0.210563 81.000000 0.359641 117.000000 -0.067883
539899.000000 0.861742 310.000000 300.000000 183.000000 -0.087542 204.000000 0.030217 242.000000 -0.133464 284.000000 0.254103 18.000000 -0.263365 86.000000 0.396509 148.000000 -0.084328
540199.000000 0.842959 300.000000 299.000000 249.000000 -0.146460 278.000000 0.079340 278.000000 0.079340 285.000000 0.314778 18.000000 -0.221712 85.000000 0.410015 151.000000 -0.087240
540498.000000 0.724998 299.000000 313.000000 261.000000 -0.105752 292.000000 0.056992 293.000000 0.106804 300.000000 0.250581 19.000000 -0.210616 92.000000 0.359510 126.000000 -0.076742
546405.000000 0.721815 303.000000 289.000000 245.000000 -0.105958 268.000000 0.028684 265.000000 -0.065267 272.000000 0.216741 19.000000 -0.234502 83.000000 0.348914 140.000000 -0.136382
547938.000000 1.020358 313.000000 299.000000 183.000000 -0.054327 206.000000 0.034420 244.000000 -0.128119 280.000000 0.076256 18.000000 -0.217011 86.000000 0.342710 128.000000 -0.064764
549132.000000 0.798868 292.000000 313.000000 260.000000 -0.111863 292.000000 0.022591 294.000000 0.122435 301.000000 0.217043 19.000000 -0.201526 90.000000 0.333350 126.000000 -0.046568
552231.000000 0.925615 319.000000 305.000000 187.000000 -0.087693 209.000000 0.017085 249.000000 -0.148466 292.000000 0.233886 18.000000 -0.237521 83.000000 0.368025 155.000000 -0.059212
552536.000000 0.861910 305.000000 313.000000 195.000000 -0.087459 217.000000 0.007698 253.000000 -0.117067 301.000000 0.277055 19.000000 -0.248981 90.000000 0.392213 134.000000 -0.048118
560340.000000 0.965127 317.000000 318.000000 187.000000 -0.070706 224.000000 0.049199 273.000000 -0.155423 305.000000 0.316099 21.000000 -0.164891 92.000000 0.306329 132.000000 -0.063402
568735.000000 0.788104 293.000000 311.000000 192.000000 -0.052464 217.000000 0.047708 261.000000 -0.161411 297.000000 0.244385 19.000000 -0.165847 96.000000 0.326457 136.000000 -0.051163
569965.000000 0.580163 307.000000 297.000000 184.000000 -0.127542 210.000000 -0.006851 240.000000 -0.143998 284.000000 0.276991 18.000000 -0.160933 90.000000 0.363924 126.000000 -0.054137
570262.000000 0.729937 297.000000 290.000000 171.000000 -0.053443 201.000000 0.030095 233.000000 -0.147869 277.000000 0.329055 18.000000 -0.206630 83.000000 0.336020 137.000000 -0.083838
577819.000000 0.888057 315.000000 312.000000 187.000000 -0.063200 217.000000 0.020876 256.000000 -0.132319 299.000000 0.322510 18.000000 -0.280374 97.000000 0.350898 143.000000 -0.062524
578737.000000 0.842082 309.000000 296.000000 180.000000 -0.043397 205.000000 0.036208 241.000000 -0.124202 282.000000 0.336582 19.000000 -0.251995 91.000000 0.375750 149.000000 -0.075826
579630.000000 0.904780 310.000000 318.000000 200.000000 -0.060160 224.000000 0.026693 262.000000 -0.143087 306.000000 0.272711 18.000000 -0.311020 97.000000 0.341115 131.000000 -0.065157
580875.000000 0.819230 306.000000 297.000000 181.000000 -0.101425 208.000000 0.015128 245.000000 -0.149041 284.000000 0.254591 17.000000 -0.275016 89.000000 0.386772 121.000000 -0.089608
581172.000000 0.794354 297.000000 291.000000 184.000000 -0.076692 206.000000 0.012524 244.000000 -0.157944 279.000000 0.288606 19.000000 -0.221242 86.000000 0.389416 135.000000 -0.085641
590304.000000 0.685019 279.000000 294.000000 182.000000 -0.043603 205.000000 0.033779 245.000000 -0.164013 282.000000 0.156131 7.000000 0.137026 91.000000 0.323625 131.000000 -0.051407
592932.000000 0.779405 306.000000 300.000000 186.000000 -0.061749 211.000000 0.036085 252.000000 -0.120330 286.000000 0.373869 18.000000 -0.279951 92.000000 0.288296 143.000000 -0.093928
593232.000000 0.786172 300.000000 284.000000 179.000000 -0.048053 199.000000 0.037383 236.000000 -0.139987 271.000000 0.234795 19.000000 -0.236117 91.000000 0.350642 137.000000 -0.067207
594096.000000 0.497270 580.000000 280.000000 179.000000 -0.051240 199.000000 0.015985 233.000000 -0.151286 268.000000 0.223717 17.000000 -0.280425 86.000000 0.349874 124.000000 -0.073590
596140.000000 0.705818 290.000000 287.000000 175.000000 -0.071036 201.000000 -0.006305 230.000000 -0.148185 275.000000 0.288007 18.000000 -0.285390 88.000000 0.364530 138.000000 -0.098181
597648.000000 0.912917 310.000000 298.000000 256.000000 -0.062003 277.000000 0.093360 279.000000 0.176933 286.000000 0.352043 16.000000 -0.314340 85.000000 0.284908 140.000000 -0.177458
600675.000000 0.846394 298.000000 288.000000 185.000000 -0.070452 208.000000 -0.003167 233.000000 -0.141740 274.000000 0.393055 19.000000 -0.213730 88.000000 0.397041 138.000000 -0.081375
601272.000000 0.608416 309.000000 312.000000 198.000000 -0.081490 217.000000 0.040017 249.000000 -0.111549 300.000000 0.501461 18.000000 -0.225143 96.000000 0.331315 125.000000 -0.005379
606449.000000 0.686269 621.000000 301.000000 191.000000 -0.069822 212.000000 0.004549 256.000000 -0.164044 288.000000 0.301754 21.000000 -0.213149 92.000000 0.401103 140.000000 -0.050150
606750.000000 0.649854 301.000000 293.000000 250.000000 -0.163888 272.000000 0.016570 274.000000 0.095489 281.000000 0.201602 18.000000 -0.270116 86.000000 0.349728 137.000000 -0.083325
607338.000000 0.787963 295.000000 309.000000 191.000000 -0.075238 217.000000 0.029827 262.000000 -0.146959 292.000000 0.149891 20.000000 -0.180845 85.000000 0.339955 121.000000 -0.035597
608587.000000 0.939061 300.000000 312.000000 193.000000 -0.065786 222.000000 0.024529 255.000000 -0.152539 297.000000 0.383279 20.000000 -0.227584 91.000000 0.325301 135.000000 -0.058872
608899.000000 0.925507 312.000000 306.000000 192.000000 -0.043871 216.000000 0.044844 250.000000 -0.120799 294.000000 0.408982 19.000000 -0.246376 92.000000 0.363560 124.000000 -0.052664
610122.000000 0.771916 321.000000 318.000000 266.000000 -0.112239 297.000000 0.050050 298.000000 0.105065 305.000000 0.270285 20.000000 -0.255184 97.000000 0.366191 137.000000 -0.054910
610440.000000 0.720710 318.000000 307.000000 196.000000 -0.082585 217.000000 0.017054 256.000000 -0.143793 296.000000 0.277803 18.000000 -0.328209 94.000000 0.388919 136.000000 -0.046224
613195.000000 0.854701 306.000000 292.000000 245.000000 -0.140359 271.000000 0.015347 272.000000 0.050629 279.000000 0.287072 18.000000 -0.262241 90.000000 0.387101 134.000000 -0.094029
615895.000000 0.875029 293.000000 294.000000 181.000000 -0.071520 204.000000 0.035157 246.000000 -0.139436 283.000000 0.310612 19.000000 -0.246461 84.000000 0.365763 105.000000 -0.017215
620152.000000 0.701695 294.000000 590.000000 323.000000 -0.101462 376.000000 0.380309 438.000000 -0.079902 578.000000 0.264751 18.000000 -0.271159 286.000000 0.717851 306.000000 -0.269377
623094.000000 0.778431 308.000000 300.000000 257.000000 -0.181395 279.000000 0.064641 275.000000 -0.079529 282.000000 0.212275 18.000000 -0.267932 96.000000 0.368936 149.000000 -0.137086
624252.000000 0.525830 578.000000 279.000000 174.000000 -0.001599 194.000000 0.076802 224.000000 -0.092178 266.000000 0.212348 8.000000 -0.051020 91.000000 0.312211 123.000000 0.000845
625089.000000 0.581501 290.000000 844.000000 586.000000 -0.259765 659.000000 0.378211 692.000000 -0.047618 831.000000 0.241143 20.000000 -0.249924 95.000000 0.382393 136.000000 -0.042404
627005.000000 0.575966 269.000000 292.000000 183.000000 -0.027711 202.000000 0.022824 243.000000 -0.147678 280.000000 0.228542 12.000000 -0.258111 93.000000 0.323758 138.000000 -0.081771
633686.000000 0.531822 285.000000 828.000000 597.000000 -0.132409 648.000000 0.345035 682.000000 -0.051769 815.000000 0.197321 10.000000 -0.136064 284.000000 0.359109 301.000000 -0.236784
634514.000000 0.505691 828.000000 268.000000 164.000000 -0.028840 185.000000 0.056864 229.000000 -0.139562 256.000000 0.194403 20.000000 -0.237960 89.000000 0.302070 120.000000 -0.026019
635049.000000 0.541099 267.000000 269.000000 159.000000 -0.013384 185.000000 0.063685 215.000000 -0.108572 257.000000 0.231381 18.000000 -0.236955 88.000000 0.296274 124.000000 -0.019416
635853.000000 0.603138 278.000000 283.000000 229.000000 -0.152430 262.000000 0.119733 262.000000 0.119733 269.000000 0.326866 20.000000 -0.227411 94.000000 0.299610 128.000000 -0.072051
636703.000000 0.811584 275.000000 281.000000 168.000000 -0.061194 199.000000 0.031238 234.000000 -0.134781 264.000000 0.168492 20.000000 -0.186753 91.000000 0.315034 135.000000 -0.087384
647994.000000 0.640535 286.000000 284.000000 179.000000 -0.038402 200.000000 0.042651 231.000000 -0.106064 273.000000 0.218011 9.000000 -0.219965 86.000000 0.335429 121.000000 -0.018854
649441.000000 0.670075 294.000000 282.000000 176.000000 -0.038553 193.000000 0.046335 232.000000 -0.146253 270.000000 0.282257 18.000000 -0.242638 84.000000 0.312802 113.000000 -0.039091
