697.000000 1.074439 288.000000 291.000000 154.000000 -0.066089 182.000000 -0.007237 214.000000 -0.085580 276.000000 -0.065035 13.000000 0.361522 20.000000 0.247322 33.000000 -0.236190
2201.000000 1.134811 291.000000 287.000000 155.000000 -0.066720 193.000000 0.018042 230.000000 -0.100018 272.000000 -0.087728 14.000000 0.349542 20.000000 0.270545 35.000000 -0.298265
2781.000000 1.005471 293.000000 291.000000 156.000000 -0.093553 189.000000 -0.005047 215.000000 -0.058044 277.000000 -0.069485 13.000000 0.482680 21.000000 0.593590 57.000000 -0.205201
3072.000000 1.128241 291.000000 300.000000 167.000000 -0.034817 192.000000 0.000292 238.000000 -0.094390 290.000000 -0.067163 14.000000 0.319229 20.000000 0.329354 45.000000 -0.149234
5164.000000 1.117950 299.000000 301.000000 158.000000 -0.065928 188.000000 -0.011554 218.000000 -0.050566 289.000000 -0.069311 14.000000 0.458752 20.000000 0.468815 53.000000 -0.160120
6380.000000 1.069920 297.000000 284.000000 151.000000 -0.048404 179.000000 -0.000849 208.000000 -0.040421 271.000000 -0.074153 13.000000 0.370673 20.000000 0.262993 36.000000 -0.251943
8159.000000 0.999247 303.000000 313.000000 173.000000 -0.045136 193.000000 0.000177 210.000000 -0.033850 300.000000 -0.009716 9.000000 0.394373 20.000000 0.569812 49.000000 -0.202901
8763.000000 1.001597 291.000000 279.000000 146.000000 -0.043757 170.000000 -0.014823 174.000000 -0.044086 266.000000 -0.065455 9.000000 0.353837 20.000000 0.300936 31.000000 -0.287419
9630.000000 1.017931 298.000000 309.000000 162.000000 -0.039150 191.000000 -0.012805 237.000000 -0.115125 294.000000 -0.071583 12.000000 0.359702 20.000000 0.249905 38.000000 -0.224514
12330.000000 1.057022 313.000000 302.000000 164.000000 -0.039902 192.000000 0.005552 222.000000 -0.042066 287.000000 -0.073838 13.000000 0.382365 20.000000 0.254808 38.000000 -0.249282
12632.000000 1.103716 302.000000 294.000000 167.000000 -0.065467 189.000000 -0.044763 206.000000 -0.098619 276.000000 -0.081988 11.000000 0.375297 20.000000 0.326174 38.000000 -0.192070
12926.000000 1.050079 294.000000 296.000000 189.000000 -0.025589 212.000000 0.040804 227.000000 -0.053117 282.000000 -0.061756 12.000000 0.359890 20.000000 0.318150 40.000000 -0.222933
14408.000000 1.093683 311.000000 309.000000 131.000000 0.046552 188.000000 -0.026361 202.000000 -0.053537 297.000000 -0.050921 10.000000 0.399749 20.000000 0.365283 36.000000 -0.253837
16183.000000 1.134096 294.000000 308.000000 169.000000 -0.026246 188.000000 0.005481 240.000000 -0.083024 293.000000 -0.085627 16.000000 0.342529 20.000000 0.311903 36.000000 -0.260543
17979.000000 0.953462 300.000000 294.000000 157.000000 -0.066929 187.000000 -0.008292 234.000000 -0.076941 281.000000 -0.055454 10.000000 0.379089 20.000000 0.458650 55.000000 -0.167214
19184.000000 1.025503 306.000000 295.000000 157.000000 -0.012722 187.000000 0.045238 208.000000 -0.032318 281.000000 -0.056634 12.000000 0.399765 20.000000 0.290205 39.000000 -0.314765
19765.000000 1.048245 286.000000 289.000000 38.000000 -0.213640 176.000000 0.009738 197.000000 -0.043273 278.000000 -0.062194 12.000000 0.393763 20.000000 0.315784 38.000000 -0.213640
21567.000000 1.039217 300.000000 289.000000 68.000000 -0.063465 175.000000 -0.028573 213.000000 -0.116408 279.000000 -0.084811 13.000000 0.371175 20.000000 0.281926 42.000000 -0.215220
22434.000000 1.003886 292.000000 309.000000 174.000000 -0.049051 201.000000 0.023490 207.000000 0.009212 297.000000 -0.051052 18.000000 0.540017 20.000000 0.601115 52.000000 -0.244494
25441.000000 1.087039 304.000000 295.000000 155.000000 -0.017732 192.000000 0.004950 254.000000 -0.098685 282.000000 -0.068884 16.000000 0.389594 20.000000 0.392885 44.000000 -0.219668
26024.000000 1.057667 288.000000 292.000000 166.000000 -0.076127 185.000000 0.022385 206.000000 -0.003463 273.000000 -0.035500 11.000000 0.339563 20.000000 0.357179 43.000000 -0.210079
26607.000000 1.094827 291.000000 291.000000 156.000000 -0.048339 178.000000 -0.016221 250.000000 -0.121583 279.000000 -0.072194 16.000000 0.424483 20.000000 0.411270 39.000000 -0.162756
27522.000000 0.896940 312.000000 298.000000 156.000000 -0.042235 182.000000 -0.023948 199.000000 -0.052962 286.000000 -0.057724 15.000000 0.465795 20.000000 0.488396 60.000000 -0.207163
28113.000000 1.125380 293.000000 287.000000 170.000000 -0.059429 220.000000 0.016019 246.000000 -0.040738 272.000000 -0.040739 15.000000 0.451507 20.000000 0.645441 80.000000 -0.284636
28990.000000 1.462208 294.000000 891.000000 569.000000 -0.029936 592.000000 0.693654 651.000000 -0.261739 882.000000 0.244229 10.000000 0.447490 287.000000 0.564500 350.000000 -0.293197
30440.000000 0.680328 277.000000 276.000000 174.000000 0.026791 198.000000 0.047136 216.000000 0.023906 260.000000 -0.010830 17.000000 -0.095767 100.000000 0.072092 124.000000 0.017640
30716.000000 0.732897 276.000000 283.000000 165.000000 -0.022019 190.000000 0.051694 204.000000 0.021600 272.000000 -0.049548 21.000000 -0.123610 106.000000 0.089376 134.000000 -0.006577
30999.000000 0.737978 283.000000 290.000000 151.000000 0.012463 190.000000 0.056469 198.000000 0.031235 273.000000 0.005439 6.000000 0.491740 99.000000 0.108299 108.000000 0.063721
31289.000000 0.598903 290.000000 296.000000 151.000000 0.008990 181.000000 0.033515 195.000000 0.004300 280.000000 -0.014479 23.000000 -0.159609 98.000000 0.094334 117.000000 0.049869
31882.000000 0.706634 297.000000 299.000000 157.000000 0.043755 188.000000 0.062270 211.000000 0.041304 284.000000 0.007105 14.000000 0.028297 128.000000 0.103626 146.000000 0.040022
32466.000000 0.719254 285.000000 269.000000 145.000000 -0.021404 180.000000 0.031159 194.000000 0.008070 260.000000 0.188498 19.000000 -0.100320 84.000000 0.092648 133.000000 -0.005354
33010.000000 0.679509 275.000000 287.000000 233.000000 0.001254 266.000000 0.032507 263.000000 0.007382 270.000000 -0.002385 18.000000 -0.080144 94.000000 0.084062 149.000000 -0.043495
33297.000000 0.698163 287.000000 298.000000 179.000000 0.006907 207.000000 0.035841 253.000000 -0.025738 281.000000 -0.028054 26.000000 -0.121948 99.000000 0.090950 156.000000 -0.024663
33595.000000 0.710349 298.000000 288.000000 149.000000 0.009696 198.000000 0.046524 237.000000 0.004800 270.000000 0.020378 20.000000 -0.081625 96.000000 0.097831 149.000000 0.009696
33883.000000 0.680737 288.000000 491.000000 181.000000 -0.830210 306.000000 0.077149 317.000000 0.054030 480.000000 -0.040093 11.000000 0.182851 252.000000 0.440825 302.000000 0.052588
35238.000000 1.090044 289.000000 298.000000 162.000000 -0.031947 186.000000 -0.004331 207.000000 -0.084408 284.000000 -0.057637 11.000000 0.325422 20.000000 0.305594 47.000000 -0.117982
35536.000000 1.044967 298.000000 311.000000 86.000000 -0.024887 189.000000 -0.045725 213.000000 -0.085814 294.000000 -0.069342 12.000000 0.384103 20.000000 0.337051 38.000000 -0.207572
36153.000000 0.975502 306.000000 298.000000 92.000000 -0.069358 182.000000 -0.034014 206.000000 -0.074751 284.000000 -0.052838 9.000000 0.361474 20.000000 0.350844 34.000000 -0.290365
38824.000000 0.722320 285.000000 293.000000 192.000000 0.038256 217.000000 0.060609 234.000000 0.002334 285.000000 0.403948 18.000000 -0.099658 91.000000 0.128663 150.000000 -0.009550
39401.000000 0.723136 284.000000 282.000000 147.000000 -0.034695 185.000000 0.035010 200.000000 0.015747 266.000000 -0.020154 28.000000 -0.166035 90.000000 0.110743 147.000000 -0.034695
39683.000000 0.766882 282.000000 295.000000 173.000000 -0.007010 205.000000 0.051991 229.000000 0.018029 278.000000 -0.006724 20.000000 -0.106693 91.000000 0.106934 149.000000 -0.020619
40280.000000 0.702618 302.000000 309.000000 260.000000 0.006148 285.000000 0.017273 288.000000 0.002273 293.000000 -0.027241 21.000000 -0.101317 98.000000 0.115101 107.000000 0.075274
40589.000000 0.733841 309.000000 290.000000 175.000000 0.006409 209.000000 0.040704 223.000000 -0.017743 273.000000 0.013197 25.000000 -0.126067 95.000000 0.097539 149.000000 -0.018590
41157.000000 0.641237 278.000000 292.000000 243.000000 -0.048306 271.000000 -0.011819 267.000000 -0.027446 274.000000 -0.031396 25.000000 -0.152276 97.000000 0.135489 150.000000 -0.050953
41449.000000 1.446787 292.000000 283.000000 168.000000 -0.038539 207.000000 0.023916 220.000000 0.022222 267.000000 0.006061 21.000000 0.035442 94.000000 0.077426 143.000000 -0.062940
41732.000000 0.742989 283.000000 282.000000 144.000000 -0.020625 206.000000 0.072996 218.000000 0.046224 270.000000 -0.005075 25.000000 -0.150299 98.000000 0.101776 144.000000 -0.020625
42014.000000 0.643119 282.000000 302.000000 250.000000 -0.046159 278.000000 -0.011063 285.000000 -0.035530 285.000000 -0.035530 40.000000 -0.211963 98.000000 0.131210 123.000000 0.021448
42316.000000 1.411114 302.000000 301.000000 253.000000 -0.011521 271.000000 0.029767 283.000000 0.009784 283.000000 0.009784 19.000000 0.077791 97.000000 0.081841 154.000000 -0.053690
43481.000000 0.704878 277.000000 287.000000 151.000000 -0.025105 192.000000 0.047291 200.000000 -0.012630 267.000000 0.018934 10.000000 0.180210 94.000000 0.107578 151.000000 -0.025105
44056.000000 0.605923 288.000000 295.000000 180.000000 0.007255 204.000000 0.020111 212.000000 0.014093 286.000000 0.229123 28.000000 -0.157700 102.000000 0.106808 155.000000 -0.012654
44351.000000 0.727398 295.000000 300.000000 242.000000 0.012632 270.000000 0.049028 280.000000 0.048167 282.000000 0.022963 22.000000 -0.077509 101.000000 0.091611 132.000000 -0.002229
44945.000000 0.672282 294.000000 299.000000 260.000000 -0.010061 277.000000 0.043232 273.000000 0.018781 280.000000 0.017935 12.000000 0.128159 100.000000 0.096860 152.000000 -0.021008
45244.000000 0.695883 299.000000 278.000000 179.000000 0.043230 200.000000 0.073449 225.000000 0.026883 260.000000 0.041644 24.000000 -0.118488 96.000000 0.091185 107.000000 0.059068
46679.000000 0.679377 298.000000 299.000000 178.000000 -0.005593 215.000000 0.044578 230.000000 -0.011363 290.000000 0.288512 21.000000 -0.100966 101.000000 0.098348 115.000000 0.015698
46978.000000 0.706239 299.000000 291.000000 145.000000 0.002128 185.000000 0.059150 196.000000 0.033854 281.000000 0.191866 11.000000 0.173949 100.000000 0.113298 125.000000 0.032660
47561.000000 0.695803 292.000000 280.000000 184.000000 0.009326 214.000000 0.043793 224.000000 -0.045799 263.000000 -0.006659 20.000000 -0.097784 94.000000 0.070322 137.000000 -0.011233
47841.000000 0.715517 280.000000 276.000000 149.000000 0.035584 174.000000 0.062871 183.000000 0.034140 256.000000 -0.017474 24.000000 -0.138135 91.000000 0.145393 127.000000 0.050570
48405.000000 0.731773 288.000000 304.000000 205.000000 -0.011661 252.000000 0.033230 276.000000 0.021758 285.000000 0.024438 23.000000 -0.103003 102.000000 0.074478 112.000000 0.028254
48709.000000 0.720208 304.000000 295.000000 155.000000 0.002113 188.000000 0.071393 207.000000 0.044528 291.000000 0.530482 29.000000 -0.163226 99.000000 0.116623 107.000000 0.020620
49004.000000 0.617441 295.000000 289.000000 243.000000 -0.007290 265.000000 0.028132 264.000000 0.012929 271.000000 0.024274 9.000000 0.212521 97.000000 0.087913 143.000000 -0.028183
49293.000000 0.712363 289.000000 286.000000 147.000000 -0.017794 197.000000 0.038665 213.000000 -0.008106 271.000000 -0.012602 23.000000 -0.113733 97.000000 0.092209 147.000000 -0.017794
49579.000000 0.709124 286.000000 280.000000 177.000000 0.037199 199.000000 0.072762 205.000000 0.060536 264.000000 0.032230 24.000000 -0.141359 92.000000 0.085008 137.000000 -0.024037
50143.000000 0.702580 284.000000 275.000000 153.000000 -0.027749 194.000000 0.039888 212.000000 0.006489 268.000000 0.291963 24.000000 -0.149536 91.000000 0.100591 131.000000 -0.006715
51313.000000 0.725265 299.000000 285.000000 161.000000 0.021840 195.000000 0.069311 221.000000 0.021566 267.000000 -0.008609 24.000000 -0.150895 93.000000 0.104130 142.000000 -0.008127
52161.000000 0.696001 278.000000 281.000000 177.000000 0.020129 203.000000 0.039780 228.000000 -0.011617 264.000000 -0.015611 20.000000 -0.091068 95.000000 0.126297 153.000000 -0.007642
52724.000000 0.699462 282.000000 288.000000 191.000000 0.013852 227.000000 0.058040 233.000000 0.031364 279.000000 0.281157 22.000000 -0.117623 100.000000 0.091984 150.000000 -0.026385
53012.000000 0.697286 288.000000 306.000000 252.000000 0.003374 275.000000 0.021037 287.000000 0.007259 298.000000 0.303465 10.000000 0.203414 103.000000 0.116261 122.000000 0.034616
53318.000000 0.669265 306.000000 297.000000 239.000000 -0.012256 270.000000 0.026443 274.000000 0.001084 280.000000 -0.039919 22.000000 -0.094075 102.000000 0.110038 120.000000 0.053737
53615.000000 0.696805 297.000000 279.000000 160.000000 0.028052 183.000000 0.060282 215.000000 0.015915 261.000000 0.004844 8.000000 0.380052 104.000000 0.112938 142.000000 -0.001482
54174.000000 0.709391 280.000000 277.000000 150.000000 -0.013406 175.000000 0.036251 235.000000 0.002320 259.000000 -0.015325 14.000000 0.000314 92.000000 0.095495 102.000000 0.059508
54451.000000 0.731085 277.000000 282.000000 183.000000 -0.027331 210.000000 0.037965 218.000000 0.013528 264.000000 0.044782 20.000000 -0.093178 92.000000 0.079823 107.000000 0.042112
54733.000000 0.712052 282.000000 288.000000 195.000000 -0.000677 216.000000 0.029919 225.000000 -0.007151 277.000000 0.152392 22.000000 -0.104392 97.000000 0.128489 151.000000 -0.015990
55315.000000 0.697146 294.000000 303.000000 175.000000 0.008914 209.000000 0.034103 230.000000 -0.008560 293.000000 0.204768 25.000000 -0.127307 103.000000 0.096563 130.000000 0.033741
55618.000000 0.688812 303.000000 295.000000 150.000000 -0.005523 178.000000 0.052992 196.000000 0.032570 284.000000 0.230154 20.000000 -0.078930 105.000000 0.119945 150.000000 -0.005523
56192.000000 0.682725 279.000000 277.000000 178.000000 0.019680 203.000000 0.045872 215.000000 0.026860 260.000000 -0.025112 22.000000 -0.096053 95.000000 0.091106 153.000000 -0.036342
56469.000000 0.712852 277.000000 274.000000 155.000000 0.006966 172.000000 0.069204 178.000000 0.054454 265.000000 0.238523 17.000000 -0.054401 94.000000 0.090702 126.000000 0.005465
56743.000000 0.626155 274.000000 292.000000 206.000000 0.002162 227.000000 0.034403 236.000000 -0.003935 275.000000 -0.013671 21.000000 -0.117356 103.000000 0.115185 151.000000 -0.014657
57035.000000 0.713633 292.000000 295.000000 172.000000 -0.010036 223.000000 0.044339 245.000000 0.002677 282.000000 -0.086630 24.000000 -0.123752 103.000000 0.099730 119.000000 0.012504
57922.000000 0.714792 300.000000 293.000000 250.000000 -0.029234 272.000000 0.042333 273.000000 0.042223 276.000000 -0.023011 15.000000 0.006265 103.000000 0.100339 154.000000 -0.003846
58215.000000 0.740643 293.000000 276.000000 151.000000 0.004007 171.000000 0.061268 182.000000 0.050533 268.000000 0.265875 20.000000 -0.095376 94.000000 0.134962 151.000000 0.004007
58491.000000 0.634009 276.000000 274.000000 175.000000 0.001800 195.000000 0.052020 217.000000 0.011629 258.000000 -0.013433 9.000000 0.127426 94.000000 0.124529 149.000000 -0.008668
59044.000000 0.753448 279.000000 292.000000 188.000000 0.008466 225.000000 0.053419 237.000000 0.008434 284.000000 0.350312 24.000000 -0.126083 103.000000 0.105778 124.000000 0.011925
59336.000000 0.696768 292.000000 303.000000 257.000000 -0.003477 280.000000 0.028531 276.000000 0.003516 283.000000 -0.006469 26.000000 -0.133246 106.000000 0.115378 153.000000 -0.008650
59933.000000 0.759168 294.000000 291.000000 240.000000 0.021476 264.000000 0.047963 270.000000 0.034373 274.000000 0.005125 24.000000 -0.125050 97.000000 0.109316 117.000000 0.026560
60224.000000 0.673023 291.000000 291.000000 181.000000 -0.003571 207.000000 0.024707 216.000000 -0.010904 274.000000 -0.001819 25.000000 -0.137305 105.000000 0.115835 122.000000 0.045098
60515.000000 0.691458 291.000000 276.000000 177.000000 0.002746 210.000000 0.022699 221.000000 0.005128 258.000000 -0.006333 24.000000 -0.130079 95.000000 0.114849 148.000000 -0.020230
60791.000000 0.757224 276.000000 272.000000 156.000000 -0.044469 193.000000 0.059074 204.000000 0.027037 254.000000 0.021126 24.000000 -0.135314 96.000000 0.101988 117.000000 0.007458
61349.000000 0.697039 286.000000 298.000000 153.000000 -0.023839 180.000000 0.023338 203.000000 -0.009201 282.000000 -0.015358 21.000000 -0.121098 101.000000 0.108779 124.000000 0.042744
61647.000000 0.742761 298.000000 301.000000 185.000000 0.010739 231.000000 0.053041 249.000000 -0.001677 284.000000 0.031111 22.000000 -0.114058 103.000000 0.120621 123.000000 0.026955
62242.000000 0.671741 294.000000 288.000000 159.000000 -0.001562 186.000000 0.025478 195.000000 0.002625 273.000000 -0.025373 19.000000 -0.077619 101.000000 0.114567 114.000000 0.067921
62825.000000 1.107718 295.000000 288.000000 178.000000 -0.031899 197.000000 0.063777 206.000000 0.053840 275.000000 -0.015311 12.000000 0.447044 20.000000 0.446965 59.000000 -0.130248
64010.000000 1.052517 313.000000 312.000000 176.000000 0.001734 194.000000 0.021048 232.000000 -0.056722 301.000000 -0.061580 10.000000 0.407832 20.000000 0.433288 38.000000 -0.140561
64322.000000 1.089141 312.000000 297.000000 162.000000 -0.039771 194.000000 0.040180 208.000000 -0.011045 281.000000 -0.054434 8.000000 0.424831 20.000000 0.414471 36.000000 -0.232112
64907.000000 0.970924 288.000000 296.000000 160.000000 -0.027940 190.000000 0.010179 215.000000 -0.050685 279.000000 -0.037887 14.000000 0.449264 20.000000 0.425127 42.000000 -0.183272
65781.000000 1.085988 288.000000 303.000000 92.000000 -0.206909 188.000000 0.023043 208.000000 -0.031285 290.000000 -0.076572 11.000000 0.488197 20.000000 0.454216 38.000000 -0.135313
66396.000000 1.083983 312.000000 305.000000 174.000000 -0.025194 195.000000 0.018882 233.000000 -0.050961 293.000000 -0.045047 17.000000 0.464061 20.000000 0.459673 51.000000 -0.134494
66990.000000 1.149577 289.000000 289.000000 157.000000 -0.035207 184.000000 0.009935 232.000000 -0.069498 277.000000 -0.056993 10.000000 0.422540 20.000000 0.314562 36.000000 -0.308664
67872.000000 1.017148 295.000000 300.000000 166.000000 -0.006311 188.000000 0.026792 242.000000 -0.057368 288.000000 -0.059516 13.000000 0.456377 20.000000 0.394684 42.000000 -0.260190
68172.000000 1.030231 300.000000 306.000000 79.000000 -0.200656 187.000000 0.014637 208.000000 -0.015361 295.000000 -0.043225 13.000000 0.509666 20.000000 0.471470 61.000000 -0.234467
69656.000000 1.044561 290.000000 297.000000 165.000000 -0.066168 194.000000 -0.013625 200.000000 -0.031180 285.000000 -0.057586 15.000000 0.453434 20.000000 0.567839 51.000000 -0.209792
70253.000000 1.108114 300.000000 304.000000 157.000000 -0.097010 189.000000 0.010769 210.000000 -0.051331 290.000000 -0.041785 28.000000 0.378490 20.000000 0.613756 69.000000 -0.159428
70557.000000 1.035048 304.000000 303.000000 169.000000 -0.015523 194.000000 0.039007 206.000000 -0.012089 288.000000 -0.047067 13.000000 0.397635 20.000000 0.346021 41.000000 -0.218728
72036.000000 1.109280 294.000000 306.000000 179.000000 -0.027766 200.000000 0.035100 224.000000 -0.049747 291.000000 -0.072824 12.000000 0.409234 20.000000 0.389031 42.000000 -0.193558
73248.000000 1.017900 299.000000 295.000000 165.000000 0.018444 192.000000 0.045625 250.000000 -0.084326 281.000000 -0.064076 14.000000 0.373166 20.000000 0.312712 41.000000 -0.288289
74730.000000 1.053539 313.000000 302.000000 90.000000 -0.142598 187.000000 0.024564 201.000000 -0.021078 290.000000 -0.076582 8.000000 0.429574 20.000000 0.488996 59.000000 -0.207693
75333.000000 1.154528 301.000000 293.000000 159.000000 -0.074627 189.000000 -0.014818 225.000000 -0.070645 277.000000 -0.107636 15.000000 0.574338 20.000000 0.595748 54.000000 -0.213232
75920.000000 0.991663 294.000000 289.000000 156.000000 -0.074986 183.000000 0.008338 208.000000 -0.080376 275.000000 -0.088055 11.000000 0.398576 20.000000 0.340159 43.000000 -0.225797
76500.000000 1.115630 291.000000 310.000000 165.000000 -0.022098 186.000000 0.012918 258.000000 -0.067523 298.000000 -0.044713 15.000000 0.469608 20.000000 0.490344 56.000000 -0.215536
76810.000000 1.058233 310.000000 309.000000 164.000000 0.021515 189.000000 0.015563 196.000000 -0.028951 299.000000 -0.058855 13.000000 0.441164 20.000000 0.420239 43.000000 -0.211420
78294.000000 1.128400 294.000000 291.000000 158.000000 -0.081056 182.000000 0.010153 221.000000 -0.053841 275.000000 -0.062820 15.000000 0.488667 23.000000 0.610203 60.000000 -0.223825
78585.000000 1.048292 291.000000 298.000000 157.000000 -0.011761 182.000000 0.004542 226.000000 -0.077587 282.000000 -0.083979 15.000000 0.294968 20.000000 0.335203 36.000000 -0.274733
80094.000000 1.159985 291.000000 286.000000 155.000000 -0.089118 191.000000 -0.011376 208.000000 -0.060925 273.000000 -0.089861 17.000000 0.554075 23.000000 0.559669 46.000000 -0.182635
80380.000000 1.078307 286.000000 297.000000 164.000000 -0.039811 187.000000 -0.018919 197.000000 -0.048981 282.000000 -0.089324 14.000000 0.512338 21.000000 0.636476 58.000000 -0.225925
80976.000000 1.094770 299.000000 301.000000 160.000000 -0.002828 187.000000 0.005702 210.000000 -0.035048 285.000000 -0.068789 10.000000 0.342027 20.000000 0.323467 35.000000 -0.269167
82466.000000 1.060426 288.000000 290.000000 156.000000 -0.070552 189.000000 -0.014640 224.000000 -0.058245 277.000000 -0.048717 16.000000 0.543956 20.000000 0.594787 51.000000 -0.175892
82756.000000 1.034482 290.000000 305.000000 170.000000 -0.024738 192.000000 0.009713 235.000000 -0.048887 293.000000 -0.049950 13.000000 0.447510 23.000000 0.498703 60.000000 -0.202148
83061.000000 0.995317 305.000000 305.000000 84.000000 -0.123841 188.000000 -0.000648 209.000000 -0.078077 289.000000 -0.044657 12.000000 0.365144 20.000000 0.275065 45.000000 -0.144778
83366.000000 0.977428 305.000000 302.000000 98.000000 -0.099201 189.000000 -0.008297 199.000000 -0.056163 289.000000 -0.061503 14.000000 0.423088 20.000000 0.418402 47.000000 -0.221814
85142.000000 1.082021 295.000000 310.000000 80.000000 -0.149467 188.000000 0.008260 226.000000 -0.063291 296.000000 -0.047255 16.000000 0.376725 20.000000 0.416365 42.000000 -0.274072
85452.000000 1.072339 310.000000 304.000000 92.000000 -0.223337 184.000000 0.006400 238.000000 -0.066065 293.000000 -0.046208 14.000000 0.460114 20.000000 0.431037 50.000000 -0.109251
85756.000000 1.080563 304.000000 299.000000 166.000000 -0.029111 192.000000 -0.004706 199.000000 -0.051540 283.000000 -0.061644 11.000000 0.426850 20.000000 0.427399 53.000000 -0.146019
86055.000000 0.964612 299.000000 304.000000 156.000000 0.032411 187.000000 -0.024421 243.000000 -0.114919 292.000000 -0.066519 12.000000 0.385915 20.000000 0.299332 38.000000 -0.308019
86359.000000 1.012840 304.000000 290.000000 158.000000 -0.017313 188.000000 0.053875 241.000000 -0.085221 277.000000 -0.065332 14.000000 0.455267 20.000000 0.441144 41.000000 -0.139265
86933.000000 1.053026 284.000000 293.000000 163.000000 -0.046598 184.000000 0.006472 223.000000 -0.049576 280.000000 -0.074447 16.000000 0.537085 22.000000 0.633041 47.000000 -0.182668
87531.000000 1.084391 305.000000 314.000000 172.000000 -0.026063 198.000000 -0.023932 229.000000 -0.087537 299.000000 -0.067614 13.000000 0.386179 20.000000 0.322308 38.000000 -0.184450
89314.000000 1.133259 286.000000 297.000000 157.000000 -0.070809 197.000000 0.023716 218.000000 -0.055502 285.000000 -0.055657 12.000000 0.435346 20.000000 0.460722 65.000000 -0.192083
90233.000000 1.080734 315.000000 295.000000 163.000000 -0.050414 185.000000 0.014026 198.000000 -0.006977 279.000000 -0.062489 10.000000 0.451693 20.000000 0.411773 74.000000 -0.207913
91697.000000 1.193451 292.000000 306.000000 88.000000 -0.235283 185.000000 0.020004 231.000000 -0.032773 298.000000 -0.010954 11.000000 0.516710 21.000000 0.443150 37.000000 -0.115458
92310.000000 1.020379 307.000000 309.000000 175.000000 -0.017986 194.000000 0.046264 202.000000 0.010417 296.000000 -0.028343 8.000000 0.424501 20.000000 0.437685 41.000000 -0.202110
92619.000000 1.031910 309.000000 288.000000 158.000000 -0.024354 186.000000 0.033387 219.000000 -0.040073 274.000000 -0.050373 10.000000 0.459793 20.000000 0.426579 35.000000 -0.121039
96775.000000 1.101048 304.000000 301.000000 87.000000 -0.078683 181.000000 -0.011773 207.000000 -0.076399 289.000000 -0.057037 12.000000 0.479573 20.000000 0.451001 44.000000 -0.280688
97368.000000 1.139749 292.000000 284.000000 155.000000 -0.076158 182.000000 -0.006441 191.000000 -0.060688 275.000000 -0.035144 11.000000 0.454026 20.000000 0.481174 41.000000 -0.227117
98249.000000 1.169248 309.000000 309.000000 171.000000 -0.018878 189.000000 -0.025444 215.000000 -0.042842 297.000000 -0.011870 15.000000 0.418073 20.000000 0.402196 34.000000 -0.234936
99155.000000 1.023354 300.000000 296.000000 169.000000 -0.000407 195.000000 0.024438 200.000000 0.003105 283.000000 -0.085179 16.000000 0.390533 21.000000 0.429641 57.000000 -0.218179
101242.000000 1.133749 298.000000 290.000000 160.000000 -0.017246 177.000000 0.003413 188.000000 -0.016521 279.000000 -0.031460 13.000000 0.452935 21.000000 0.419956 46.000000 -0.175094
102113.000000 1.115675 290.000000 290.000000 168.000000 -0.031267 189.000000 0.010128 214.000000 -0.056141 279.000000 -0.053482 12.000000 0.476900 20.000000 0.384909 43.000000 -0.253467
103327.000000 1.096537 303.000000 294.000000 157.000000 -0.020176 179.000000 0.024181 194.000000 -0.002524 280.000000 -0.079904 12.000000 0.469546 20.000000 0.425658 48.000000 -0.092678
105995.000000 0.976811 287.000000 286.000000 217.000000 -0.089142 235.000000 -0.021430 245.000000 -0.065160 272.000000 -0.072165 5.000000 0.338331 20.000000 0.596152 68.000000 -0.167468
106281.000000 0.965314 286.000000 297.000000 221.000000 -0.061674 244.000000 0.008282 270.000000 -0.049604 287.000000 -0.039607 9.000000 0.429140 21.000000 0.596743 60.000000 -0.156487
106578.000000 1.021615 297.000000 301.000000 220.000000 -0.059782 240.000000 0.000753 259.000000 -0.060250 286.000000 -0.056190 9.000000 0.417446 25.000000 0.589684 87.000000 -0.267674
108964.000000 0.979202 302.000000 304.000000 162.000000 -0.054305 194.000000 0.005443 208.000000 -0.032206 291.000000 -0.020058 19.000000 0.334453 20.000000 0.319280 35.000000 -0.347915
109268.000000 1.074189 304.000000 302.000000 165.000000 -0.005975 191.000000 0.019451 227.000000 -0.056662 292.000000 -0.042731 9.000000 0.426821 20.000000 0.418279 39.000000 -0.268554
110457.000000 1.022400 284.000000 290.000000 156.000000 -0.034519 176.000000 0.024010 206.000000 -0.024653 279.000000 -0.054688 13.000000 0.404376 20.000000 0.339847 41.000000 -0.189293
113430.000000 1.147710 301.000000 314.000000 47.000000 -0.269865 196.000000 -0.023144 246.000000 -0.103744 297.000000 -0.026316 8.000000 0.408039 23.000000 0.493977 49.000000 -0.254724
114639.000000 1.087634 299.000000 292.000000 211.000000 -0.057521 235.000000 -0.001688 252.000000 -0.070057 278.000000 -0.044245 12.000000 0.490470 20.000000 0.641833 33.000000 0.254199
114931.000000 1.107618 292.000000 285.000000 198.000000 -0.057664 219.000000 0.031506 236.000000 -0.074920 271.000000 -0.064525 17.000000 0.470656 23.000000 0.650154 68.000000 -0.221232
116139.000000 1.069421 312.000000 297.000000 166.000000 -0.046316 199.000000 -0.019059 218.000000 -0.066926 286.000000 -0.041455 14.000000 0.460582 20.000000 0.568779 53.000000 -0.209218
117600.000000 1.095203 292.000000 305.000000 162.000000 -0.048988 191.000000 0.005715 201.000000 -0.037623 295.000000 -0.037819 11.000000 0.386207 20.000000 0.285722 41.000000 -0.216468
118811.000000 0.970296 291.000000 283.000000 151.000000 -0.059471 189.000000 -0.002933 228.000000 -0.067474 272.000000 -0.074339 15.000000 0.488981 20.000000 0.486146 45.000000 -0.214089
119691.000000 0.993637 298.000000 300.000000 160.000000 -0.081669 187.000000 -0.005676 219.000000 -0.058306 289.000000 -0.022895 12.000000 0.494547 20.000000 0.607651 55.000000 -0.196329
120298.000000 1.106473 307.000000 305.000000 173.000000 0.003977 192.000000 0.006094 216.000000 -0.044831 293.000000 -0.024297 9.000000 0.404671 20.000000 0.402353 39.000000 -0.306203
120603.000000 1.041002 305.000000 300.000000 81.000000 -0.138639 181.000000 0.004891 232.000000 -0.067976 287.000000 -0.057928 9.000000 0.449090 20.000000 0.452539 38.000000 -0.167981
121471.000000 1.046833 283.000000 301.000000 162.000000 -0.046210 193.000000 0.012711 233.000000 -0.058826 286.000000 -0.052840 10.000000 0.466267 20.000000 0.599637 56.000000 -0.206789
122075.000000 1.076049 303.000000 304.000000 93.000000 -0.121445 183.000000 0.016345 244.000000 -0.066976 291.000000 -0.069221 10.000000 0.444465 21.000000 0.413368 37.000000 -0.247995
123281.000000 0.961222 299.000000 571.000000 334.000000 -0.158438 401.000000 0.101088 441.000000 -0.071166 557.000000 -0.010377 13.000000 0.479653 284.000000 0.995346 334.000000 -0.158438
124767.000000 1.103854 299.000000 298.000000 99.000000 -0.161726 179.000000 0.008865 208.000000 -0.027103 287.000000 -0.038639 15.000000 0.417912 20.000000 0.429245 47.000000 -0.143854
128025.000000 1.017712 291.000000 292.000000 159.000000 -0.039565 191.000000 0.009466 255.000000 -0.077666 276.000000 -0.022051 13.000000 0.497823 20.000000 0.582383 57.000000 -0.220216
128317.000000 1.116254 292.000000 304.000000 159.000000 -0.054966 187.000000 -0.001630 247.000000 -0.051303 291.000000 -0.035847 15.000000 0.497474 20.000000 0.589025 51.000000 -0.207639
128621.000000 1.082774 304.000000 314.000000 178.000000 -0.003060 195.000000 0.039887 226.000000 -0.026300 298.000000 -0.049388 11.000000 0.440831 20.000000 0.499202 49.000000 -0.125309
128935.000000 1.021444 314.000000 303.000000 167.000000 0.017712 192.000000 0.039230 246.000000 -0.052507 291.000000 -0.065282 12.000000 0.448965 20.000000 0.427679 41.000000 -0.271131
129528.000000 1.000189 290.000000 286.000000 155.000000 -0.071700 187.000000 -0.001239 203.000000 -0.086505 270.000000 -0.076770 9.000000 0.361475 20.000000 0.298152 33.000000 -0.190889
129814.000000 1.058040 286.000000 292.000000 160.000000 -0.028012 184.000000 -0.016366 186.000000 -0.034360 278.000000 -0.088605 15.000000 0.398651 20.000000 0.420079 42.000000 -0.245656
130106.000000 1.059813 292.000000 294.000000 168.000000 -0.020127 204.000000 0.010044 245.000000 -0.091177 281.000000 -0.069277 11.000000 0.470771 20.000000 0.438344 38.000000 -0.173225
131623.000000 1.049451 299.000000 283.000000 154.000000 -0.038975 174.000000 0.005632 206.000000 -0.037364 270.000000 -0.055044 14.000000 0.430485 20.000000 0.430468 39.000000 -0.284361
132192.000000 1.061408 286.000000 295.000000 168.000000 -0.029804 188.000000 0.038459 227.000000 -0.108119 281.000000 -0.090311 14.000000 0.375060 20.000000 0.320859 43.000000 -0.159217
132487.000000 1.141978 295.000000 300.000000 224.000000 -0.064784 246.000000 0.027064 263.000000 -0.073546 286.000000 -0.074000 15.000000 0.393120 20.000000 0.387634 48.000000 -0.144028
132787.000000 1.123399 300.000000 302.000000 168.000000 -0.030951 198.000000 -0.007755 213.000000 -0.055093 288.000000 -0.032459 18.000000 0.561109 20.000000 0.571203 49.000000 -0.190596
133089.000000 1.127306 302.000000 309.000000 163.000000 -0.057687 190.000000 0.000022 202.000000 -0.014711 298.000000 -0.015441 16.000000 0.516570 22.000000 0.592559 67.000000 -0.216626
133992.000000 1.036788 287.000000 283.000000 162.000000 -0.032746 181.000000 0.012537 189.000000 -0.012950 274.000000 -0.068559 7.000000 0.426899 20.000000 0.384641 37.000000 -0.207665
136945.000000 1.148435 293.000000 309.000000 89.000000 -0.099780 191.000000 -0.001760 238.000000 -0.090156 296.000000 -0.054149 12.000000 0.505614 20.000000 0.386068 40.000000 -0.377534
137254.000000 1.048296 309.000000 309.000000 200.000000 0.019557 218.000000 0.045123 255.000000 -0.082760 294.000000 -0.073307 17.000000 0.420475 20.000000 0.470365 50.000000 -0.152414
137563.000000 0.978168 309.000000 301.000000 162.000000 -0.037319 198.000000 0.041961 220.000000 -0.032128 285.000000 -0.056145 13.000000 0.408888 23.000000 0.353527 48.000000 -0.192320
138456.000000 1.155597 293.000000 285.000000 177.000000 -0.009042 197.000000 0.012807 246.000000 -0.060702 274.000000 -0.067236 11.000000 0.401537 20.000000 0.416708 51.000000 -0.161413
139033.000000 1.036693 292.000000 303.000000 175.000000 -0.026211 191.000000 0.007739 195.000000 -0.013687 293.000000 -0.024519 10.000000 0.425912 20.000000 0.418797 40.000000 -0.162364
139336.000000 1.005968 303.000000 316.000000 172.000000 -0.029895 199.000000 -0.025284 222.000000 -0.087697 302.000000 -0.026424 8.000000 0.371534 20.000000 0.361473 36.000000 -0.278668
140546.000000 0.942901 296.000000 290.000000 213.000000 -0.027880 231.000000 0.029295 247.000000 -0.077255 278.000000 -0.068465 14.000000 0.377648 20.000000 0.381959 41.000000 -0.155581
141120.000000 0.972789 284.000000 297.000000 154.000000 -0.051221 191.000000 0.013230 234.000000 -0.053466 285.000000 -0.061380 17.000000 0.543932 22.000000 0.590264 58.000000 -0.246446
141417.000000 0.988807 297.000000 307.000000 158.000000 0.015598 187.000000 0.016727 195.000000 0.007495 294.000000 -0.052224 12.000000 0.417570 20.000000 0.406788 43.000000 -0.219921
141724.000000 0.941851 307.000000 312.000000 100.000000 -0.238698 188.000000 0.018314 250.000000 -0.059955 296.000000 -0.039968 16.000000 0.435407 20.000000 0.446473 49.000000 -0.142400
142036.000000 1.017509 312.000000 299.000000 163.000000 -0.026422 188.000000 0.008560 213.000000 -0.063179 283.000000 -0.073946 18.000000 0.444028 20.000000 0.459249 57.000000 -0.142475
143812.000000 0.992210 308.000000 306.000000 183.000000 -0.043822 205.000000 -0.016205 245.000000 -0.088946 292.000000 -0.042083 15.000000 0.520658 21.000000 0.611833 57.000000 -0.186600
144428.000000 1.109467 310.000000 290.000000 155.000000 -0.036823 184.000000 0.026157 216.000000 -0.036883 278.000000 -0.032009 11.000000 0.455284 20.000000 0.440473 37.000000 -0.188258
144718.000000 1.119497 290.000000 282.000000 155.000000 -0.052885 181.000000 0.024140 199.000000 -0.032615 273.000000 -0.043272 14.000000 0.446049 20.000000 0.421145 41.000000 -0.193852
145297.000000 0.985394 297.000000 294.000000 168.000000 -0.053282 190.000000 -0.020613 204.000000 -0.050737 279.000000 -0.052444 11.000000 0.484141 20.000000 0.406617 45.000000 -0.232173
145891.000000 1.050849 300.000000 310.000000 109.000000 -0.033090 186.000000 -0.037293 214.000000 -0.084095 297.000000 -0.046805 12.000000 0.397182 20.000000 0.377935 46.000000 -0.108055
146201.000000 1.086831 310.000000 305.000000 177.000000 -0.037404 199.000000 0.030043 221.000000 -0.056913 290.000000 -0.072773 11.000000 0.434026 20.000000 0.454295 48.000000 -0.127978
146506.000000 1.015379 305.000000 304.000000 170.000000 -0.001390 188.000000 0.010491 223.000000 -0.042706 293.000000 -0.055780 12.000000 0.413308 20.000000 0.351581 42.000000 -0.188358
149186.000000 1.029673 295.000000 283.000000 154.000000 -0.076484 190.000000 0.009108 210.000000 -0.039343 266.000000 -0.076225 12.000000 0.450990 21.000000 0.506759 45.000000 -0.202895
150375.000000 1.112007 310.000000 301.000000 92.000000 -0.232771 181.000000 0.006573 234.000000 -0.057680 287.000000 -0.052117 14.000000 0.480171 20.000000 0.441252 51.000000 -0.093464
150978.000000 1.155426 302.000000 292.000000 63.000000 -0.090578 178.000000 0.001524 220.000000 -0.064106 278.000000 -0.056693 9.000000 0.391114 20.000000 0.265610 33.000000 -0.265173
152458.000000 1.137490 317.000000 306.000000 166.000000 -0.021215 188.000000 0.033095 194.000000 0.005494 294.000000 -0.059827 10.000000 0.441786 20.000000 0.470610 37.000000 -0.101114
153353.000000 1.060410 292.000000 287.000000 118.000000 0.128995 173.000000 -0.030644 178.000000 -0.053278 272.000000 -0.055565 11.000000 0.397523 20.000000 0.193478 43.000000 -0.059391
153640.000000 1.099936 287.000000 293.000000 189.000000 -0.001383 210.000000 0.037127 249.000000 -0.116744 281.000000 -0.096149 11.000000 0.451033 20.000000 0.462098 45.000000 -0.186036
154226.000000 0.958229 293.000000 302.000000 164.000000 -0.035711 194.000000 0.019073 209.000000 -0.048357 288.000000 -0.056977 17.000000 0.555502 21.000000 0.650755 57.000000 -0.251203
154528.000000 1.032568 302.000000 320.000000 81.000000 -0.174984 192.000000 0.029045 254.000000 -0.069668 304.000000 -0.047960 17.000000 0.427302 20.000000 0.462193 45.000000 -0.247284
154848.000000 1.055662 320.000000 304.000000 172.000000 -0.002333 196.000000 0.020772 233.000000 -0.036123 287.000000 -0.063851 15.000000 0.448466 20.000000 0.424311 44.000000 -0.216507
156615.000000 1.084926 299.000000 306.000000 82.000000 -0.145768 186.000000 0.030480 239.000000 -0.089203 293.000000 -0.049938 14.000000 0.451773 20.000000 0.436914 45.000000 -0.201269
156921.000000 1.042570 306.000000 314.000000 241.000000 -0.053307 276.000000 0.025799 294.000000 -0.065753 298.000000 -0.116080 15.000000 0.448417 20.000000 0.443496 46.000000 -0.187508
158099.000000 1.086035 287.000000 294.000000 157.000000 -0.009835 179.000000 0.023063 235.000000 -0.059118 283.000000 -0.067253 9.000000 0.437854 21.000000 0.368495 36.000000 -0.237119
159310.000000 1.078835 309.000000 307.000000 171.000000 -0.048975 204.000000 0.019172 244.000000 -0.033273 295.000000 -0.008932 13.000000 0.518304 22.000000 0.611691 49.000000 -0.211081
159905.000000 1.111081 288.000000 282.000000 150.000000 -0.025741 171.000000 0.020872 230.000000 -0.071534 266.000000 -0.077020 14.000000 0.396471 20.000000 0.471219 40.000000 -0.253843
160476.000000 1.073965 289.000000 302.000000 160.000000 -0.034036 189.000000 0.011712 198.000000 -0.036800 290.000000 -0.051425 14.000000 0.407319 20.000000 0.368338 39.000000 -0.145547
161990.000000 1.110707 297.000000 285.000000 155.000000 -0.080828 198.000000 0.024844 209.000000 -0.007474 276.000000 -0.025093 10.000000 0.485503 20.000000 0.658953 57.000000 -0.261001
163478.000000 1.054812 309.000000 298.000000 161.000000 -0.053488 187.000000 0.008830 192.000000 -0.007047 285.000000 -0.056252 13.000000 0.390329 20.000000 0.284921 38.000000 -0.261476
164942.000000 1.069746 290.000000 299.000000 163.000000 -0.013268 193.000000 0.028913 208.000000 -0.030224 287.000000 -0.026881 13.000000 0.437585 20.000000 0.428417 41.000000 -0.149918
165556.000000 1.064063 315.000000 304.000000 172.000000 -0.003167 190.000000 0.024625 242.000000 -0.049310 290.000000 -0.038805 15.000000 0.476571 20.000000 0.452402 53.000000 -0.103366
166745.000000 1.077558 293.000000 286.000000 156.000000 -0.063350 189.000000 0.003627 213.000000 -0.056172 271.000000 -0.093447 15.000000 0.432133 21.000000 0.438010 42.000000 -0.103074
167031.000000 1.041724 286.000000 299.000000 162.000000 -0.064548 205.000000 0.004482 222.000000 -0.017980 284.000000 0.008526 15.000000 0.523870 22.000000 0.564481 54.000000 -0.154942
168247.000000 1.101446 299.000000 284.000000 157.000000 -0.035486 187.000000 -0.006206 237.000000 -0.077692 270.000000 -0.060497 13.000000 0.479689 20.000000 0.436131 40.000000 -0.216377
168827.000000 1.013197 296.000000 290.000000 164.000000 -0.015222 187.000000 0.014262 211.000000 -0.035895 277.000000 -0.030847 15.000000 0.426301 20.000000 0.446458 51.000000 -0.148888
169408.000000 1.048306 291.000000 306.000000 180.000000 -0.010996 214.000000 0.014972 255.000000 -0.081253 295.000000 -0.071097 15.000000 0.447114 21.000000 0.443414 41.000000 -0.134817
170021.000000 1.008263 307.000000 310.000000 170.000000 -0.034374 195.000000 0.008131 219.000000 -0.040033 298.000000 -0.043870 16.000000 0.542575 20.000000 0.618452 54.000000 -0.214043
170625.000000 1.078920 294.000000 283.000000 155.000000 -0.055038 190.000000 -0.005147 194.000000 -0.032952 274.000000 0.017929 13.000000 0.399436 22.000000 0.454734 44.000000 -0.199353
170908.000000 1.156739 283.000000 298.000000 160.000000 -0.021294 183.000000 0.030841 236.000000 -0.035033 283.000000 -0.054315 10.000000 0.435926 20.000000 0.453482 59.000000 -0.219509
173001.000000 1.074394 286.000000 282.000000 151.000000 -0.068102 190.000000 0.003779 224.000000 -0.061942 268.000000 -0.022304 4.000000 0.355585 20.000000 0.543920 73.000000 -0.209048
173283.000000 1.113871 282.000000 301.000000 165.000000 -0.041476 196.000000 -0.010300 252.000000 -0.075392 289.000000 -0.062462 15.000000 0.511675 21.000000 0.627600 44.000000 -0.228651
173887.000000 1.108006 303.000000 301.000000 160.000000 -0.038512 186.000000 0.002210 217.000000 -0.049342 288.000000 -0.043406 9.000000 0.424605 20.000000 0.416140 37.000000 -0.136322
174188.000000 1.149150 301.000000 306.000000 100.000000 -0.068103 185.000000 -0.017131 206.000000 -0.088322 292.000000 -0.054382 13.000000 0.455592 21.000000 0.420732 46.000000 -0.171979
175090.000000 1.122132 296.000000 286.000000 158.000000 -0.023145 183.000000 0.001181 206.000000 -0.042299 272.000000 -0.088635 14.000000 0.438430 20.000000 0.362959 47.000000 -0.184785
175662.000000 1.213088 286.000000 309.000000 157.000000 -0.017057 187.000000 0.005938 204.000000 -0.026274 294.000000 -0.049314 12.000000 0.458417 21.000000 0.478103 58.000000 -0.233562
175971.000000 1.090061 309.000000 305.000000 56.000000 -0.231598 184.000000 -0.000016 190.000000 -0.010189 287.000000 -0.077725 9.000000 0.469577 21.000000 0.453843 56.000000 -0.231598
178041.000000 1.115140 294.000000 316.000000 98.000000 -0.234260 190.000000 0.016642 200.000000 0.003603 302.000000 -0.024716 19.000000 0.563434 22.000000 0.623936 60.000000 -0.224743
178667.000000 1.037854 310.000000 298.000000 168.000000 -0.025512 188.000000 0.022182 199.000000 -0.020232 286.000000 -0.049141 14.000000 0.352554 20.000000 0.282005 37.000000 -0.188433
181343.000000 1.026869 288.000000 287.000000 159.000000 -0.025515 188.000000 0.006822 208.000000 -0.035497 275.000000 -0.042427 14.000000 0.431694 20.000000 0.413104 47.000000 -0.143463
182516.000000 1.040363 300.000000 312.000000 171.000000 -0.011789 195.000000 0.015860 206.000000 -0.032055 298.000000 -0.021864 12.000000 0.428967 22.000000 0.525926 60.000000 -0.237163
182828.000000 1.072883 312.000000 314.000000 167.000000 -0.000905 195.000000 0.008108 203.000000 -0.009306 300.000000 -0.095417 18.000000 0.413450 23.000000 0.448841 54.000000 -0.206753
184905.000000 1.117392 303.000000 309.000000 193.000000 -0.024108 218.000000 0.018899 248.000000 -0.085570 298.000000 -0.031558 10.000000 0.459103 20.000000 0.480483 44.000000 -0.169185
187606.000000 1.156852 308.000000 297.000000 167.000000 -0.001062 191.000000 0.055850 240.000000 -0.065205 285.000000 -0.078450 10.000000 0.437054 20.000000 0.462210 37.000000 -0.069797
188763.000000 1.050627 292.000000 310.000000 175.000000 -0.014681 193.000000 0.001933 225.000000 -0.062508 291.000000 -0.082150 11.000000 0.402902 24.000000 0.499848 48.000000 -0.257018
189073.000000 1.100982 310.000000 308.000000 171.000000 -0.012511 195.000000 0.014387 251.000000 -0.063324 292.000000 -0.049466 18.000000 0.471784 21.000000 0.517631 64.000000 -0.252868
189681.000000 1.145860 300.000000 302.000000 167.000000 -0.014132 193.000000 0.000052 205.000000 -0.033492 290.000000 -0.045174 12.000000 0.496862 20.000000 0.436314 42.000000 -0.275363
191468.000000 1.069638 314.000000 304.000000 171.000000 -0.019810 193.000000 0.022182 208.000000 -0.012695 292.000000 -0.066957 16.000000 0.451533 20.000000 0.447065 44.000000 -0.240162
192650.000000 1.083794 289.000000 283.000000 149.000000 -0.103116 200.000000 -0.001719 214.000000 -0.057143 273.000000 -0.053695 15.000000 0.549890 21.000000 0.656834 66.000000 -0.192677
193232.000000 1.265612 299.000000 306.000000 160.000000 -0.020032 187.000000 0.023729 236.000000 -0.050095 292.000000 -0.050266 12.000000 0.481503 20.000000 0.436422 46.000000 -0.133658
194737.000000 1.124071 298.000000 291.000000 185.000000 -0.027982 221.000000 0.036295 227.000000 -0.048673 280.000000 -0.061867 13.000000 0.427599 21.000000 0.443746 42.000000 -0.156142
195028.000000 1.127896 291.000000 292.000000 168.000000 -0.053693 185.000000 -0.021547 209.000000 -0.060260 279.000000 -0.084693 13.000000 0.562943 20.000000 0.584980 49.000000 -0.215896
195320.000000 1.214208 292.000000 306.000000 168.000000 -0.028425 205.000000 0.011632 229.000000 -0.038573 294.000000 -0.046678 15.000000 0.582089 20.000000 0.677636 58.000000 -0.264173
195626.000000 1.284701 306.000000 306.000000 166.000000 -0.034336 193.000000 0.021149 201.000000 -0.017849 294.000000 -0.028184 11.000000 0.450471 20.000000 0.480782 57.000000 -0.232683
196243.000000 1.068704 311.000000 290.000000 155.000000 -0.033469 184.000000 0.020136 223.000000 -0.021350 277.000000 -0.033606 12.000000 0.494582 20.000000 0.434831 44.000000 -0.149674
196813.000000 1.093386 280.000000 298.000000 156.000000 -0.060586 182.000000 -0.020882 186.000000 -0.048749 282.000000 -0.073426 14.000000 0.380190 20.000000 0.280646 35.000000 -0.319338
197111.000000 1.166212 298.000000 296.000000 167.000000 -0.031103 190.000000 0.051737 217.000000 -0.089109 279.000000 -0.058045 14.000000 0.463014 21.000000 0.432904 45.000000 -0.163619
197407.000000 1.127723 296.000000 296.000000 224.000000 -0.059667 248.000000 -0.000356 276.000000 -0.080935 281.000000 -0.096437 16.000000 0.420343 20.000000 0.430594 61.000000 -0.168883
199191.000000 1.097792 570.000000 302.000000 171.000000 -0.048492 191.000000 0.012493 213.000000 -0.079951 287.000000 -0.026283 16.000000 0.481067 21.000000 0.491489 55.000000 -0.182665
200992.000000 0.941238 293.000000 284.000000 145.000000 -0.018477 174.000000 -0.008399 204.000000 -0.080843 271.000000 -0.063917 8.000000 0.342649 20.000000 0.234703 33.000000 -0.148211
201565.000000 0.913162 289.000000 308.000000 170.000000 -0.021667 199.000000 0.024684 221.000000 -0.027758 293.000000 -0.002462 16.000000 0.484169 20.000000 0.540220 58.000000 -0.208082
201873.000000 0.985094 308.000000 307.000000 177.000000 -0.045597 204.000000 0.024827 219.000000 -0.036943 295.000000 -0.044155 14.000000 0.446067 22.000000 0.526929 59.000000 -0.213337
202180.000000 1.002398 307.000000 301.000000 158.000000 -0.024555 184.000000 0.019536 227.000000 -0.056580 288.000000 -0.027473 11.000000 0.397823 20.000000 0.328308 45.000000 -0.119986
203369.000000 0.936965 291.000000 287.000000 156.000000 -0.056968 183.000000 0.020097 244.000000 -0.055163 271.000000 -0.074455 13.000000 0.435555 20.000000 0.386478 42.000000 -0.182143
203656.000000 1.073992 287.000000 295.000000 158.000000 -0.051237 188.000000 0.023041 213.000000 -0.067509 283.000000 -0.060580 13.000000 0.386421 20.000000 0.311767 35.000000 -0.150099
204868.000000 1.038087 299.000000 291.000000 157.000000 -0.027581 177.000000 0.034804 220.000000 -0.018227 278.000000 -0.062048 15.000000 0.432712 20.000000 0.411600 45.000000 -0.138195
205159.000000 1.159050 291.000000 292.000000 157.000000 -0.035161 181.000000 -0.005898 232.000000 -0.068936 281.000000 -0.051253 9.000000 0.446682 20.000000 0.419458 35.000000 -0.128539
208339.000000 1.021820 296.000000 304.000000 246.000000 -0.084345 270.000000 0.031656 285.000000 -0.063642 293.000000 -0.028439 15.000000 0.386774 20.000000 0.381429 57.000000 -0.235250
209546.000000 1.062241 287.000000 287.000000 155.000000 -0.016996 180.000000 -0.000666 214.000000 -0.052458 274.000000 -0.036631 12.000000 0.486238 20.000000 0.397885 40.000000 -0.264183
212812.000000 1.071081 304.000000 304.000000 161.000000 -0.005625 183.000000 0.036916 187.000000 0.007887 290.000000 -0.071080 11.000000 0.481785 20.000000 0.471408 36.000000 -0.115254
215208.000000 1.149925 310.000000 300.000000 96.000000 -0.163260 186.000000 0.023179 210.000000 -0.012011 286.000000 -0.064659 15.000000 0.414408 20.000000 0.458922 41.000000 -0.347692
218767.000000 1.047429 286.000000 296.000000 177.000000 -0.021346 196.000000 0.032292 225.000000 -0.093198 281.000000 -0.043213 12.000000 0.470014 20.000000 0.441173 47.000000 -0.140679
219063.000000 1.026284 296.000000 304.000000 171.000000 -0.045810 196.000000 0.001915 207.000000 -0.034984 289.000000 -0.072398 12.000000 0.414873 21.000000 0.381534 50.000000 -0.174437
220856.000000 0.981067 291.000000 288.000000 172.000000 -0.025531 190.000000 -0.001237 202.000000 -0.050344 278.000000 -0.066771 11.000000 0.354296 20.000000 0.286819 35.000000 -0.195330
221756.000000 0.997573 309.000000 313.000000 173.000000 -0.022601 195.000000 -0.007130 208.000000 -0.029841 301.000000 -0.089481 16.000000 0.449970 21.000000 0.475126 52.000000 -0.173373
223240.000000 0.955098 293.000000 295.000000 158.000000 -0.014361 187.000000 -0.017605 218.000000 -0.067430 281.000000 -0.065985 13.000000 0.438220 20.000000 0.419112 43.000000 -0.203418
223535.000000 1.078467 295.000000 307.000000 175.000000 -0.015161 211.000000 0.023993 238.000000 -0.072602 293.000000 -0.060203 13.000000 0.457747 20.000000 0.433515 41.000000 -0.146423
223842.000000 1.054812 307.000000 305.000000 255.000000 -0.081628 282.000000 0.005722 289.000000 -0.048026 291.000000 -0.072525 15.000000 0.398355 23.000000 0.387821 47.000000 -0.164876
226831.000000 1.105412 298.000000 283.000000 154.000000 -0.022454 184.000000 0.006578 233.000000 -0.066722 271.000000 -0.069479 13.000000 0.412874 20.000000 0.349190 36.000000 -0.273114
228009.000000 1.192158 305.000000 301.000000 168.000000 -0.027071 201.000000 0.006532 212.000000 -0.037827 290.000000 -0.047814 14.000000 0.484432 20.000000 0.464215 40.000000 -0.142034
230091.000000 0.845082 316.000000 311.000000 204.000000 -0.026441 223.000000 0.024283 246.000000 -0.082457 299.000000 -0.039289 13.000000 0.472416 20.000000 0.457980 59.000000 -0.201817
230402.000000 0.801572 311.000000 295.000000 208.000000 -0.039983 237.000000 0.028105 255.000000 -0.030077 279.000000 -0.040077 10.000000 0.451305 20.000000 0.420536 42.000000 -0.228025
230994.000000 1.094016 297.000000 292.000000 179.000000 -0.015262 198.000000 0.013876 219.000000 -0.060701 280.000000 -0.050747 5.000000 0.400410 22.000000 0.627885 56.000000 -0.231945
232163.000000 1.210114 299.000000 317.000000 82.000000 -0.071828 191.000000 -0.024899 227.000000 -0.076797 302.000000 -0.049770 17.000000 0.392120 20.000000 0.352402 40.000000 -0.306581
232785.000000 1.072199 305.000000 292.000000 213.000000 -0.056154 229.000000 0.030930 247.000000 -0.065669 277.000000 -0.069633 12.000000 0.458906 20.000000 0.373858 47.000000 -0.204765
233366.000000 1.164501 289.000000 292.000000 155.000000 -0.092177 188.000000 0.034686 199.000000 -0.018935 276.000000 -0.038732 15.000000 0.466520 20.000000 0.541816 57.000000 -0.247246
233658.000000 1.202194 292.000000 292.000000 163.000000 -0.014260 185.000000 0.027543 230.000000 -0.085955 281.000000 -0.048913 15.000000 0.398026 22.000000 0.418011 48.000000 -0.181316
234246.000000 1.044093 296.000000 309.000000 171.000000 -0.037833 202.000000 -0.005608 213.000000 -0.060703 298.000000 -0.017820 14.000000 0.401317 20.000000 0.336629 38.000000 -0.186728
235169.000000 1.160326 300.000000 287.000000 179.000000 -0.004487 210.000000 0.032101 231.000000 -0.091362 273.000000 -0.110032 10.000000 0.420797 20.000000 0.290185 36.000000 -0.151224
237252.000000 1.110331 311.000000 291.000000 166.000000 0.032153 184.000000 0.079379 251.000000 -0.050457 279.000000 -0.075094 16.000000 0.446505 20.000000 0.425173 40.000000 -0.281157
240206.000000 1.155108 285.000000 289.000000 154.000000 -0.082837 181.000000 0.009686 225.000000 -0.033291 276.000000 -0.067584 13.000000 0.460220 21.000000 0.509500 57.000000 -0.236737
241108.000000 1.067511 309.000000 302.000000 165.000000 -0.007521 192.000000 0.027526 209.000000 0.008638 288.000000 -0.072081 15.000000 0.406618 20.000000 0.426460 41.000000 -0.108654
242884.000000 0.911848 298.000000 313.000000 133.000000 0.091769 191.000000 0.003261 219.000000 -0.046176 298.000000 -0.081488 9.000000 0.376300 20.000000 0.434561 42.000000 -0.154448
243197.000000 1.078574 313.000000 305.000000 172.000000 -0.065272 196.000000 0.005179 245.000000 -0.036363 295.000000 -0.037744 18.000000 0.579374 22.000000 0.665425 65.000000 -0.254937
245272.000000 1.030013 305.000000 316.000000 190.000000 -0.031489 210.000000 -0.006381 218.000000 -0.061179 303.000000 -0.070096 19.000000 0.551349 23.000000 0.601506 64.000000 -0.238998
245588.000000 1.171113 316.000000 304.000000 168.000000 -0.028242 187.000000 0.016632 240.000000 -0.056204 289.000000 -0.029120 15.000000 0.426834 20.000000 0.467115 60.000000 -0.209925
247667.000000 1.017505 307.000000 311.000000 169.000000 -0.016917 190.000000 0.017868 264.000000 -0.075264 302.000000 -0.017115 13.000000 0.519498 20.000000 0.515299 49.000000 -0.202627
248854.000000 0.952584 300.000000 292.000000 158.000000 -0.016485 184.000000 0.014330 231.000000 -0.041928 279.000000 -0.052005 15.000000 0.437834 20.000000 0.399652 44.000000 -0.187698
249146.000000 1.086583 292.000000 295.000000 160.000000 -0.045762 182.000000 -0.007567 242.000000 -0.073480 280.000000 -0.077239 11.000000 0.435079 20.000000 0.367084 38.000000 -0.163964
249441.000000 1.104456 295.000000 310.000000 159.000000 -0.040372 186.000000 0.010585 203.000000 -0.025043 297.000000 -0.039876 12.000000 0.400724 20.000000 0.346052 40.000000 -0.259908
250934.000000 1.088792 283.000000 300.000000 158.000000 -0.031645 183.000000 0.015143 207.000000 -0.029920 285.000000 -0.075062 14.000000 0.446474 21.000000 0.477211 50.000000 -0.172648
251833.000000 1.079407 301.000000 306.000000 166.000000 -0.005589 193.000000 0.016838 221.000000 -0.074686 294.000000 -0.046726 13.000000 0.413668 20.000000 0.323135 44.000000 -0.067305
252139.000000 1.094029 306.000000 302.000000 90.000000 -0.145319 188.000000 -0.004143 233.000000 -0.064405 290.000000 -0.039768 11.000000 0.413560 20.000000 0.323402 40.000000 -0.208481
252441.000000 1.041126 302.000000 296.000000 156.000000 -0.005604 179.000000 0.012834 186.000000 0.000561 281.000000 -0.061178 13.000000 0.490375 20.000000 0.414843 46.000000 -0.132006
253307.000000 1.044735 286.000000 306.000000 89.000000 -0.172130 184.000000 0.004301 236.000000 -0.082396 294.000000 -0.040169 12.000000 0.485799 20.000000 0.418243 47.000000 -0.148013
254823.000000 0.992873 297.000000 293.000000 155.000000 0.004768 179.000000 0.018123 201.000000 -0.032396 278.000000 -0.082820 12.000000 0.360773 20.000000 0.257466 38.000000 -0.218258
256309.000000 0.995569 307.000000 296.000000 155.000000 -0.039474 178.000000 0.030773 220.000000 -0.086429 280.000000 -0.089171 11.000000 0.375490 20.000000 0.274344 37.000000 -0.176271
257193.000000 0.955313 293.000000 292.000000 158.000000 -0.071723 192.000000 0.011928 243.000000 -0.067584 276.000000 -0.073165 15.000000 0.488556 23.000000 0.584496 68.000000 -0.191273
258696.000000 1.036474 304.000000 293.000000 157.000000 0.007615 182.000000 0.033619 193.000000 0.015313 282.000000 -0.039489 13.000000 0.462491 20.000000 0.412350 38.000000 -0.199154
259862.000000 1.046223 292.000000 293.000000 163.000000 0.018741 186.000000 0.056360 201.000000 -0.007839 281.000000 -0.046819 14.000000 0.447446 20.000000 0.418025 44.000000 -0.145359
260155.000000 1.067303 293.000000 308.000000 175.000000 -0.013564 198.000000 0.003320 227.000000 -0.045850 298.000000 -0.038612 13.000000 0.391427 20.000000 0.323152 41.000000 -0.232974
260463.000000 0.972424 308.000000 312.000000 177.000000 0.003963 197.000000 0.024401 237.000000 -0.053402 302.000000 -0.037446 12.000000 0.463476 20.000000 0.414496 37.000000 -0.198682
261653.000000 1.021673 287.000000 296.000000 162.000000 -0.046344 188.000000 0.002291 198.000000 -0.042064 282.000000 -0.063464 15.000000 0.467051 20.000000 0.481441 42.000000 -0.196927
261949.000000 0.989029 296.000000 297.000000 163.000000 -0.052135 187.000000 0.040437 209.000000 -0.026003 286.000000 -0.039937 11.000000 0.435596 20.000000 0.580988 57.000000 -0.180874
262858.000000 1.036819 311.000000 309.000000 165.000000 0.042652 189.000000 0.039420 199.000000 -0.011193 294.000000 -0.053810 9.000000 0.422352 20.000000 0.408181 36.000000 -0.249876
263459.000000 1.044732 292.000000 284.000000 152.000000 -0.006392 176.000000 0.034987 215.000000 -0.028201 271.000000 -0.033200 14.000000 0.455800 20.000000 0.365457 35.000000 -0.301294
263743.000000 1.010734 284.000000 286.000000 156.000000 -0.021699 175.000000 0.013807 180.000000 0.012255 269.000000 -0.060765 13.000000 0.402052 20.000000 0.307414 39.000000 -0.186312
265244.000000 1.004983 314.000000 301.000000 168.000000 0.035622 192.000000 0.065760 231.000000 -0.025532 285.000000 -0.059249 16.000000 0.456033 20.000000 0.439904 48.000000 -0.182495
267323.000000 1.048858 301.000000 308.000000 171.000000 -0.021779 188.000000 -0.004676 192.000000 -0.033030 294.000000 -0.047695 15.000000 0.432807 20.000000 0.418590 37.000000 -0.117630
267631.000000 1.037445 308.000000 291.000000 156.000000 -0.002656 181.000000 0.025254 234.000000 -0.045516 278.000000 -0.032411 16.000000 0.426269 20.000000 0.430908 44.000000 -0.230688
267922.000000 1.109767 291.000000 282.000000 154.000000 -0.025466 178.000000 -0.000235 209.000000 -0.037020 266.000000 -0.058096 12.000000 0.473010 21.000000 0.454311 48.000000 -0.152821
268494.000000 1.031252 290.000000 295.000000 162.000000 -0.053367 192.000000 0.022480 218.000000 -0.034512 280.000000 -0.068622 14.000000 0.399340 20.000000 0.384748 45.000000 -0.152354
270881.000000 1.026693 296.000000 304.000000 168.000000 -0.050231 189.000000 -0.005874 201.000000 -0.046908 289.000000 -0.064613 11.000000 0.419217 20.000000 0.345705 36.000000 -0.166676
271802.000000 1.001985 303.000000 288.000000 170.000000 -0.025127 192.000000 0.002896 196.000000 -0.026336 274.000000 -0.095755 10.000000 0.466249 20.000000 0.455231 47.000000 -0.180611
276839.000000 1.113150 286.000000 300.000000 168.000000 -0.034941 188.000000 0.002333 205.000000 -0.048798 285.000000 -0.049349 14.000000 0.429357 20.000000 0.374310 42.000000 -0.201657
277139.000000 1.067943 300.000000 298.000000 187.000000 -0.011046 206.000000 0.030176 239.000000 -0.092523 284.000000 -0.068560 14.000000 0.438478 20.000000 0.479764 39.000000 -0.126426
277437.000000 0.953980 298.000000 302.000000 167.000000 -0.019880 190.000000 -0.021163 197.000000 -0.046899 290.000000 -0.088862 10.000000 0.435078 20.000000 0.380268 49.000000 -0.195122
279830.000000 0.935356 305.000000 298.000000 170.000000 -0.031896 189.000000 -0.000923 200.000000 -0.041942 287.000000 -0.042572 11.000000 0.397693 20.000000 0.319229 38.000000 -0.147382
280432.000000 1.059391 304.000000 299.000000 163.000000 -0.006029 189.000000 0.030237 215.000000 -0.026396 285.000000 -0.048136 14.000000 0.461725 20.000000 0.417210 45.000000 -0.175518
280731.000000 0.949999 299.000000 290.000000 163.000000 -0.019036 190.000000 0.077518 223.000000 -0.078274 280.000000 -0.036363 11.000000 0.417271 20.000000 0.358195 34.000000 -0.152323
282221.000000 0.955109 307.000000 299.000000 166.000000 0.005384 183.000000 0.036202 245.000000 -0.066128 286.000000 -0.039027 14.000000 0.474923 20.000000 0.434484 37.000000 -0.231596
283111.000000 1.042291 294.000000 287.000000 168.000000 0.012255 187.000000 0.025045 217.000000 -0.017774 274.000000 -0.044653 11.000000 0.462508 20.000000 0.436990 39.000000 -0.155488
283398.000000 0.927576 287.000000 286.000000 86.000000 -0.087098 172.000000 0.000896 190.000000 -0.065577 274.000000 -0.058082 10.000000 0.368720 20.000000 0.324909 33.000000 -0.168165
284300.000000 1.041696 313.000000 304.000000 168.000000 -0.037757 192.000000 0.012288 226.000000 -0.034436 290.000000 -0.055032 16.000000 0.511114 21.000000 0.572242 59.000000 -0.197318
286071.000000 1.006919 295.000000 313.000000 169.000000 -0.008219 197.000000 0.025311 218.000000 -0.026223 299.000000 -0.059735 15.000000 0.406840 20.000000 0.381401 42.000000 -0.146031
286384.000000 1.026565 313.000000 310.000000 176.000000 -0.014974 195.000000 -0.001054 245.000000 -0.080952 296.000000 -0.051200 14.000000 0.369370 20.000000 0.313727 44.000000 -0.279139
287283.000000 1.022712 291.000000 285.000000 163.000000 -0.064561 191.000000 0.013120 230.000000 -0.064138 271.000000 -0.067932 14.000000 0.421408 22.000000 0.418008 41.000000 -0.202855
288771.000000 1.089434 315.000000 308.000000 178.000000 -0.014589 196.000000 0.034313 220.000000 -0.026660 292.000000 -0.065829 12.000000 0.424448 20.000000 0.419511 49.000000 -0.135189
289079.000000 1.082040 308.000000 290.000000 85.000000 -0.078403 176.000000 0.001283 185.000000 -0.027589 277.000000 -0.052057 10.000000 0.376555 20.000000 0.295378 38.000000 -0.247180
290246.000000 1.179765 299.000000 302.000000 164.000000 -0.068954 191.000000 -0.007919 250.000000 -0.060285 289.000000 -0.053622 18.000000 0.613404 24.000000 0.669377 55.000000 -0.194213
291744.000000 1.021143 283.000000 288.000000 155.000000 -0.062291 187.000000 -0.004469 201.000000 -0.050128 276.000000 -0.058058 9.000000 0.383057 20.000000 0.324861 33.000000 -0.169151
293235.000000 1.023336 303.000000 311.000000 175.000000 -0.021812 196.000000 0.010308 252.000000 -0.066381 296.000000 -0.070078 15.000000 0.529091 20.000000 0.563920 42.000000 -0.217330
295022.000000 1.179766 313.000000 304.000000 141.000000 0.073132 185.000000 0.004698 207.000000 -0.043072 293.000000 -0.017961 8.000000 0.393700 20.000000 0.332292 34.000000 -0.345057
295326.000000 0.973949 304.000000 297.000000 159.000000 -0.015862 187.000000 0.030375 219.000000 -0.041428 287.000000 -0.038402 9.000000 0.449262 20.000000 0.433932 41.000000 -0.217462
295623.000000 1.093573 297.000000 303.000000 161.000000 -0.012655 184.000000 0.010701 205.000000 -0.048434 289.000000 -0.080734 8.000000 0.389780 20.000000 0.370830 34.000000 -0.197913
296495.000000 0.978466 281.000000 293.000000 154.000000 -0.045076 194.000000 0.013307 202.000000 -0.016741 280.000000 -0.059122 13.000000 0.472226 20.000000 0.518448 44.000000 -0.163171
299177.000000 0.995739 302.000000 309.000000 89.000000 -0.187863 188.000000 0.014370 197.000000 -0.018889 294.000000 -0.086614 13.000000 0.450051 20.000000 0.467261 47.000000 -0.134951
301256.000000 1.088404 295.000000 308.000000 168.000000 -0.001493 191.000000 0.075608 222.000000 -0.057106 293.000000 -0.048442 12.000000 0.413295 20.000000 0.361868 50.000000 -0.131080
302180.000000 1.037099 303.000000 289.000000 168.000000 -0.063670 203.000000 -0.008901 240.000000 -0.070232 277.000000 -0.064402 11.000000 0.459169 20.000000 0.555031 43.000000 -0.192286
302759.000000 0.986863 290.000000 294.000000 160.000000 -0.042779 195.000000 0.003345 210.000000 -0.041735 282.000000 -0.045925 18.000000 0.520544 20.000000 0.530905 57.000000 -0.156976
303053.000000 1.133120 294.000000 294.000000 157.000000 -0.024206 177.000000 0.012865 225.000000 -0.039718 281.000000 -0.057712 11.000000 0.351678 20.000000 0.288999 36.000000 -0.127363
303649.000000 1.093591 302.000000 305.000000 107.000000 -0.161185 186.000000 0.020867 205.000000 -0.018117 292.000000 -0.054519 15.000000 0.464231 20.000000 0.459184 48.000000 -0.130610
306347.000000 1.122352 304.000000 301.000000 168.000000 -0.015738 194.000000 0.018446 230.000000 -0.047322 288.000000 -0.040016 14.000000 0.493968 20.000000 0.454422 50.000000 -0.104282
309023.000000 1.127834 297.000000 288.000000 182.000000 0.012656 206.000000 0.056556 244.000000 -0.070343 272.000000 -0.063962 14.000000 0.448303 20.000000 0.435262 41.000000 -0.173265
313198.000000 1.126254 295.000000 289.000000 154.000000 -0.036892 182.000000 0.037868 207.000000 -0.029608 278.000000 -0.052493 13.000000 0.482066 20.000000 0.427349 45.000000 -0.100896
314694.000000 1.012803 320.000000 304.000000 163.000000 -0.007333 192.000000 0.008525 206.000000 -0.015863 298.000000 0.072052 10.000000 0.473445 20.000000 0.504402 40.000000 -0.189061
314998.000000 1.219012 304.000000 289.000000 172.000000 -0.015784 195.000000 0.018133 213.000000 -0.010944 276.000000 -0.038169 5.000000 0.390376 21.000000 0.578606 58.000000 -0.227054
316158.000000 1.100863 297.000000 298.000000 168.000000 -0.027191 186.000000 -0.004934 196.000000 -0.045875 287.000000 -0.033198 13.000000 0.349671 20.000000 0.243370 34.000000 -0.318542
317661.000000 1.085439 285.000000 288.000000 159.000000 -0.055014 192.000000 0.004751 203.000000 -0.028587 275.000000 -0.045204 15.000000 0.489968 21.000000 0.591174 58.000000 -0.224970
318241.000000 1.127495 292.000000 304.000000 175.000000 -0.021306 198.000000 0.013117 213.000000 -0.039060 292.000000 -0.028342 15.000000 0.462904 23.000000 0.525146 58.000000 -0.215152
318851.000000 1.146396 306.000000 303.000000 148.000000 0.001926 182.000000 -0.001411 190.000000 -0.012038 288.000000 -0.050410 14.000000 0.352432 20.000000 0.322668 37.000000 -0.286410
320934.000000 1.145486 313.000000 306.000000 169.000000 -0.013706 193.000000 0.008344 242.000000 -0.046441 292.000000 -0.056832 9.000000 0.416756 20.000000 0.483134 61.000000 -0.190941
321240.000000 1.101129 306.000000 303.000000 158.000000 0.006896 182.000000 0.015829 203.000000 -0.021523 287.000000 -0.079467 13.000000 0.373308 20.000000 0.289060 38.000000 -0.119106
322411.000000 1.160568 281.000000 293.000000 162.000000 -0.017986 180.000000 -0.006027 221.000000 -0.077352 279.000000 -0.062342 12.000000 0.424000 20.000000 0.279735 36.000000 -0.290551
323015.000000 1.153717 311.000000 307.000000 185.000000 -0.030424 204.000000 0.034433 240.000000 -0.091508 295.000000 -0.045789 13.000000 0.431302 20.000000 0.406772 50.000000 -0.047067
323322.000000 1.092440 307.000000 301.000000 171.000000 -0.039061 193.000000 0.009717 229.000000 -0.067165 288.000000 -0.062244 17.000000 0.370044 20.000000 0.390123 43.000000 -0.173919
323623.000000 1.001503 301.000000 298.000000 165.000000 -0.043560 197.000000 -0.000896 217.000000 -0.038185 288.000000 -0.025253 16.000000 0.565081 22.000000 0.635975 57.000000 -0.227662
324787.000000 1.157945 291.000000 303.000000 240.000000 -0.080747 270.000000 -0.008994 278.000000 -0.097896 291.000000 -0.050859 12.000000 0.414262 20.000000 0.474686 50.000000 -0.098435
325090.000000 0.963154 303.000000 316.000000 263.000000 -0.095264 284.000000 -0.009560 288.000000 -0.024262 306.000000 -0.053591 11.000000 0.397119 20.000000 0.576273 50.000000 -0.122738
327482.000000 0.978431 306.000000 313.000000 163.000000 -0.008810 191.000000 0.011345 204.000000 -0.044218 296.000000 -0.094075 10.000000 0.394542 20.000000 0.339025 42.000000 -0.175677
328673.000000 1.013508 296.000000 295.000000 157.000000 -0.023750 181.000000 -0.010897 184.000000 -0.040097 283.000000 -0.023540 16.000000 0.424997 20.000000 0.500170 40.000000 -0.212036
331055.000000 1.057188 299.000000 297.000000 155.000000 -0.040406 187.000000 0.043999 209.000000 -0.076600 282.000000 -0.070159 11.000000 0.438019 20.000000 0.387832 39.000000 -0.159750
331352.000000 1.205561 297.000000 299.000000 214.000000 -0.040391 232.000000 0.023716 251.000000 -0.061549 281.000000 -0.056625 11.000000 0.444981 20.000000 0.423618 39.000000 -0.114469
331651.000000 1.061210 299.000000 306.000000 162.000000 -0.030982 184.000000 0.015759 256.000000 -0.068835 296.000000 0.014798 16.000000 0.591271 21.000000 0.618025 52.000000 -0.192653
331957.000000 1.161789 306.000000 304.000000 170.000000 -0.063391 192.000000 0.001640 209.000000 -0.037086 292.000000 -0.009702 8.000000 0.437918 23.000000 0.560268 60.000000 -0.221944
332848.000000 1.201939 286.000000 284.000000 154.000000 -0.036252 181.000000 0.021271 219.000000 -0.033010 272.000000 -0.036819 10.000000 0.427847 20.000000 0.293070 37.000000 -0.151300
334643.000000 1.052258 297.000000 294.000000 157.000000 0.000420 187.000000 0.042600 244.000000 -0.105156 280.000000 -0.101112 13.000000 0.437760 20.000000 0.387307 41.000000 -0.161269
335510.000000 1.074565 287.000000 308.000000 171.000000 -0.032791 196.000000 -0.001459 213.000000 -0.041302 294.000000 -0.038573 15.000000 0.448843 20.000000 0.494752 61.000000 -0.181614
336126.000000 1.079875 308.000000 301.000000 159.000000 -0.049426 186.000000 0.016829 214.000000 -0.030190 290.000000 -0.032071 15.000000 0.424736 20.000000 0.470913 39.000000 -0.174585
337020.000000 1.080202 293.000000 296.000000 157.000000 -0.019556 186.000000 0.007322 229.000000 -0.042240 285.000000 -0.048333 13.000000 0.457035 20.000000 0.341974 45.000000 -0.067459
337899.000000 1.037921 296.000000 316.000000 101.000000 -0.187708 191.000000 0.012498 246.000000 -0.076336 305.000000 -0.039876 15.000000 0.477762 20.000000 0.448968 48.000000 -0.160942
342070.000000 1.128839 294.000000 299.000000 156.000000 -0.046373 187.000000 -0.006521 197.000000 -0.035831 286.000000 -0.072191 14.000000 0.376487 20.000000 0.356927 48.000000 -0.079106
342990.000000 1.008949 311.000000 295.000000 156.000000 0.005926 179.000000 0.015972 183.000000 0.003825 285.000000 -0.029024 9.000000 0.386957 20.000000 0.303915 35.000000 -0.180459
345665.000000 1.157709 288.000000 285.000000 155.000000 -0.012956 186.000000 0.023249 217.000000 -0.061239 275.000000 -0.041458 9.000000 0.400357 20.000000 0.228132 29.000000 -0.264876
346847.000000 1.134623 306.000000 301.000000 165.000000 -0.049972 185.000000 0.000844 209.000000 -0.054279 285.000000 -0.076955 15.000000 0.355832 20.000000 0.319076 44.000000 -0.234029
347148.000000 1.075867 301.000000 310.000000 94.000000 -0.097930 191.000000 -0.023523 223.000000 -0.098194 297.000000 -0.039701 13.000000 0.425114 20.000000 0.331492 38.000000 -0.246018
347754.000000 1.062489 296.000000 282.000000 214.000000 -0.050955 231.000000 0.012916 243.000000 -0.064170 269.000000 -0.058185 14.000000 0.385688 20.000000 0.361284 36.000000 -0.152462
349537.000000 1.226361 300.000000 305.000000 175.000000 -0.039152 192.000000 0.040754 219.000000 -0.037725 295.000000 -0.056753 11.000000 0.417821 20.000000 0.372979 41.000000 -0.175451
350132.000000 1.043197 290.000000 282.000000 154.000000 -0.062700 189.000000 -0.007177 250.000000 -0.099887 269.000000 -0.025844 16.000000 0.581128 21.000000 0.606864 48.000000 -0.160263
350414.000000 1.084297 282.000000 292.000000 158.000000 -0.061980 189.000000 0.003248 214.000000 -0.047650 277.000000 -0.074392 14.000000 0.447118 20.000000 0.497870 48.000000 -0.115938
350706.000000 1.126359 292.000000 302.000000 163.000000 -0.009186 184.000000 -0.004484 188.000000 -0.022133 294.000000 -0.014152 11.000000 0.435857 20.000000 0.319460 36.000000 -0.127138
351321.000000 1.049767 313.000000 303.000000 170.000000 -0.018990 195.000000 0.000458 237.000000 -0.047822 290.000000 -0.046565 15.000000 0.457806 20.000000 0.438934 40.000000 -0.176849
351917.000000 1.081776 293.000000 297.000000 161.000000 -0.054419 186.000000 -0.016519 208.000000 -0.095876 287.000000 -0.025268 12.000000 0.434018 20.000000 0.303625 41.000000 -0.247240
352214.000000 1.134013 297.000000 290.000000 157.000000 -0.021020 182.000000 -0.000660 223.000000 -0.066235 277.000000 -0.045654 10.000000 0.472618 20.000000 0.445234 36.000000 -0.157715
353092.000000 1.083794 301.000000 309.000000 157.000000 -0.032071 191.000000 0.010264 234.000000 -0.042598 290.000000 -0.039385 16.000000 0.498169 20.000000 0.529030 45.000000 -0.225263
354885.000000 1.094453 290.000000 290.000000 179.000000 -0.019012 199.000000 0.064797 219.000000 -0.030890 278.000000 -0.050967 14.000000 0.391336 20.000000 0.356508 35.000000 -0.185155
356384.000000 1.159938 290.000000 285.000000 171.000000 0.001742 195.000000 0.018671 214.000000 -0.029779 271.000000 -0.045469 12.000000 0.435676 20.000000 0.270816 35.000000 -0.215422
356968.000000 1.122698 299.000000 294.000000 160.000000 -0.041234 181.000000 -0.012520 235.000000 -0.061221 280.000000 -0.069750 12.000000 0.446366 20.000000 0.328402 31.000000 -0.328872
357562.000000 1.120967 300.000000 307.000000 156.000000 0.033953 186.000000 0.034614 204.000000 0.011009 292.000000 -0.078318 8.000000 0.405248 20.000000 0.399074 39.000000 -0.136441
358175.000000 1.145890 306.000000 299.000000 158.000000 -0.056429 192.000000 0.034011 213.000000 -0.038163 287.000000 -0.027349 16.000000 0.510107 20.000000 0.595938 62.000000 -0.193886
358760.000000 1.070798 286.000000 285.000000 152.000000 -0.033731 182.000000 0.013010 210.000000 -0.054876 273.000000 -0.027163 13.000000 0.404263 20.000000 0.245297 32.000000 -0.223135
359345.000000 1.008938 300.000000 301.000000 159.000000 -0.033980 186.000000 -0.004341 198.000000 -0.035015 290.000000 -0.046866 12.000000 0.378607 20.000000 0.243183 33.000000 -0.257994
359646.000000 1.102271 301.000000 301.000000 157.000000 -0.014508 183.000000 0.015888 213.000000 -0.070252 289.000000 -0.059861 12.000000 0.434308 20.000000 0.294638 36.000000 -0.232383
360252.000000 1.040788 305.000000 303.000000 160.000000 -0.027103 190.000000 0.014214 202.000000 -0.010630 292.000000 -0.025671 9.000000 0.439675 22.000000 0.601869 44.000000 -0.217852
361734.000000 0.937957 309.000000 306.000000 75.000000 -0.079900 184.000000 -0.021039 189.000000 -0.028954 292.000000 -0.056549 11.000000 0.384196 20.000000 0.274981 39.000000 -0.147959
362638.000000 1.074283 299.000000 296.000000 167.000000 -0.033822 197.000000 0.011255 204.000000 -0.012789 280.000000 -0.055990 16.000000 0.492807 20.000000 0.518198 59.000000 -0.188012
363807.000000 1.071208 301.000000 311.000000 165.000000 -0.004098 192.000000 -0.000162 198.000000 -0.026102 298.000000 -0.062915 12.000000 0.417038 20.000000 0.312681 36.000000 -0.166708
364724.000000 1.063040 301.000000 292.000000 225.000000 -0.076680 247.000000 0.009291 264.000000 -0.066994 279.000000 -0.083154 14.000000 0.409389 20.000000 0.404312 39.000000 -0.091848
367104.000000 1.020171 297.000000 285.000000 159.000000 -0.030263 213.000000 0.025784 245.000000 -0.059328 272.000000 -0.050160 15.000000 0.466989 20.000000 0.458634 59.000000 -0.181384
368272.000000 1.068025 298.000000 315.000000 94.000000 -0.180779 192.000000 0.011441 215.000000 -0.012819 301.000000 -0.032053 11.000000 0.448292 20.000000 0.337523 38.000000 -0.209229
370365.000000 1.122588 299.000000 301.000000 162.000000 -0.025512 186.000000 0.017638 217.000000 -0.037082 287.000000 -0.080378 10.000000 0.433982 20.000000 0.354106 34.000000 -0.225925
371567.000000 1.110300 283.000000 287.000000 152.000000 -0.065306 179.000000 -0.011907 184.000000 -0.026799 277.000000 -0.030017 10.000000 0.398624 20.000000 0.275692 37.000000 -0.212428
372752.000000 1.096642 306.000000 303.000000 172.000000 -0.044188 188.000000 0.008319 208.000000 -0.057009 287.000000 -0.041060 14.000000 0.537459 20.000000 0.558213 49.000000 -0.184451
373055.000000 1.103892 303.000000 315.000000 170.000000 -0.064677 196.000000 0.029097 209.000000 -0.011296 302.000000 -0.052855 15.000000 0.513829 23.000000 0.625741 61.000000 -0.241033
374234.000000 1.087021 289.000000 294.000000 157.000000 -0.010784 181.000000 0.002616 201.000000 -0.049986 278.000000 -0.053809 12.000000 0.401301 20.000000 0.225832 35.000000 -0.301126
374839.000000 1.081883 311.000000 302.000000 79.000000 -0.137525 182.000000 0.008695 207.000000 -0.058797 289.000000 -0.066583 12.000000 0.402087 20.000000 0.312465 38.000000 -0.141206
381083.000000 1.036458 291.000000 306.000000 177.000000 0.000197 201.000000 0.013019 218.000000 -0.042529 294.000000 -0.047748 10.000000 0.440989 20.000000 0.409516 38.000000 -0.052834
383170.000000 1.072098 293.000000 298.000000 189.000000 -0.027385 220.000000 0.041708 257.000000 -0.069376 283.000000 -0.048107 12.000000 0.400765 20.000000 0.331361 39.000000 -0.198309
383774.000000 1.155063 306.000000 309.000000 168.000000 -0.025414 193.000000 0.019198 211.000000 -0.020219 297.000000 -0.055344 12.000000 0.461144 20.000000 0.526521 59.000000 -0.187302
384960.000000 1.176739 291.000000 298.000000 105.000000 -0.034026 182.000000 0.003718 192.000000 -0.055170 286.000000 -0.077757 9.000000 0.368338 20.000000 0.309779 32.000000 -0.314015
385558.000000 1.086215 300.000000 304.000000 157.000000 0.010777 184.000000 0.015852 226.000000 -0.058290 292.000000 -0.035673 13.000000 0.457343 20.000000 0.447452 54.000000 -0.168588
387640.000000 1.227331 303.000000 302.000000 86.000000 -0.175092 183.000000 0.030707 213.000000 -0.038868 290.000000 -0.030003 13.000000 0.422018 20.000000 0.342003 37.000000 -0.153949
389419.000000 1.136193 284.000000 304.000000 243.000000 -0.122758 270.000000 -0.012038 289.000000 -0.068670 293.000000 -0.094626 15.000000 0.406145 20.000000 0.422194 34.000000 -0.156287
394812.000000 1.098964 308.000000 291.000000 167.000000 -0.005238 186.000000 0.010798 188.000000 -0.004139 281.000000 -0.046392 13.000000 0.431018 20.000000 0.321958 39.000000 -0.181021
395975.000000 1.029637 298.000000 294.000000 158.000000 -0.032648 188.000000 0.012413 196.000000 -0.013810 281.000000 -0.072618 15.000000 0.526204 20.000000 0.561925 33.000000 -0.001318
396895.000000 1.167810 321.000000 301.000000 158.000000 -0.038020 185.000000 -0.002330 205.000000 -0.062644 291.000000 -0.075940 11.000000 0.420645 20.000000 0.337853 38.000000 -0.162351
398964.000000 1.113993 306.000000 312.000000 91.000000 -0.131032 192.000000 0.014545 228.000000 -0.026536 299.000000 -0.046301 11.000000 0.424588 20.000000 0.320247 33.000000 -0.434063
400744.000000 1.105045 310.000000 308.000000 175.000000 -0.011886 194.000000 0.004684 209.000000 -0.029203 294.000000 -0.084311 14.000000 0.533904 20.000000 0.540472 43.000000 -0.173806
403436.000000 1.027955 302.000000 301.000000 163.000000 -0.023711 200.000000 0.053950 229.000000 -0.051430 289.000000 -0.070314 17.000000 0.438060 21.000000 0.433859 40.000000 -0.119484
403737.000000 0.969859 301.000000 295.000000 224.000000 -0.047397 248.000000 0.002024 254.000000 -0.038039 282.000000 -0.064873 10.000000 0.380064 20.000000 0.363812 35.000000 -0.198050
404032.000000 1.040126 295.000000 285.000000 153.000000 -0.036493 181.000000 0.014841 191.000000 -0.002431 275.000000 -0.027965 15.000000 0.534874 20.000000 0.584608 47.000000 -0.161141
404605.000000 1.046113 288.000000 298.000000 82.000000 -0.122916 179.000000 0.031446 190.000000 0.015631 284.000000 -0.051474 8.000000 0.367491 20.000000 0.338510 33.000000 -0.280410
405217.000000 1.177589 314.000000 307.000000 171.000000 -0.002020 191.000000 0.028496 241.000000 -0.072194 292.000000 -0.038353 14.000000 0.474172 20.000000 0.419532 43.000000 -0.154029
407292.000000 1.066114 305.000000 313.000000 175.000000 -0.009863 216.000000 0.023383 253.000000 -0.078090 302.000000 -0.058260 9.000000 0.407321 20.000000 0.419248 37.000000 -0.129688
407605.000000 1.094687 313.000000 304.000000 59.000000 -0.176021 184.000000 0.030186 188.000000 -0.004610 292.000000 -0.067094 13.000000 0.432211 20.000000 0.425641 43.000000 -0.248717
408785.000000 1.162431 292.000000 290.000000 153.000000 -0.083242 191.000000 0.005628 204.000000 -0.017774 280.000000 -0.043042 11.000000 0.471817 20.000000 0.548807 50.000000 -0.126069
409689.000000 1.093260 308.000000 309.000000 164.000000 0.018060 188.000000 0.039392 229.000000 -0.060467 304.000000 0.067653 10.000000 0.489764 20.000000 0.515924 40.000000 -0.142336
414464.000000 1.059937 301.000000 295.000000 157.000000 -0.027733 188.000000 0.040608 209.000000 -0.043955 282.000000 -0.065049 12.000000 0.406269 20.000000 0.417226 39.000000 -0.115062
