396.000000 1.295300 314.000000 315.000000 231.000000 -0.013663 262.000000 0.144549 295.000000 -0.070311 298.000000 -0.049794 12.000000 -0.026438 98.000000 0.143551 146.000000 -0.051184
711.000000 1.417792 315.000000 321.000000 235.000000 -0.027981 270.000000 0.110153 291.000000 -0.065787 307.000000 -0.088764 17.000000 -0.108996 102.000000 0.168630 146.000000 -0.067620
1032.000000 1.428855 321.000000 336.000000 256.000000 -0.045141 282.000000 0.142147 306.000000 -0.080266 321.000000 -0.059217 15.000000 -0.047411 111.000000 0.188539 150.000000 -0.066763
1368.000000 1.447946 336.000000 344.000000 262.000000 0.002905 290.000000 0.210629 319.000000 -0.026379 330.000000 -0.037993 19.000000 -0.140503 116.000000 0.160973 152.000000 -0.058833
1712.000000 1.342695 344.000000 324.000000 243.000000 -0.053623 271.000000 0.137801 287.000000 -0.025757 311.000000 -0.114845 13.000000 -0.041303 115.000000 0.131529 158.000000 -0.057149
2036.000000 1.493979 324.000000 313.000000 225.000000 -0.038677 261.000000 0.145019 275.000000 0.073091 300.000000 -0.040660 14.000000 -0.112714 108.000000 0.123889 141.000000 -0.058558
2349.000000 1.674322 313.000000 312.000000 234.000000 -0.020016 261.000000 0.133418 286.000000 -0.062741 299.000000 -0.054903 12.000000 0.024336 107.000000 0.197753 154.000000 -0.089666
2972.000000 1.528509 311.000000 329.000000 242.000000 -0.036222 273.000000 0.174205 299.000000 -0.040134 316.000000 -0.061059 15.000000 -0.095532 113.000000 0.182063 150.000000 -0.038709
3301.000000 1.420365 329.000000 329.000000 253.000000 -0.011460 275.000000 0.167364 301.000000 -0.033638 317.000000 -0.083200 11.000000 0.031569 116.000000 0.149556 150.000000 -0.061710
3960.000000 1.464845 330.000000 323.000000 247.000000 -0.047417 272.000000 0.146860 285.000000 0.042644 307.000000 -0.068671 11.000000 0.048919 110.000000 0.164086 147.000000 -0.078722
4283.000000 1.438525 323.000000 326.000000 239.000000 -0.026964 274.000000 0.172066 301.000000 -0.052463 312.000000 -0.046505 14.000000 -0.023699 107.000000 0.159685 146.000000 -0.071742
4609.000000 1.368370 326.000000 319.000000 239.000000 0.008575 266.000000 0.191365 279.000000 0.115078 306.000000 -0.038214 13.000000 -0.041409 105.000000 0.140268 137.000000 -0.067976
4928.000000 1.274699 319.000000 312.000000 238.000000 -0.005897 258.000000 0.176343 282.000000 -0.005365 299.000000 -0.016098 14.000000 -0.067871 104.000000 0.048370 134.000000 -0.121898
5898.000000 1.290188 330.000000 324.000000 243.000000 -0.044425 270.000000 0.150214 292.000000 -0.027950 308.000000 -0.049109 10.000000 0.118589 112.000000 0.086047 146.000000 -0.107589
6830.000000 1.401177 303.000000 312.000000 232.000000 -0.041195 259.000000 0.145341 282.000000 -0.036509 298.000000 -0.061272 11.000000 0.073528 111.000000 0.141440 140.000000 -0.031994
8105.000000 1.269235 320.000000 309.000000 232.000000 -0.043680 256.000000 0.133107 280.000000 -0.072115 294.000000 -0.067932 13.000000 -0.039776 107.000000 0.141608 136.000000 -0.035917
8414.000000 1.458698 309.000000 307.000000 228.000000 -0.032395 255.000000 0.148185 277.000000 -0.016593 292.000000 -0.052192 16.000000 -0.155866 99.000000 0.153713 137.000000 -0.056831
8721.000000 1.520879 307.000000 304.000000 226.000000 -0.048891 253.000000 0.181171 287.000000 -0.056870 289.000000 -0.051415 15.000000 -0.080485 109.000000 0.163825 138.000000 -0.055472
9628.000000 1.400720 308.000000 325.000000 240.000000 -0.016900 270.000000 0.170515 292.000000 -0.049485 311.000000 -0.084061 15.000000 -0.126366 108.000000 0.203863 146.000000 -0.067281
9953.000000 1.378275 325.000000 328.000000 248.000000 -0.049421 274.000000 0.168650 297.000000 -0.043167 311.000000 -0.089293 15.000000 -0.093400 121.000000 0.165387 148.000000 -0.052245
10281.000000 1.230628 328.000000 308.000000 222.000000 -0.019555 257.000000 0.150525 267.000000 0.101198 294.000000 -0.075528 13.000000 -0.019309 112.000000 0.180815 155.000000 -0.085359
11470.000000 1.770094 286.000000 289.000000 203.000000 -0.004609 231.000000 0.116865 243.000000 0.035595 276.000000 -0.183621 11.000000 0.123385 103.000000 0.267633 137.000000 -0.049090
12338.000000 1.727540 289.000000 283.000000 207.000000 -0.039120 231.000000 0.160628 255.000000 -0.046378 268.000000 -0.060922 13.000000 -0.111990 105.000000 0.230082 145.000000 -0.086456
12621.000000 1.713747 283.000000 290.000000 217.000000 -0.038749 237.000000 0.170720 257.000000 -0.043010 272.000000 -0.080204 16.000000 -0.114120 110.000000 0.194678 149.000000 -0.102962
12911.000000 1.645265 290.000000 272.000000 201.000000 0.009090 223.000000 0.206316 250.000000 -0.073040 255.000000 -0.074481 16.000000 -0.152198 105.000000 0.149745 130.000000 -0.072009
13183.000000 1.594812 272.000000 274.000000 195.000000 -0.058727 226.000000 0.126131 245.000000 -0.066127 259.000000 -0.114625 15.000000 -0.104342 102.000000 0.191753 126.000000 -0.061632
13457.000000 1.614264 274.000000 283.000000 208.000000 -0.012915 230.000000 0.220017 253.000000 -0.042288 270.000000 -0.025455 15.000000 -0.126630 110.000000 0.203070 147.000000 -0.170111
13740.000000 1.736457 283.000000 289.000000 210.000000 -0.027381 239.000000 0.164810 260.000000 -0.044751 274.000000 -0.031286 12.000000 -0.071379 110.000000 0.192340 134.000000 -0.144854
14333.000000 1.630815 304.000000 307.000000 241.000000 -0.087726 258.000000 0.118246 281.000000 -0.199717 293.000000 -0.118855 10.000000 0.047616 115.000000 0.213370 156.000000 -0.133072
14640.000000 1.595581 307.000000 283.000000 72.000000 0.078105 170.000000 0.129328 187.000000 -0.062116 268.000000 -0.101945 15.000000 -0.102287 103.000000 0.576224 155.000000 0.005943
14923.000000 1.529623 283.000000 272.000000 193.000000 -0.019210 222.000000 0.166795 241.000000 -0.037202 256.000000 -0.096014 12.000000 -0.006975 101.000000 0.152904 135.000000 -0.138507
15195.000000 1.504076 272.000000 278.000000 201.000000 -0.009120 226.000000 0.157025 248.000000 -0.048146 261.000000 -0.057990 18.000000 -0.144217 107.000000 0.137418 141.000000 -0.084936
15760.000000 1.473118 287.000000 291.000000 211.000000 -0.041146 241.000000 0.148649 264.000000 -0.052495 276.000000 -0.089093 15.000000 -0.080849 105.000000 0.174274 152.000000 -0.083401
16051.000000 1.425312 291.000000 299.000000 218.000000 -0.046852 246.000000 0.153638 265.000000 -0.032710 281.000000 -0.062492 16.000000 -0.133230 101.000000 0.138069 149.000000 -0.090319
16655.000000 1.385629 305.000000 301.000000 218.000000 -0.005715 248.000000 0.152733 271.000000 -0.043396 288.000000 -0.069056 19.000000 -0.095404 111.000000 0.164519 153.000000 -0.083698
16956.000000 1.354375 301.000000 294.000000 212.000000 -0.024485 241.000000 0.149277 263.000000 -0.044829 279.000000 -0.065829 16.000000 -0.103168 110.000000 0.162329 152.000000 -0.085581
17250.000000 1.291445 294.000000 281.000000 208.000000 -0.039606 233.000000 0.133967 257.000000 -0.055923 269.000000 -0.088995 15.000000 -0.100779 103.000000 0.143344 139.000000 -0.072849
18687.000000 1.292167 292.000000 289.000000 216.000000 -0.015296 239.000000 0.150803 263.000000 -0.048118 274.000000 -0.062176 13.000000 -0.001437 112.000000 0.156933 152.000000 -0.091128
19267.000000 1.284733 291.000000 291.000000 219.000000 -0.041322 242.000000 0.120542 263.000000 -0.046855 278.000000 -0.074533 17.000000 -0.100975 109.000000 0.112019 152.000000 -0.073123
19558.000000 1.373040 291.000000 302.000000 226.000000 -0.025717 251.000000 0.152545 272.000000 -0.034211 288.000000 -0.077772 19.000000 -0.122415 102.000000 0.142143 154.000000 -0.076823
19860.000000 1.446254 302.000000 313.000000 232.000000 -0.065201 259.000000 0.140133 290.000000 -0.061357 296.000000 -0.079523 17.000000 -0.120223 108.000000 0.154984 137.000000 -0.036160
20173.000000 1.345021 313.000000 320.000000 237.000000 -0.046509 266.000000 0.138788 288.000000 -0.044972 304.000000 -0.088061 15.000000 -0.131092 102.000000 0.140417 146.000000 -0.024877
20493.000000 1.409917 320.000000 329.000000 250.000000 -0.020173 275.000000 0.166957 307.000000 -0.076474 313.000000 -0.076944 14.000000 -0.108279 113.000000 0.135478 150.000000 -0.048784
20822.000000 1.422570 329.000000 343.000000 260.000000 -0.042329 289.000000 0.162107 311.000000 -0.045449 328.000000 -0.079150 14.000000 -0.077559 109.000000 0.145331 148.000000 -0.063485
21498.000000 1.421159 333.000000 310.000000 239.000000 -0.073807 261.000000 0.137527 282.000000 -0.051939 295.000000 -0.047913 15.000000 -0.096051 109.000000 0.111060 150.000000 -0.057827
21808.000000 1.454734 310.000000 322.000000 240.000000 -0.034353 269.000000 0.151240 296.000000 -0.064028 306.000000 -0.063559 15.000000 -0.072179 106.000000 0.138961 141.000000 -0.038267
22130.000000 1.427882 322.000000 321.000000 231.000000 -0.028002 270.000000 0.180510 289.000000 -0.009739 306.000000 -0.047855 15.000000 -0.101102 109.000000 0.122420 141.000000 -0.057702
22451.000000 1.405190 321.000000 330.000000 243.000000 -0.031551 275.000000 0.124390 302.000000 -0.071035 314.000000 -0.075173 17.000000 -0.101044 111.000000 0.139414 147.000000 -0.032815
23126.000000 1.450040 345.000000 331.000000 257.000000 -0.025568 278.000000 0.168287 300.000000 -0.015711 316.000000 -0.061118 14.000000 -0.020473 114.000000 0.120364 149.000000 -0.060453
23457.000000 1.389243 331.000000 317.000000 240.000000 -0.020973 270.000000 0.158513 291.000000 -0.046346 301.000000 -0.058084 15.000000 -0.084908 107.000000 0.111154 138.000000 -0.049159
23774.000000 1.388892 317.000000 315.000000 241.000000 -0.015050 271.000000 0.150168 288.000000 -0.045726 302.000000 -0.058373 15.000000 -0.083631 109.000000 0.116427 142.000000 -0.062961
24720.000000 1.338794 317.000000 320.000000 236.000000 -0.023886 267.000000 0.138935 290.000000 -0.062489 304.000000 -0.036298 13.000000 -0.055332 107.000000 0.150615 144.000000 -0.047544
25040.000000 1.401005 320.000000 333.000000 253.000000 -0.037416 277.000000 0.176252 301.000000 -0.026505 317.000000 -0.072869 16.000000 -0.116833 109.000000 0.135384 149.000000 -0.076620
25704.000000 1.301240 331.000000 304.000000 223.000000 -0.056680 251.000000 0.127331 280.000000 -0.062402 296.000000 -0.104925 13.000000 0.001332 106.000000 0.144915 149.000000 -0.088123
26008.000000 1.380264 304.000000 301.000000 223.000000 -0.044926 250.000000 0.134057 272.000000 -0.047575 288.000000 -0.045018 12.000000 0.020217 101.000000 0.126769 149.000000 -0.065942
26637.000000 1.484519 328.000000 330.000000 250.000000 -0.044899 277.000000 0.179489 309.000000 -0.068379 317.000000 -0.067536 15.000000 -0.077643 114.000000 0.151027 141.000000 -0.063551
26967.000000 1.414484 330.000000 336.000000 261.000000 -0.034013 284.000000 0.171081 314.000000 -0.068700 319.000000 -0.057931 15.000000 -0.062399 109.000000 0.155809 155.000000 -0.055676
27303.000000 1.330676 336.000000 318.000000 236.000000 -0.000042 266.000000 0.138878 288.000000 -0.068240 305.000000 -0.096048 16.000000 -0.141392 109.000000 0.137856 150.000000 -0.065236
27621.000000 1.480079 318.000000 312.000000 232.000000 -0.024859 262.000000 0.145372 279.000000 -0.011085 295.000000 -0.052557 16.000000 -0.129450 110.000000 0.129676 136.000000 -0.060936
28243.000000 1.579891 310.000000 315.000000 239.000000 -0.056725 265.000000 0.138668 290.000000 -0.040562 302.000000 -0.068854 14.000000 -0.089777 100.000000 0.126598 143.000000 -0.078340
28861.000000 1.599905 303.000000 293.000000 220.000000 -0.002474 242.000000 0.171459 262.000000 -0.028165 276.000000 -0.054516 14.000000 -0.128542 111.000000 0.115980 138.000000 -0.056447
29467.000000 1.407007 313.000000 315.000000 240.000000 -0.044273 261.000000 0.159864 283.000000 -0.040922 301.000000 -0.066300 12.000000 0.058791 111.000000 0.130747 143.000000 -0.060209
29782.000000 1.400816 315.000000 306.000000 228.000000 -0.030677 257.000000 0.153711 275.000000 -0.018390 289.000000 -0.056585 13.000000 0.017869 109.000000 0.112758 154.000000 -0.098950
30088.000000 1.344423 306.000000 298.000000 220.000000 -0.012007 248.000000 0.166660 269.000000 -0.032712 283.000000 -0.012163 13.000000 -0.050279 103.000000 0.110226 143.000000 -0.065966
31310.000000 1.241708 326.000000 324.000000 243.000000 -0.041033 273.000000 0.137698 295.000000 -0.038871 307.000000 -0.039028 9.000000 0.127602 111.000000 0.139191 141.000000 -0.022000
31634.000000 1.248809 324.000000 313.000000 223.000000 -0.027882 261.000000 0.141397 289.000000 -0.055594 298.000000 -0.082616 13.000000 -0.000530 109.000000 0.135159 135.000000 0.013041
31947.000000 1.305614 313.000000 315.000000 233.000000 -0.055943 262.000000 0.120076 283.000000 -0.039091 298.000000 -0.090359 17.000000 -0.134808 109.000000 0.148996 144.000000 -0.069081
32262.000000 1.497352 315.000000 303.000000 231.000000 -0.029478 253.000000 0.131368 283.000000 -0.094404 286.000000 -0.084231 14.000000 -0.146490 113.000000 0.155720 154.000000 -0.084733
32565.000000 1.458543 303.000000 301.000000 216.000000 -0.022017 251.000000 0.126540 271.000000 -0.033963 286.000000 -0.070876 15.000000 -0.135312 104.000000 0.164198 151.000000 -0.083261
32866.000000 1.408794 301.000000 298.000000 210.000000 -0.098449 247.000000 0.022616 260.000000 -0.062697 283.000000 -0.170501 14.000000 -0.045437 102.000000 0.180194 126.000000 -0.028099
33467.000000 1.105513 303.000000 624.000000 368.000000 -0.124640 420.000000 0.203591 464.000000 -0.050466 612.000000 -0.110818 16.000000 0.033098 310.000000 0.610847 342.000000 -0.111506
34391.000000 0.969564 300.000000 287.000000 212.000000 -0.060844 236.000000 0.069453 259.000000 -0.065454 275.000000 -0.095408 11.000000 -0.002458 103.000000 0.284296 151.000000 -0.101584
35288.000000 1.675865 309.000000 310.000000 223.000000 0.016960 257.000000 0.128511 290.000000 -0.046787 293.000000 -0.054891 13.000000 -0.093853 107.000000 0.206413 137.000000 0.026600
35598.000000 1.376457 310.000000 313.000000 218.000000 -0.055051 260.000000 0.137819 287.000000 -0.066852 300.000000 -0.075975 20.000000 -0.138778 108.000000 0.160477 150.000000 -0.033917
36529.000000 1.669830 313.000000 307.000000 230.000000 -0.060563 257.000000 0.136446 276.000000 0.019283 293.000000 -0.028915 17.000000 -0.100266 107.000000 0.122800 136.000000 -0.029205
38099.000000 1.346456 327.000000 330.000000 249.000000 -0.006910 279.000000 0.156821 292.000000 0.075471 318.000000 -0.064310 17.000000 -0.112275 115.000000 0.128827 149.000000 -0.025669
38748.000000 1.284340 319.000000 310.000000 237.000000 -0.071383 264.000000 0.151031 289.000000 -0.038450 295.000000 -0.025880 11.000000 0.045846 104.000000 0.071286 134.000000 -0.031580
40013.000000 1.364581 322.000000 325.000000 253.000000 -0.047649 272.000000 0.138697 305.000000 -0.101272 310.000000 -0.051836 13.000000 0.032949 111.000000 0.139057 147.000000 -0.038841
41829.000000 1.504987 287.000000 296.000000 206.000000 -0.027803 245.000000 0.101664 263.000000 -0.025278 281.000000 -0.061407 14.000000 -0.116989 107.000000 0.209046 148.000000 -0.079605
42990.000000 1.364355 277.000000 277.000000 207.000000 0.025616 224.000000 0.156982 255.000000 -0.040511 260.000000 -0.013349 9.000000 -0.031414 111.000000 0.203387 147.000000 -0.063477
43546.000000 1.263714 279.000000 270.000000 194.000000 -0.012760 217.000000 0.128244 240.000000 -0.040156 254.000000 -0.042177 12.000000 0.023963 104.000000 0.162533 152.000000 -0.078782
43816.000000 1.273939 270.000000 279.000000 202.000000 -0.023838 224.000000 0.153747 244.000000 -0.016270 263.000000 -0.038309 19.000000 -0.029494 106.000000 0.143156 132.000000 -0.104871
44095.000000 1.283226 279.000000 292.000000 212.000000 -0.065128 236.000000 0.093743 261.000000 -0.058904 280.000000 -0.012256 14.000000 0.057960 104.000000 0.062628 146.000000 -0.159299
44387.000000 1.408166 292.000000 289.000000 205.000000 -0.066030 233.000000 0.141463 252.000000 0.025382 275.000000 -0.018805 16.000000 -0.014529 111.000000 0.150754 151.000000 -0.142412
44676.000000 1.424612 289.000000 301.000000 217.000000 -0.013634 245.000000 0.113577 271.000000 -0.062978 288.000000 -0.086585 13.000000 -0.010765 113.000000 0.165155 152.000000 -0.106115
44977.000000 1.440154 301.000000 292.000000 204.000000 -0.052386 242.000000 0.161503 263.000000 -0.074078 279.000000 -0.077305 14.000000 -0.024126 111.000000 0.156538 147.000000 -0.086444
45553.000000 1.557601 284.000000 286.000000 207.000000 -0.003747 236.000000 0.163431 262.000000 -0.063764 272.000000 -0.057824 16.000000 -0.133338 104.000000 0.135254 134.000000 -0.118069
45839.000000 1.642520 286.000000 298.000000 218.000000 -0.028766 245.000000 0.142457 266.000000 -0.047950 282.000000 -0.033624 13.000000 -0.050550 107.000000 0.104764 156.000000 -0.104626
46440.000000 1.661442 303.000000 310.000000 232.000000 -0.006300 256.000000 0.166646 288.000000 -0.039639 294.000000 -0.020094 18.000000 -0.144484 117.000000 0.133871 156.000000 -0.111759
46750.000000 1.630970 310.000000 310.000000 219.000000 -0.085839 258.000000 0.132167 287.000000 -0.065778 294.000000 -0.064570 19.000000 -0.114704 107.000000 0.106391 155.000000 -0.105078
47060.000000 1.589268 310.000000 299.000000 153.000000 -0.034229 249.000000 0.136455 269.000000 -0.041540 285.000000 -0.046211 16.000000 -0.086250 110.000000 0.138706 140.000000 -0.026251
47359.000000 1.419183 299.000000 296.000000 215.000000 0.005785 248.000000 0.262663 272.000000 -0.124203 276.000000 -0.098968 12.000000 -0.020628 112.000000 0.060211 148.000000 -0.155261
47655.000000 1.706237 296.000000 289.000000 140.000000 -0.231518 186.000000 0.314155 196.000000 0.178653 276.000000 -0.042352 15.000000 -0.059702 94.000000 0.478968 105.000000 0.243937
47944.000000 1.491269 289.000000 283.000000 200.000000 -0.099939 238.000000 0.217258 248.000000 -0.077852 270.000000 -0.021551 17.000000 -0.055251 98.000000 0.063765 137.000000 -0.183870
50248.000000 1.893544 271.000000 279.000000 133.000000 0.021944 174.000000 0.322006 203.000000 0.172961 263.000000 -0.014812 16.000000 -0.204811 106.000000 0.186881 133.000000 0.021944
50527.000000 1.710627 279.000000 288.000000 151.000000 -0.163637 217.000000 0.263761 263.000000 -0.184514 273.000000 -0.215862 16.000000 0.072053 110.000000 0.217208 151.000000 -0.163637
51114.000000 1.717790 299.000000 285.000000 204.000000 0.030783 233.000000 0.270406 248.000000 -0.145205 272.000000 -0.306928 17.000000 -0.196425 108.000000 0.213809 142.000000 -0.133636
51687.000000 1.771675 288.000000 278.000000 206.000000 -0.006770 228.000000 0.090878 236.000000 0.026958 264.000000 -0.075706 13.000000 0.003822 106.000000 0.229329 149.000000 -0.091800
51965.000000 1.734984 278.000000 273.000000 195.000000 0.015346 228.000000 0.163559 245.000000 -0.064215 260.000000 -0.136032 12.000000 -0.045032 109.000000 0.105704 134.000000 -0.048041
53087.000000 1.403574 294.000000 293.000000 218.000000 -0.006131 240.000000 0.171988 263.000000 -0.069420 280.000000 -0.108699 10.000000 0.165707 109.000000 0.097272 154.000000 -0.151615
55107.000000 1.542462 294.000000 298.000000 215.000000 -0.151389 245.000000 0.000993 254.000000 -0.016140 281.000000 -0.297629 19.000000 -0.080954 107.000000 0.131583 152.000000 -0.154716
55405.000000 1.807354 298.000000 304.000000 228.000000 -0.037496 253.000000 0.085310 275.000000 -0.079112 288.000000 -0.096087 16.000000 -0.188682 111.000000 0.212731 153.000000 -0.104997
57252.000000 1.581597 335.000000 339.000000 253.000000 -0.039135 284.000000 0.163639 315.000000 -0.081987 324.000000 -0.058492 12.000000 0.144496 108.000000 0.148920 152.000000 -0.083842
58845.000000 1.612331 304.000000 320.000000 242.000000 -0.033532 269.000000 0.134809 291.000000 -0.053701 304.000000 -0.063357 21.000000 -0.110286 112.000000 0.138345 151.000000 -0.092863
60156.000000 1.606974 335.000000 320.000000 245.000000 -0.041750 268.000000 0.116931 293.000000 -0.064700 305.000000 -0.091380 19.000000 -0.117870 109.000000 0.101706 155.000000 -0.067243
62359.000000 1.610677 302.000000 312.000000 235.000000 -0.034814 261.000000 0.123381 280.000000 -0.051321 298.000000 -0.075663 12.000000 0.050960 105.000000 0.096213 144.000000 -0.080496
64627.000000 1.603055 336.000000 302.000000 229.000000 -0.040498 250.000000 0.088061 271.000000 -0.064950 287.000000 -0.080014 14.000000 -0.060582 109.000000 0.115074 150.000000 -0.072021
64929.000000 1.670814 302.000000 315.000000 234.000000 -0.033445 263.000000 0.141102 285.000000 -0.065559 302.000000 -0.095811 15.000000 -0.116097 101.000000 0.117502 138.000000 -0.091610
65906.000000 1.674657 331.000000 318.000000 232.000000 -0.058335 264.000000 0.133124 288.000000 -0.082016 302.000000 -0.086045 11.000000 0.085786 112.000000 0.087106 161.000000 -0.068325
66564.000000 1.854296 340.000000 325.000000 244.000000 -0.043386 273.000000 0.164246 296.000000 -0.064780 311.000000 -0.073416 15.000000 -0.059435 110.000000 0.098428 151.000000 -0.074081
67198.000000 1.819703 309.000000 311.000000 236.000000 -0.051366 261.000000 0.140795 276.000000 0.041704 295.000000 -0.032058 14.000000 -0.075407 102.000000 0.103184 150.000000 -0.107132
68505.000000 1.571958 342.000000 325.000000 242.000000 -0.017687 271.000000 0.125592 279.000000 0.034182 309.000000 -0.083875 14.000000 -0.022729 112.000000 0.113119 143.000000 -0.040110
68830.000000 1.726424 325.000000 306.000000 223.000000 -0.070646 252.000000 0.089964 260.000000 0.033679 292.000000 -0.088968 16.000000 -0.114137 107.000000 0.111575 151.000000 -0.123257
69136.000000 1.722349 306.000000 309.000000 232.000000 -0.037201 258.000000 0.141310 270.000000 0.052501 294.000000 -0.057473 15.000000 -0.127464 100.000000 0.143814 152.000000 -0.101430
69757.000000 1.703447 312.000000 325.000000 246.000000 -0.048348 271.000000 0.129207 296.000000 -0.074021 312.000000 -0.120075 16.000000 -0.080251 105.000000 0.160673 137.000000 -0.056678
70082.000000 1.668793 325.000000 335.000000 256.000000 -0.053231 279.000000 0.163949 307.000000 -0.051274 320.000000 -0.071102 14.000000 -0.036397 108.000000 0.128019 151.000000 -0.071775
70417.000000 1.700970 335.000000 334.000000 252.000000 -0.061381 280.000000 0.140108 288.000000 0.049010 319.000000 -0.058654 15.000000 -0.035798 112.000000 0.130892 153.000000 -0.069154
71400.000000 1.720768 313.000000 309.000000 233.000000 -0.048131 261.000000 0.119379 290.000000 -0.084260 296.000000 -0.103949 18.000000 -0.165802 106.000000 0.162768 154.000000 -0.105032
73002.000000 2.048387 323.000000 304.000000 228.000000 -0.032238 253.000000 0.102180 283.000000 -0.094466 289.000000 -0.082835 9.000000 -0.095517 112.000000 0.169502 153.000000 -0.114478
73600.000000 2.052981 294.000000 312.000000 213.000000 -0.053234 258.000000 0.162142 263.000000 0.091704 292.000000 -0.050585 17.000000 -0.166014 107.000000 0.128624 158.000000 -0.156111
73912.000000 2.046204 312.000000 317.000000 233.000000 -0.037258 264.000000 0.136159 286.000000 -0.084186 303.000000 -0.113309 15.000000 -0.062102 108.000000 0.247100 137.000000 0.017459
74229.000000 1.931502 317.000000 327.000000 248.000000 -0.043692 271.000000 0.122139 292.000000 -0.073695 314.000000 -0.114919 14.000000 -0.079123 110.000000 0.146679 149.000000 -0.124623
74556.000000 1.864406 327.000000 340.000000 253.000000 -0.065526 283.000000 0.148313 297.000000 0.063830 326.000000 -0.082535 13.000000 -0.040610 112.000000 0.157007 151.000000 -0.070861
74896.000000 1.843764 340.000000 317.000000 238.000000 -0.070529 263.000000 0.098359 287.000000 -0.075731 302.000000 -0.079087 11.000000 0.023322 113.000000 0.217242 157.000000 -0.060753
75213.000000 1.892446 317.000000 323.000000 243.000000 -0.056077 270.000000 0.096572 290.000000 -0.070810 307.000000 -0.094341 17.000000 -0.127088 112.000000 0.176844 151.000000 -0.078815
76167.000000 1.882037 314.000000 326.000000 237.000000 -0.043811 272.000000 0.158130 308.000000 -0.080553 311.000000 -0.111336 17.000000 -0.137836 104.000000 0.184298 150.000000 -0.108698
76493.000000 1.840232 326.000000 337.000000 257.000000 -0.038186 284.000000 0.141891 300.000000 0.035530 323.000000 -0.069799 16.000000 -0.107197 114.000000 0.142807 152.000000 -0.074042
77161.000000 1.828779 331.000000 336.000000 253.000000 -0.055360 281.000000 0.117589 303.000000 -0.041016 319.000000 -0.097943 13.000000 -0.027885 108.000000 0.181873 152.000000 -0.100167
77827.000000 1.779917 330.000000 320.000000 242.000000 -0.008705 268.000000 0.150199 291.000000 -0.034550 304.000000 -0.057404 17.000000 -0.114957 100.000000 0.135145 129.000000 -0.037157
78147.000000 1.971282 320.000000 327.000000 237.000000 -0.054453 273.000000 0.109122 295.000000 -0.079421 312.000000 -0.105785 14.000000 -0.079139 108.000000 0.145963 149.000000 -0.074261
78474.000000 1.892445 327.000000 340.000000 253.000000 -0.081410 285.000000 0.117587 308.000000 -0.065408 328.000000 -0.084500 21.000000 -0.143120 107.000000 0.192967 145.000000 -0.091216
79159.000000 1.877495 345.000000 356.000000 257.000000 -0.055786 299.000000 0.133914 324.000000 -0.063501 342.000000 -0.069989 20.000000 -0.158789 118.000000 0.167962 156.000000 -0.070894
80464.000000 1.704140 304.000000 308.000000 224.000000 -0.015498 253.000000 0.130085 277.000000 -0.068301 293.000000 -0.095261 18.000000 -0.123553 110.000000 0.185834 134.000000 -0.012148
81107.000000 1.780171 335.000000 345.000000 248.000000 -0.050457 288.000000 0.158469 313.000000 -0.050715 330.000000 -0.072879 18.000000 -0.113278 115.000000 0.138642 153.000000 -0.083426
81452.000000 1.753075 345.000000 337.000000 262.000000 -0.036606 285.000000 0.123974 309.000000 -0.057106 322.000000 -0.068970 14.000000 -0.013809 114.000000 0.123959 153.000000 -0.075523
83107.000000 1.545233 335.000000 326.000000 244.000000 -0.044236 271.000000 0.129369 294.000000 -0.050928 310.000000 -0.085693 15.000000 -0.128718 113.000000 0.125976 117.000000 0.084503
83433.000000 1.690435 326.000000 343.000000 258.000000 -0.026649 290.000000 0.140827 310.000000 -0.061305 327.000000 -0.089924 17.000000 -0.115990 113.000000 0.170751 152.000000 -0.083545
84427.000000 1.818934 310.000000 307.000000 228.000000 -0.047495 254.000000 0.099213 284.000000 -0.108952 292.000000 -0.092055 15.000000 -0.147068 103.000000 0.182601 153.000000 -0.107039
85072.000000 1.810136 338.000000 345.000000 256.000000 -0.040059 290.000000 0.142780 313.000000 -0.080982 328.000000 -0.074685 18.000000 -0.159000 111.000000 0.132232 155.000000 -0.107559
85752.000000 1.659310 335.000000 316.000000 248.000000 0.030095 265.000000 0.150628 281.000000 0.002698 301.000000 0.006680 19.000000 -0.122680 114.000000 0.103449 158.000000 -0.120468
86068.000000 1.900770 316.000000 303.000000 221.000000 -0.087809 248.000000 0.058571 257.000000 -0.024877 287.000000 -0.152289 15.000000 -0.040612 110.000000 0.162898 152.000000 -0.084689
86683.000000 1.937035 312.000000 309.000000 234.000000 -0.010754 257.000000 0.151847 268.000000 0.087175 294.000000 -0.054065 17.000000 -0.131101 108.000000 0.132838 153.000000 -0.112963
86992.000000 1.801577 309.000000 313.000000 229.000000 -0.069623 260.000000 0.114230 281.000000 -0.093609 299.000000 -0.100393 8.000000 0.240231 109.000000 0.141917 162.000000 -0.124037
87305.000000 1.762444 313.000000 349.000000 268.000000 -0.028373 291.000000 0.155547 328.000000 -0.080957 333.000000 -0.054971 11.000000 -0.025768 114.000000 0.157473 151.000000 -0.048972
87654.000000 1.690388 349.000000 346.000000 261.000000 -0.035247 292.000000 0.140943 311.000000 -0.031454 340.000000 0.101807 13.000000 0.055906 122.000000 0.153124 153.000000 -0.052319
88000.000000 1.754268 346.000000 338.000000 257.000000 -0.049367 285.000000 0.117279 306.000000 -0.096327 324.000000 -0.110231 5.000000 0.296431 117.000000 0.129868 153.000000 -0.048851
88338.000000 1.821929 338.000000 329.000000 241.000000 -0.046225 278.000000 0.123428 300.000000 -0.047215 313.000000 -0.054688 15.000000 -0.120159 109.000000 0.154992 153.000000 -0.098311
88667.000000 1.825031 329.000000 331.000000 240.000000 -0.082901 279.000000 0.113728 316.000000 -0.087871 319.000000 -0.098105 16.000000 -0.134387 110.000000 0.169429 152.000000 -0.075856
89345.000000 1.776597 347.000000 353.000000 256.000000 -0.054902 298.000000 0.125924 325.000000 -0.071006 337.000000 -0.079062 16.000000 -0.087397 117.000000 0.179836 155.000000 -0.095153
90060.000000 1.888119 362.000000 338.000000 245.000000 -0.093008 283.000000 0.113089 306.000000 -0.094779 324.000000 -0.098431 15.000000 -0.108649 115.000000 0.199255 153.000000 -0.066233
91743.000000 1.649061 347.000000 351.000000 272.000000 -0.021574 295.000000 0.164054 320.000000 -0.069192 334.000000 -0.069628 14.000000 -0.072272 120.000000 0.153785 153.000000 -0.057580
92094.000000 1.885185 351.000000 353.000000 260.000000 -0.039469 300.000000 0.141642 322.000000 -0.077306 337.000000 -0.090363 11.000000 -0.075895 117.000000 0.153268 155.000000 -0.108373
92791.000000 1.906115 344.000000 339.000000 262.000000 -0.051717 285.000000 0.114192 308.000000 -0.041291 325.000000 -0.030725 18.000000 -0.114295 103.000000 0.162520 148.000000 -0.078450
93471.000000 1.689783 341.000000 346.000000 255.000000 -0.067067 293.000000 0.125220 315.000000 -0.082241 331.000000 -0.064198 17.000000 -0.097806 107.000000 0.177100 151.000000 -0.071502
93817.000000 1.700861 346.000000 340.000000 260.000000 -0.041023 285.000000 0.103412 308.000000 -0.081681 327.000000 -0.095269 14.000000 -0.054768 109.000000 0.146701 155.000000 -0.063904
94157.000000 1.634232 340.000000 359.000000 273.000000 -0.036188 304.000000 0.113359 314.000000 0.068783 344.000000 -0.071454 16.000000 -0.100171 116.000000 0.177125 153.000000 -0.070935
96589.000000 1.429028 363.000000 351.000000 265.000000 -0.045726 299.000000 0.104777 322.000000 -0.064797 335.000000 -0.074797 14.000000 -0.044359 109.000000 0.155621 153.000000 -0.076586
97284.000000 1.488387 344.000000 328.000000 249.000000 0.006231 278.000000 0.103394 303.000000 -0.078784 313.000000 -0.104032 17.000000 -0.132633 105.000000 0.139101 138.000000 -0.039143
97612.000000 1.644764 328.000000 337.000000 257.000000 -0.032543 285.000000 0.131140 318.000000 -0.064015 320.000000 -0.049250 15.000000 -0.085232 108.000000 0.164599 153.000000 -0.103349
98290.000000 1.650187 341.000000 357.000000 274.000000 -0.020998 305.000000 0.147871 319.000000 -0.001064 342.000000 -0.078524 16.000000 -0.097307 113.000000 0.161828 152.000000 -0.084459
98647.000000 1.621728 357.000000 364.000000 280.000000 -0.043835 312.000000 0.136604 341.000000 -0.070873 353.000000 -0.133116 13.000000 -0.002362 121.000000 0.140629 155.000000 -0.065362
99358.000000 1.480126 347.000000 334.000000 255.000000 -0.045274 283.000000 0.122940 297.000000 0.021592 320.000000 -0.095144 18.000000 -0.093500 106.000000 0.129426 145.000000 -0.061244
99692.000000 1.396754 334.000000 323.000000 246.000000 -0.010233 271.000000 0.125948 299.000000 -0.076167 307.000000 -0.077719 12.000000 -0.066380 108.000000 0.150872 142.000000 -0.028028
100722.000000 1.655076 362.000000 363.000000 284.000000 -0.021194 308.000000 0.134683 322.000000 0.044356 348.000000 -0.091472 17.000000 -0.121177 115.000000 0.145545 156.000000 -0.068923
101426.000000 1.619894 341.000000 345.000000 265.000000 -0.018136 292.000000 0.108257 312.000000 -0.058858 327.000000 -0.093874 20.000000 -0.136317 114.000000 0.156610 151.000000 -0.062261
101771.000000 1.659074 345.000000 341.000000 238.000000 -0.039718 289.000000 0.106614 321.000000 -0.072369 326.000000 -0.068011 16.000000 -0.123793 111.000000 0.160127 143.000000 -0.057584
103197.000000 1.380495 373.000000 358.000000 278.000000 -0.031958 306.000000 0.131690 317.000000 0.052788 342.000000 -0.064499 14.000000 -0.033534 115.000000 0.135011 154.000000 -0.056561
103555.000000 1.285863 358.000000 326.000000 248.000000 -0.016571 275.000000 0.166251 286.000000 0.081737 311.000000 -0.028167 17.000000 -0.131171 110.000000 0.136034 150.000000 -0.034078
103881.000000 1.616537 326.000000 329.000000 249.000000 -0.069264 276.000000 0.107209 299.000000 -0.082382 312.000000 -0.099154 12.000000 0.015564 102.000000 0.157479 118.000000 0.026461
104210.000000 1.501974 329.000000 338.000000 256.000000 -0.023461 284.000000 0.153245 306.000000 -0.010454 323.000000 -0.052382 21.000000 -0.155612 110.000000 0.174314 150.000000 -0.058206
104548.000000 1.607711 338.000000 334.000000 248.000000 -0.063902 280.000000 0.114780 293.000000 0.056740 321.000000 -0.113542 16.000000 -0.085708 114.000000 0.146182 153.000000 -0.095462
106842.000000 1.705753 338.000000 366.000000 279.000000 -0.042532 309.000000 0.145707 319.000000 0.059342 351.000000 -0.063042 19.000000 -0.164873 119.000000 0.160650 149.000000 -0.092408
107208.000000 1.749152 366.000000 359.000000 276.000000 -0.040735 303.000000 0.130599 326.000000 -0.076924 344.000000 -0.081611 17.000000 -0.082403 114.000000 0.188920 156.000000 -0.083131
107567.000000 1.788153 359.000000 350.000000 261.000000 -0.070613 297.000000 0.106327 318.000000 -0.065160 334.000000 -0.108248 14.000000 -0.021534 114.000000 0.223650 152.000000 -0.062560
108574.000000 1.920565 322.000000 344.000000 252.000000 -0.058867 288.000000 0.133228 299.000000 0.069732 326.000000 -0.090628 17.000000 -0.146645 108.000000 0.211592 153.000000 -0.080778
108918.000000 1.939421 344.000000 356.000000 249.000000 -0.088007 298.000000 0.126455 317.000000 -0.015347 340.000000 -0.077040 24.000000 -0.153821 113.000000 0.231779 155.000000 -0.080683
109274.000000 1.875185 356.000000 360.000000 266.000000 -0.045665 304.000000 0.124838 338.000000 -0.062559 343.000000 -0.092605 16.000000 -0.131069 116.000000 0.228786 157.000000 -0.047906
109634.000000 1.804342 360.000000 364.000000 278.000000 -0.045171 308.000000 0.137351 321.000000 0.055925 356.000000 -0.127194 17.000000 -0.112411 116.000000 0.230682 155.000000 -0.100794
109998.000000 1.723308 364.000000 348.000000 267.000000 -0.059717 293.000000 0.141988 326.000000 -0.085880 332.000000 -0.075722 4.000000 0.573669 112.000000 0.235869 152.000000 -0.089292
110346.000000 1.705879 348.000000 345.000000 264.000000 -0.045283 292.000000 0.119889 301.000000 0.042648 331.000000 -0.108402 16.000000 -0.087176 107.000000 0.233647 148.000000 -0.079928
110691.000000 1.667681 345.000000 355.000000 249.000000 -0.061080 301.000000 0.173825 323.000000 -0.071459 342.000000 -0.093873 14.000000 -0.056659 104.000000 0.233374 154.000000 -0.115798
111791.000000 1.758183 382.000000 374.000000 293.000000 -0.013090 321.000000 0.122191 347.000000 -0.055301 361.000000 -0.081744 14.000000 -0.005703 114.000000 0.233654 156.000000 -0.071394
112165.000000 1.722913 374.000000 356.000000 243.000000 -0.069389 303.000000 0.141225 326.000000 -0.062458 341.000000 -0.063527 10.000000 0.147585 108.000000 0.229506 150.000000 -0.091372
113615.000000 1.637882 371.000000 369.000000 282.000000 -0.036313 313.000000 0.172216 325.000000 0.080931 352.000000 -0.060245 22.000000 -0.140849 119.000000 0.175202 153.000000 -0.063274
119845.000000 1.633542 334.000000 325.000000 246.000000 -0.125814 269.000000 0.053699 282.000000 -0.009201 310.000000 -0.115078 14.000000 0.014575 115.000000 0.276772 154.000000 -0.056346
120502.000000 1.786254 332.000000 321.000000 242.000000 -0.048532 268.000000 0.128869 302.000000 -0.074656 306.000000 -0.080235 16.000000 -0.030833 110.000000 0.207275 154.000000 -0.105624
120823.000000 1.757681 321.000000 324.000000 236.000000 -0.069213 270.000000 0.090677 303.000000 -0.087365 307.000000 -0.079575 15.000000 -0.024465 112.000000 0.161023 153.000000 -0.105109
121458.000000 1.860770 311.000000 302.000000 208.000000 -0.028337 247.000000 0.100474 271.000000 -0.095845 287.000000 -0.127697 11.000000 -0.090124 104.000000 0.226814 150.000000 -0.089031
121760.000000 1.834983 302.000000 331.000000 240.000000 -0.068637 275.000000 0.143087 303.000000 -0.091849 314.000000 -0.111598 14.000000 -0.164721 109.000000 0.224728 151.000000 -0.084157
122091.000000 1.906931 331.000000 354.000000 250.000000 -0.097163 297.000000 0.149811 326.000000 -0.059249 338.000000 -0.102948 19.000000 -0.154935 113.000000 0.213442 154.000000 -0.079994
122802.000000 1.974295 357.000000 342.000000 253.000000 -0.058227 289.000000 0.160678 300.000000 0.077135 327.000000 -0.087395 16.000000 -0.141189 114.000000 0.196910 154.000000 -0.101320
123475.000000 1.941771 331.000000 348.000000 252.000000 -0.062148 292.000000 0.132552 305.000000 0.047128 331.000000 -0.085927 16.000000 -0.084371 108.000000 0.232966 153.000000 -0.115077
123823.000000 1.895739 348.000000 355.000000 251.000000 -0.088103 299.000000 0.155999 323.000000 -0.065599 339.000000 -0.093795 20.000000 -0.131143 109.000000 0.234976 151.000000 -0.084599
124893.000000 1.824045 358.000000 339.000000 257.000000 -0.082458 286.000000 0.139783 300.000000 0.040284 321.000000 -0.080155 19.000000 -0.114921 113.000000 0.214850 154.000000 -0.094195
125889.000000 1.934515 327.000000 338.000000 245.000000 -0.091084 282.000000 0.116220 305.000000 -0.080927 323.000000 -0.120094 14.000000 -0.070076 108.000000 0.255584 110.000000 0.243013
126227.000000 1.882633 338.000000 364.000000 229.000000 -0.093871 307.000000 0.147985 321.000000 0.068642 348.000000 -0.113289 17.000000 -0.155990 117.000000 0.214706 155.000000 -0.104190
127298.000000 1.863371 346.000000 338.000000 255.000000 -0.073155 284.000000 0.126575 307.000000 -0.073174 323.000000 -0.092904 15.000000 -0.066959 110.000000 0.219821 153.000000 -0.118724
127636.000000 1.854623 338.000000 331.000000 245.000000 -0.052241 278.000000 0.141066 303.000000 -0.075941 315.000000 -0.068356 21.000000 -0.104090 107.000000 0.235609 138.000000 -0.082778
128290.000000 1.877180 323.000000 341.000000 246.000000 -0.085888 285.000000 0.125556 293.000000 0.057970 324.000000 -0.091014 19.000000 -0.114734 113.000000 0.247610 154.000000 -0.101779
128631.000000 1.880504 341.000000 353.000000 272.000000 -0.068240 299.000000 0.143000 321.000000 -0.084791 338.000000 -0.101126 14.000000 0.013479 114.000000 0.228425 154.000000 -0.083155
129352.000000 1.940893 368.000000 341.000000 261.000000 -0.026569 287.000000 0.187473 309.000000 -0.003342 328.000000 -0.073044 14.000000 0.094794 113.000000 0.189641 152.000000 -0.109701
131319.000000 1.816442 331.000000 327.000000 248.000000 -0.073459 274.000000 0.112326 307.000000 -0.105121 313.000000 -0.105498 18.000000 -0.090467 114.000000 0.217962 156.000000 -0.080423
132266.000000 1.567537 310.000000 309.000000 233.000000 -0.006637 257.000000 0.156950 280.000000 -0.067298 295.000000 -0.082880 15.000000 -0.098201 110.000000 0.181265 137.000000 -0.034797
135299.000000 1.649611 195.000000 425.000000 349.000000 -0.006628 374.000000 0.162853 405.000000 -0.058054 410.000000 -0.062944 15.000000 -0.045486 112.000000 0.187945 139.000000 -0.043103
136087.000000 1.849025 363.000000 347.000000 270.000000 -0.053686 294.000000 0.108870 323.000000 -0.097210 329.000000 -0.103683 15.000000 -0.071258 105.000000 0.203557 153.000000 -0.086411
136434.000000 1.839515 347.000000 351.000000 254.000000 -0.063163 298.000000 0.143499 328.000000 -0.064684 333.000000 -0.065516 18.000000 -0.121846 112.000000 0.216882 155.000000 -0.089937
136785.000000 1.823682 351.000000 352.000000 253.000000 -0.068149 298.000000 0.149048 323.000000 -0.057222 336.000000 -0.081171 17.000000 -0.116067 109.000000 0.197218 152.000000 -0.083645
137137.000000 1.722682 352.000000 370.000000 260.000000 -0.069668 313.000000 0.129503 343.000000 -0.072707 354.000000 -0.100716 13.000000 -0.006787 116.000000 0.229863 153.000000 -0.059586
137507.000000 1.749579 370.000000 379.000000 299.000000 -0.022100 324.000000 0.138888 339.000000 0.046537 366.000000 -0.085015 20.000000 -0.128198 120.000000 0.227786 153.000000 -0.052451
138232.000000 1.870862 346.000000 349.000000 265.000000 -0.046460 295.000000 0.125689 322.000000 -0.089371 336.000000 -0.093946 15.000000 -0.123793 108.000000 0.208557 153.000000 -0.110505
138581.000000 1.813765 349.000000 353.000000 251.000000 -0.072963 299.000000 0.137598 322.000000 -0.066366 336.000000 -0.065379 14.000000 -0.028259 113.000000 0.230843 156.000000 -0.086166
138934.000000 1.758839 353.000000 376.000000 289.000000 -0.014938 319.000000 0.150114 332.000000 0.054690 358.000000 -0.083694 16.000000 -0.075674 114.000000 0.227693 156.000000 -0.052168
139310.000000 1.650614 376.000000 379.000000 296.000000 -0.011651 322.000000 0.139680 352.000000 -0.059509 360.000000 -0.088866 9.000000 0.193702 116.000000 0.204691 157.000000 -0.064965
139689.000000 1.711286 379.000000 373.000000 284.000000 -0.028091 319.000000 0.156863 328.000000 0.049700 359.000000 -0.100900 18.000000 -0.122684 115.000000 0.227013 154.000000 -0.064821
140433.000000 1.650456 371.000000 342.000000 258.000000 -0.039810 289.000000 0.145271 312.000000 -0.087268 326.000000 -0.093916 16.000000 -0.129951 111.000000 0.204359 153.000000 -0.070532
140775.000000 1.758167 342.000000 351.000000 264.000000 -0.081520 296.000000 0.127696 319.000000 -0.061301 337.000000 -0.100427 14.000000 -0.059716 111.000000 0.256600 154.000000 -0.116409
141126.000000 1.829182 351.000000 368.000000 250.000000 -0.066895 311.000000 0.136511 337.000000 -0.079182 353.000000 -0.086864 15.000000 -0.050786 112.000000 0.238155 155.000000 -0.085056
141494.000000 1.763525 368.000000 379.000000 292.000000 -0.017309 322.000000 0.151203 345.000000 -0.058452 365.000000 -0.099985 16.000000 -0.045020 117.000000 0.214975 154.000000 -0.070385
141873.000000 1.673231 379.000000 377.000000 292.000000 -0.051020 322.000000 0.136271 349.000000 -0.084136 362.000000 -0.068713 17.000000 -0.137018 117.000000 0.218647 126.000000 0.146563
144808.000000 1.660834 369.000000 348.000000 249.000000 -0.035633 296.000000 0.160620 319.000000 -0.036245 332.000000 -0.068233 15.000000 -0.116094 114.000000 0.166035 154.000000 -0.101445
145156.000000 1.777728 348.000000 351.000000 263.000000 -0.064165 298.000000 0.120674 333.000000 -0.079889 336.000000 -0.089529 16.000000 -0.105780 112.000000 0.222423 152.000000 -0.088880
145507.000000 1.742932 351.000000 370.000000 286.000000 -0.037199 311.000000 0.123365 323.000000 0.045652 353.000000 -0.098200 17.000000 -0.093746 113.000000 0.245636 153.000000 -0.053862
146249.000000 1.766411 372.000000 354.000000 277.000000 -0.062354 301.000000 0.102739 325.000000 -0.132041 340.000000 -0.157041 11.000000 0.054782 120.000000 0.215701 155.000000 -0.058877
149881.000000 1.752180 361.000000 378.000000 249.000000 -0.080704 322.000000 0.143945 346.000000 -0.077358 362.000000 -0.091070 11.000000 0.041334 114.000000 0.208562 118.000000 0.169439
150259.000000 1.766769 378.000000 389.000000 305.000000 -0.037582 336.000000 0.155334 368.000000 -0.071501 372.000000 -0.062505 19.000000 -0.113980 121.000000 0.225263 157.000000 -0.051228
151012.000000 1.826300 364.000000 354.000000 249.000000 -0.068493 302.000000 0.116190 325.000000 -0.082211 337.000000 -0.116928 18.000000 -0.108528 111.000000 0.211424 154.000000 -0.078903
152092.000000 1.654513 364.000000 377.000000 292.000000 -0.031110 322.000000 0.155788 332.000000 0.059331 363.000000 -0.077741 14.000000 -0.064907 118.000000 0.214602 156.000000 -0.070995
153243.000000 1.619216 383.000000 354.000000 276.000000 -0.049414 301.000000 0.124395 325.000000 -0.078505 340.000000 -0.076579 19.000000 -0.113919 112.000000 0.204516 153.000000 -0.048183
153960.000000 1.741159 363.000000 383.000000 293.000000 -0.069391 325.000000 0.134293 347.000000 -0.053812 369.000000 -0.088871 10.000000 0.162853 114.000000 0.240427 154.000000 -0.078695
154722.000000 1.782229 379.000000 378.000000 296.000000 -0.043103 324.000000 0.116424 333.000000 0.063321 361.000000 -0.094876 16.000000 -0.096704 115.000000 0.225368 155.000000 -0.093220
155837.000000 1.711864 361.000000 349.000000 268.000000 -0.045079 297.000000 0.129403 320.000000 -0.089828 334.000000 -0.092165 18.000000 -0.119779 114.000000 0.221389 154.000000 -0.056307
156555.000000 1.791756 369.000000 389.000000 301.000000 -0.040771 330.000000 0.136531 341.000000 0.083711 371.000000 -0.076381 18.000000 -0.119688 119.000000 0.241657 154.000000 -0.063640
156944.000000 1.769561 389.000000 379.000000 294.000000 -0.027885 325.000000 0.147489 347.000000 -0.068514 362.000000 -0.074766 17.000000 -0.102492 120.000000 0.230306 155.000000 -0.060633
157323.000000 1.788728 379.000000 349.000000 264.000000 -0.076076 294.000000 0.121557 320.000000 -0.093757 334.000000 -0.126579 16.000000 -0.065316 119.000000 0.236870 155.000000 -0.037300
157672.000000 1.823043 349.000000 355.000000 271.000000 -0.081746 302.000000 0.107785 325.000000 -0.119629 337.000000 -0.126383 16.000000 -0.096081 113.000000 0.274179 155.000000 -0.099283
159866.000000 1.705346 378.000000 349.000000 264.000000 -0.030801 294.000000 0.165171 322.000000 -0.075066 336.000000 -0.087414 15.000000 -0.116551 109.000000 0.201963 153.000000 -0.063379
160573.000000 1.774043 358.000000 377.000000 294.000000 -0.032067 324.000000 0.139407 352.000000 -0.068619 363.000000 -0.076927 10.000000 0.165626 111.000000 0.236588 154.000000 -0.096466
162455.000000 1.664937 369.000000 363.000000 281.000000 -0.036290 310.000000 0.141109 331.000000 -0.082044 348.000000 -0.087215 14.000000 -0.086125 113.000000 0.218660 154.000000 -0.060023
164333.000000 1.758934 362.000000 358.000000 240.000000 -0.077175 305.000000 0.130137 335.000000 -0.087465 342.000000 -0.095160 15.000000 -0.050865 112.000000 0.210553 154.000000 -0.105102
165053.000000 1.729502 362.000000 387.000000 294.000000 -0.043495 330.000000 0.136339 357.000000 -0.076233 371.000000 -0.072410 15.000000 -0.044562 117.000000 0.222045 153.000000 -0.059515
165832.000000 1.704656 392.000000 370.000000 288.000000 -0.020875 318.000000 0.148887 328.000000 0.065627 355.000000 -0.068511 21.000000 -0.131616 114.000000 0.215555 153.000000 -0.093459
166558.000000 1.673010 356.000000 361.000000 281.000000 -0.043861 309.000000 0.125231 333.000000 -0.088189 348.000000 -0.085177 18.000000 -0.111649 108.000000 0.235589 155.000000 -0.076758
167654.000000 1.743997 362.000000 375.000000 251.000000 -0.107082 319.000000 0.144320 343.000000 -0.051822 362.000000 -0.033013 17.000000 -0.119343 117.000000 0.227080 154.000000 -0.104782
169053.000000 1.835392 326.000000 337.000000 259.000000 -0.051472 283.000000 0.119372 305.000000 -0.079059 319.000000 -0.095768 12.000000 0.026143 114.000000 0.237718 155.000000 -0.086508
169764.000000 1.769306 374.000000 364.000000 275.000000 -0.046898 308.000000 0.147017 337.000000 -0.084597 349.000000 -0.090396 16.000000 -0.089566 124.000000 0.202882 155.000000 -0.046394
170128.000000 1.866361 364.000000 352.000000 256.000000 -0.084575 300.000000 0.143681 321.000000 -0.078986 337.000000 -0.077762 15.000000 -0.065408 119.000000 0.216354 156.000000 -0.067316
173700.000000 1.607024 372.000000 386.000000 300.000000 -0.040958 329.000000 0.130358 355.000000 -0.078372 372.000000 -0.108403 19.000000 -0.117396 114.000000 0.205620 155.000000 -0.079456
175192.000000 1.623607 360.000000 352.000000 278.000000 -0.034388 301.000000 0.120657 323.000000 -0.066473 339.000000 -0.081222 12.000000 0.045125 114.000000 0.208248 155.000000 -0.070812
178388.000000 1.735598 359.000000 363.000000 244.000000 -0.079417 308.000000 0.134287 336.000000 -0.073093 348.000000 -0.089284 17.000000 -0.101739 119.000000 0.178067 154.000000 -0.083106
179490.000000 1.530517 361.000000 345.000000 261.000000 -0.058098 293.000000 0.113817 302.000000 0.045681 329.000000 -0.092472 14.000000 -0.046412 112.000000 0.198671 154.000000 -0.051468
180597.000000 1.602947 384.000000 377.000000 282.000000 -0.082659 319.000000 0.108048 343.000000 -0.067987 361.000000 -0.083930 16.000000 -0.071239 122.000000 0.230159 162.000000 -0.030364
181342.000000 1.766078 368.000000 348.000000 263.000000 -0.069345 294.000000 0.139163 318.000000 -0.072639 331.000000 -0.066477 15.000000 -0.085193 110.000000 0.201050 154.000000 -0.115027
182042.000000 1.682321 352.000000 344.000000 261.000000 -0.000875 288.000000 0.150880 296.000000 0.066539 326.000000 -0.072442 18.000000 -0.144924 113.000000 0.173067 153.000000 -0.054674
182733.000000 1.843729 347.000000 340.000000 261.000000 -0.058793 285.000000 0.138529 308.000000 -0.073681 324.000000 -0.099261 15.000000 -0.105471 116.000000 0.215971 152.000000 -0.070533
183425.000000 1.879061 352.000000 342.000000 258.000000 -0.046203 289.000000 0.142403 298.000000 0.078501 328.000000 -0.086203 16.000000 -0.134058 110.000000 0.227344 153.000000 -0.136732
183767.000000 1.847431 342.000000 337.000000 251.000000 -0.060178 283.000000 0.128083 310.000000 -0.087496 323.000000 -0.097556 14.000000 -0.047586 109.000000 0.201583 155.000000 -0.103918
184806.000000 1.878604 359.000000 350.000000 244.000000 -0.090909 294.000000 0.125363 301.000000 0.046523 331.000000 -0.084652 18.000000 -0.116317 122.000000 0.233367 154.000000 -0.109266
186153.000000 1.693060 332.000000 336.000000 233.000000 -0.072346 281.000000 0.126744 303.000000 -0.061642 318.000000 -0.095796 17.000000 -0.103446 113.000000 0.219820 153.000000 -0.068167
187895.000000 1.816536 326.000000 312.000000 229.000000 -0.096064 259.000000 0.092492 282.000000 -0.145501 298.000000 -0.147822 12.000000 0.081192 111.000000 0.236851 141.000000 -0.109105
188860.000000 1.726818 331.000000 351.000000 263.000000 -0.000641 303.000000 0.244702 329.000000 -0.271975 336.000000 -0.142743 17.000000 -0.124264 116.000000 0.181196 134.000000 0.022779
189211.000000 1.732240 351.000000 350.000000 258.000000 -0.101206 292.000000 0.163370 301.000000 0.074138 333.000000 -0.107618 17.000000 -0.040926 122.000000 0.213856 158.000000 -0.091755
189561.000000 1.788949 350.000000 338.000000 246.000000 -0.082947 286.000000 0.130863 299.000000 0.045659 322.000000 -0.125517 25.000000 -0.174138 113.000000 0.244059 147.000000 0.007789
192586.000000 1.705943 324.000000 332.000000 249.000000 -0.056062 279.000000 0.123638 303.000000 -0.085738 315.000000 -0.074233 14.000000 -0.055786 111.000000 0.210532 152.000000 -0.066771
192918.000000 1.665640 332.000000 338.000000 260.000000 -0.042537 284.000000 0.149596 297.000000 0.064548 324.000000 -0.104405 18.000000 -0.117072 115.000000 0.201779 154.000000 -0.075524
194953.000000 1.718840 332.000000 332.000000 239.000000 -0.080111 277.000000 0.158104 300.000000 -0.046787 318.000000 -0.082134 17.000000 -0.101414 110.000000 0.201526 155.000000 -0.116311
195285.000000 1.765502 332.000000 351.000000 238.000000 -0.090755 294.000000 0.128108 330.000000 -0.089805 333.000000 -0.099742 18.000000 -0.090183 113.000000 0.231518 157.000000 -0.078612
195636.000000 1.703782 351.000000 367.000000 259.000000 -0.083779 310.000000 0.140296 333.000000 -0.061084 359.000000 -0.194500 21.000000 -0.103698 118.000000 0.257240 158.000000 -0.076006
196702.000000 1.817713 338.000000 343.000000 238.000000 -0.110075 292.000000 0.120396 298.000000 0.024847 326.000000 -0.086003 15.000000 -0.085671 112.000000 0.248824 155.000000 -0.081992
197045.000000 1.836958 343.000000 346.000000 266.000000 -0.064548 292.000000 0.134182 315.000000 -0.091868 330.000000 -0.078371 19.000000 -0.113829 113.000000 0.229971 154.000000 -0.092224
197391.000000 1.684172 346.000000 342.000000 262.000000 -0.081380 287.000000 0.114641 303.000000 0.010377 326.000000 -0.087648 18.000000 -0.136034 120.000000 0.234019 153.000000 -0.049241
198083.000000 1.734185 350.000000 349.000000 249.000000 -0.083149 292.000000 0.116582 327.000000 -0.100111 332.000000 -0.115535 16.000000 -0.098732 113.000000 0.207591 157.000000 -0.080036
199457.000000 1.611834 341.000000 353.000000 238.000000 -0.077962 298.000000 0.149344 306.000000 0.080348 338.000000 -0.086552 17.000000 -0.079374 113.000000 0.190697 155.000000 -0.071074
199810.000000 1.497223 353.000000 358.000000 267.000000 -0.058747 300.000000 0.162930 324.000000 -0.042069 341.000000 -0.069765 10.000000 0.137301 120.000000 0.179851 158.000000 -0.081731
200168.000000 1.565062 358.000000 356.000000 276.000000 -0.051119 301.000000 0.106672 328.000000 -0.070271 343.000000 -0.089642 21.000000 -0.101977 122.000000 0.179220 152.000000 -0.050699
200524.000000 1.568449 356.000000 345.000000 261.000000 -0.070796 294.000000 0.129218 317.000000 -0.062414 331.000000 -0.083888 13.000000 0.036979 115.000000 0.211356 155.000000 -0.082597
201550.000000 1.602870 338.000000 344.000000 261.000000 -0.096457 290.000000 0.117866 313.000000 -0.072996 327.000000 -0.053639 17.000000 -0.074105 110.000000 0.196291 155.000000 -0.110325
202242.000000 1.710123 348.000000 355.000000 258.000000 -0.071754 300.000000 0.124191 314.000000 0.029333 341.000000 -0.063665 20.000000 -0.113248 119.000000 0.217736 150.000000 -0.100241
203997.000000 1.415219 350.000000 346.000000 263.000000 -0.051366 290.000000 0.176987 314.000000 -0.031635 331.000000 -0.059818 6.000000 0.381019 119.000000 0.179851 154.000000 -0.063722
206047.000000 1.641083 351.000000 371.000000 289.000000 -0.050545 315.000000 0.120928 340.000000 -0.070968 356.000000 -0.105530 18.000000 -0.081866 118.000000 0.220019 157.000000 -0.062971
206785.000000 1.633027 367.000000 374.000000 269.000000 -0.048935 317.000000 0.127576 345.000000 -0.071672 359.000000 -0.070578 13.000000 -0.020481 120.000000 0.211043 154.000000 -0.049880
207520.000000 1.622678 361.000000 358.000000 276.000000 -0.054524 303.000000 0.146197 325.000000 -0.050214 343.000000 -0.063242 20.000000 -0.103251 111.000000 0.197469 153.000000 -0.083490
208623.000000 1.607869 389.000000 391.000000 306.000000 -0.047882 333.000000 0.137558 363.000000 -0.059826 376.000000 -0.061333 20.000000 -0.122715 118.000000 0.205789 156.000000 -0.075841
212351.000000 1.583292 376.000000 374.000000 284.000000 -0.043590 320.000000 0.133744 351.000000 -0.075440 359.000000 -0.074969 12.000000 0.064169 117.000000 0.185389 156.000000 -0.073514
213813.000000 1.707214 352.000000 339.000000 256.000000 -0.036536 285.000000 0.158655 309.000000 -0.055812 324.000000 -0.077129 15.000000 -0.108006 112.000000 0.203225 156.000000 -0.079900
214152.000000 1.713828 339.000000 343.000000 251.000000 -0.087674 288.000000 0.124271 297.000000 0.054394 328.000000 -0.099654 13.000000 -0.015418 110.000000 0.216082 151.000000 -0.088095
214847.000000 1.782638 352.000000 386.000000 300.000000 -0.049151 327.000000 0.144247 356.000000 -0.070596 371.000000 -0.084325 12.000000 0.027949 117.000000 0.235102 149.000000 -0.066194
217719.000000 1.746880 331.000000 340.000000 261.000000 -0.066141 282.000000 0.107920 309.000000 -0.080574 324.000000 -0.083694 14.000000 -0.043542 115.000000 0.259965 152.000000 -0.086996
218391.000000 1.659611 332.000000 320.000000 240.000000 -0.050875 266.000000 0.107418 292.000000 -0.108679 305.000000 -0.096657 16.000000 -0.108804 108.000000 0.237879 167.000000 -0.051612
219066.000000 1.750940 355.000000 376.000000 293.000000 -0.035786 318.000000 0.145341 342.000000 -0.076272 361.000000 -0.095518 17.000000 -0.141395 110.000000 0.263451 155.000000 -0.083980
219442.000000 1.665708 376.000000 377.000000 296.000000 -0.020499 321.000000 0.156553 335.000000 0.066003 361.000000 -0.072603 13.000000 -0.051705 118.000000 0.230101 157.000000 -0.048756
219819.000000 1.735389 377.000000 364.000000 272.000000 -0.067707 311.000000 0.134564 332.000000 -0.079151 351.000000 -0.104308 15.000000 -0.080239 114.000000 0.224495 156.000000 -0.070457
220183.000000 1.731113 364.000000 365.000000 285.000000 -0.039716 310.000000 0.135035 335.000000 -0.090935 351.000000 -0.079729 12.000000 0.010878 110.000000 0.254267 153.000000 -0.094145
222388.000000 1.883527 351.000000 341.000000 255.000000 -0.106812 287.000000 0.095805 319.000000 -0.128771 325.000000 -0.134367 22.000000 -0.152461 114.000000 0.243537 145.000000 -0.088750
222729.000000 1.889892 341.000000 335.000000 262.000000 -0.077292 283.000000 0.123493 306.000000 -0.050863 320.000000 -0.074106 23.000000 -0.165596 108.000000 0.284176 151.000000 -0.090386
223064.000000 1.889641 335.000000 353.000000 259.000000 -0.065748 296.000000 0.143640 320.000000 -0.056519 340.000000 -0.119500 10.000000 0.159530 114.000000 0.234285 153.000000 -0.078348
223417.000000 1.763462 353.000000 364.000000 277.000000 -0.115550 309.000000 0.174858 336.000000 -0.079640 349.000000 -0.059140 17.000000 -0.092020 117.000000 0.215536 155.000000 -0.070607
224136.000000 1.751756 355.000000 349.000000 270.000000 -0.058115 295.000000 0.101775 316.000000 -0.063806 331.000000 -0.089325 14.000000 -0.068310 117.000000 0.243452 158.000000 -0.057187
224485.000000 1.754829 349.000000 340.000000 260.000000 -0.049389 286.000000 0.105799 309.000000 -0.065803 324.000000 -0.070849 15.000000 -0.055606 116.000000 0.213265 150.000000 -0.107909
225171.000000 1.568573 346.000000 343.000000 259.000000 -0.078209 288.000000 0.111291 309.000000 -0.080323 327.000000 -0.094540 17.000000 -0.080188 115.000000 0.235821 153.000000 -0.043130
225889.000000 1.601677 375.000000 376.000000 266.000000 -0.042646 319.000000 0.147685 334.000000 0.050899 360.000000 -0.055466 19.000000 -0.111302 117.000000 0.195348 158.000000 -0.041087
226634.000000 1.572637 369.000000 362.000000 252.000000 -0.080375 308.000000 0.127648 319.000000 0.069043 344.000000 -0.061631 9.000000 0.225162 115.000000 0.220036 153.000000 -0.076000
226996.000000 1.594581 362.000000 353.000000 268.000000 -0.050095 301.000000 0.129466 323.000000 -0.047776 339.000000 -0.069499 6.000000 0.529786 109.000000 0.202466 153.000000 -0.112755
227704.000000 1.575047 355.000000 381.000000 295.000000 -0.029981 325.000000 0.126682 348.000000 -0.051610 366.000000 -0.066893 16.000000 -0.089327 114.000000 0.206825 154.000000 -0.083333
228466.000000 1.513155 381.000000 359.000000 273.000000 -0.032381 305.000000 0.176400 329.000000 -0.021874 346.000000 -0.064822 17.000000 -0.108680 114.000000 0.183055 154.000000 -0.083797
230272.000000 1.593982 373.000000 388.000000 273.000000 -0.081020 329.000000 0.140586 359.000000 -0.060135 372.000000 -0.054021 16.000000 -0.090957 120.000000 0.193594 154.000000 -0.078380
230660.000000 1.574769 388.000000 372.000000 286.000000 -0.050401 319.000000 0.132044 349.000000 -0.072175 355.000000 -0.075247 10.000000 0.244782 122.000000 0.198539 152.000000 -0.053997
231032.000000 1.567229 372.000000 341.000000 267.000000 -0.030756 289.000000 0.107223 313.000000 -0.070145 325.000000 -0.086772 18.000000 -0.090373 116.000000 0.199469 154.000000 -0.031680
231373.000000 1.619156 341.000000 361.000000 282.000000 -0.052033 305.000000 0.118360 330.000000 -0.084322 345.000000 -0.075108 14.000000 -0.075247 111.000000 0.213849 153.000000 -0.079556
231734.000000 1.652211 361.000000 370.000000 263.000000 -0.083700 314.000000 0.146182 336.000000 -0.046736 355.000000 -0.074181 16.000000 -0.059497 116.000000 0.210429 154.000000 -0.068552
232104.000000 1.608610 370.000000 371.000000 264.000000 -0.057696 315.000000 0.156666 342.000000 -0.031404 357.000000 -0.057613 16.000000 -0.058428 118.000000 0.179127 150.000000 -0.069324
234705.000000 1.562555 397.000000 378.000000 300.000000 -0.036343 323.000000 0.141055 355.000000 -0.045088 361.000000 -0.055605 16.000000 -0.110970 116.000000 0.182433 150.000000 -0.057634
237325.000000 1.686319 390.000000 354.000000 261.000000 -0.136413 299.000000 0.052158 322.000000 -0.114473 337.000000 -0.123185 15.000000 0.005956 118.000000 0.259045 159.000000 -0.036098
239108.000000 1.838526 375.000000 373.000000 254.000000 -0.076957 317.000000 0.136522 343.000000 -0.080500 356.000000 -0.078869 15.000000 -0.001835 116.000000 0.252293 156.000000 -0.083016
240904.000000 1.745204 369.000000 376.000000 296.000000 -0.016526 321.000000 0.163881 343.000000 -0.046667 359.000000 -0.069440 16.000000 -0.094655 116.000000 0.209427 157.000000 -0.056940
241663.000000 1.829796 383.000000 371.000000 265.000000 -0.084563 318.000000 0.130628 343.000000 -0.075500 359.000000 -0.082176 20.000000 -0.116537 114.000000 0.255382 156.000000 -0.102032
243527.000000 1.705954 389.000000 375.000000 285.000000 -0.062492 320.000000 0.101346 352.000000 -0.119376 359.000000 -0.098184 16.000000 -0.089612 115.000000 0.215608 154.000000 -0.055881
243902.000000 1.750251 375.000000 365.000000 282.000000 -0.042352 311.000000 0.092961 334.000000 -0.068466 354.000000 -0.132072 15.000000 -0.052350 112.000000 0.266461 154.000000 -0.085828
244994.000000 1.662306 356.000000 380.000000 238.000000 -0.090217 322.000000 0.139520 335.000000 0.069769 363.000000 -0.072302 9.000000 0.148325 112.000000 0.217389 157.000000 -0.099165
245374.000000 1.639717 380.000000 394.000000 280.000000 -0.058951 338.000000 0.134041 360.000000 -0.058719 380.000000 -0.064013 16.000000 -0.071083 123.000000 0.240031 159.000000 -0.043637
247975.000000 1.633513 378.000000 375.000000 288.000000 -0.036209 319.000000 0.139933 344.000000 -0.058874 360.000000 -0.064453 11.000000 0.142257 119.000000 0.214969 155.000000 -0.066986
249045.000000 1.708900 339.000000 360.000000 250.000000 -0.076112 303.000000 0.139529 317.000000 0.053635 343.000000 -0.104280 19.000000 -0.106331 112.000000 0.259251 154.000000 -0.077694
249782.000000 1.602242 377.000000 362.000000 273.000000 -0.032778 305.000000 0.159338 331.000000 -0.079846 346.000000 -0.091302 15.000000 -0.050280 118.000000 0.220841 153.000000 -0.062562
250852.000000 1.672995 346.000000 350.000000 267.000000 -0.046180 297.000000 0.151144 305.000000 0.057242 336.000000 -0.088462 10.000000 0.142213 111.000000 0.207927 150.000000 -0.067997
251550.000000 1.765173 348.000000 368.000000 282.000000 -0.043561 312.000000 0.141907 327.000000 0.033271 352.000000 -0.085050 15.000000 -0.097822 115.000000 0.247453 155.000000 -0.112077
252660.000000 1.703263 362.000000 357.000000 247.000000 -0.046110 306.000000 0.143102 335.000000 -0.075720 340.000000 -0.075547 18.000000 -0.103005 115.000000 0.211467 154.000000 -0.084760
256732.000000 1.704968 391.000000 376.000000 296.000000 -0.048272 321.000000 0.107169 337.000000 -0.002441 362.000000 -0.094574 20.000000 -0.107825 118.000000 0.233441 155.000000 -0.066998
258585.000000 1.741003 379.000000 372.000000 234.000000 -0.081132 317.000000 0.144630 332.000000 0.029754 355.000000 -0.087882 17.000000 -0.091349 119.000000 0.212150 153.000000 -0.073776
259682.000000 1.709542 358.000000 340.000000 265.000000 -0.051330 288.000000 0.114957 316.000000 -0.109838 324.000000 -0.114054 18.000000 -0.056195 115.000000 0.237029 154.000000 -0.057374
260022.000000 1.658329 340.000000 353.000000 268.000000 -0.046679 296.000000 0.144355 320.000000 -0.050113 337.000000 -0.070724 12.000000 0.015866 115.000000 0.211209 155.000000 -0.058749
263297.000000 1.707479 376.000000 348.000000 241.000000 -0.084166 293.000000 0.127092 316.000000 -0.056013 333.000000 -0.077064 14.000000 -0.015971 113.000000 0.225477 152.000000 -0.075493
264714.000000 1.731505 359.000000 382.000000 300.000000 -0.041409 327.000000 0.113278 340.000000 0.037416 369.000000 -0.112316 19.000000 -0.133824 124.000000 0.208528 153.000000 -0.052063
265470.000000 1.663970 374.000000 346.000000 256.000000 -0.040648 294.000000 0.127066 315.000000 -0.052934 331.000000 -0.089047 18.000000 -0.095104 112.000000 0.220671 154.000000 -0.059255
267268.000000 1.696805 370.000000 369.000000 286.000000 -0.037941 313.000000 0.143892 340.000000 -0.056987 355.000000 -0.074871 16.000000 -0.065924 114.000000 0.206534 153.000000 -0.071584
267637.000000 1.659924 369.000000 360.000000 275.000000 -0.055737 307.000000 0.120894 345.000000 -0.076021 351.000000 -0.200770 18.000000 -0.122634 117.000000 0.209239 155.000000 -0.078486
268346.000000 1.596675 349.000000 347.000000 245.000000 -0.092639 291.000000 0.123458 314.000000 -0.053170 330.000000 -0.081491 18.000000 -0.093217 112.000000 0.214758 155.000000 -0.093764
272714.000000 1.668602 354.000000 362.000000 282.000000 -0.034269 305.000000 0.133586 336.000000 -0.092104 348.000000 -0.102540 16.000000 -0.089016 111.000000 0.218156 155.000000 -0.107958
276725.000000 1.750111 348.000000 343.000000 261.000000 -0.048259 289.000000 0.138228 312.000000 -0.053839 329.000000 -0.065219 17.000000 -0.099579 109.000000 0.230109 154.000000 -0.080612
277433.000000 1.718603 365.000000 384.000000 240.000000 -0.084984 327.000000 0.143386 363.000000 -0.084202 369.000000 -0.076679 16.000000 -0.083950 115.000000 0.232675 154.000000 -0.091639
278180.000000 1.790882 363.000000 358.000000 264.000000 -0.065922 304.000000 0.122056 326.000000 -0.069431 344.000000 -0.070766 17.000000 -0.096973 112.000000 0.204937 155.000000 -0.090549
280734.000000 1.681865 362.000000 355.000000 266.000000 -0.046709 301.000000 0.133886 324.000000 -0.066805 339.000000 -0.089719 17.000000 -0.097635 115.000000 0.215631 155.000000 -0.091311
281089.000000 1.680299 355.000000 364.000000 259.000000 -0.068559 309.000000 0.124250 332.000000 -0.068758 347.000000 -0.072880 14.000000 -0.029719 108.000000 0.243357 157.000000 -0.087251
281821.000000 1.635015 368.000000 370.000000 275.000000 -0.065780 312.000000 0.115036 329.000000 0.035898 356.000000 -0.098195 19.000000 -0.081708 119.000000 0.221379 156.000000 -0.041239
282574.000000 1.654376 383.000000 370.000000 289.000000 -0.025687 314.000000 0.134503 337.000000 -0.057831 353.000000 -0.085777 18.000000 -0.125174 116.000000 0.217202 154.000000 -0.082354
282944.000000 1.609207 370.000000 351.000000 259.000000 -0.066221 298.000000 0.144801 311.000000 0.051038 337.000000 -0.085639 18.000000 -0.120735 112.000000 0.212598 155.000000 -0.078925
284022.000000 1.632791 365.000000 384.000000 292.000000 -0.040236 324.000000 0.159482 348.000000 -0.045628 367.000000 -0.058528 18.000000 -0.122652 121.000000 0.209664 153.000000 -0.051357
284406.000000 1.730755 384.000000 371.000000 263.000000 -0.082757 317.000000 0.122945 326.000000 0.068413 353.000000 -0.082120 14.000000 0.001323 115.000000 0.207593 155.000000 -0.076486
286965.000000 1.695015 368.000000 360.000000 276.000000 -0.046911 306.000000 0.115536 319.000000 0.017683 344.000000 -0.099089 18.000000 -0.090703 118.000000 0.204919 154.000000 -0.072091
287680.000000 1.617931 355.000000 351.000000 267.000000 -0.039737 296.000000 0.135183 319.000000 -0.066884 338.000000 -0.071272 18.000000 -0.123994 112.000000 0.223735 158.000000 -0.075250
289506.000000 1.731158 358.000000 362.000000 237.000000 -0.078023 306.000000 0.130304 330.000000 -0.057549 347.000000 -0.085088 9.000000 0.256158 111.000000 0.238545 155.000000 -0.090306
289868.000000 1.665253 362.000000 345.000000 260.000000 -0.048074 288.000000 0.153134 317.000000 -0.046193 329.000000 -0.058980 14.000000 -0.039280 108.000000 0.218144 154.000000 -0.077981
290953.000000 1.682997 380.000000 365.000000 257.000000 -0.046572 307.000000 0.151655 340.000000 -0.060445 346.000000 -0.061072 14.000000 -0.022144 120.000000 0.196037 157.000000 -0.054563
291318.000000 1.735499 365.000000 354.000000 254.000000 -0.049090 301.000000 0.126792 328.000000 -0.086909 338.000000 -0.075594 18.000000 -0.096177 115.000000 0.218773 153.000000 -0.079333
292374.000000 1.690207 350.000000 364.000000 277.000000 -0.042256 306.000000 0.128633 330.000000 -0.069251 349.000000 -0.094798 16.000000 -0.095376 116.000000 0.238923 157.000000 -0.044241
295270.000000 1.727574 362.000000 367.000000 258.000000 -0.081664 312.000000 0.130970 334.000000 -0.056932 354.000000 -0.099328 18.000000 -0.105986 120.000000 0.233661 163.000000 -0.065726
296687.000000 1.754675 353.000000 382.000000 298.000000 -0.026544 322.000000 0.113173 348.000000 -0.064304 367.000000 -0.068726 14.000000 -0.021814 117.000000 0.222955 155.000000 -0.076344
297807.000000 1.702101 363.000000 375.000000 257.000000 -0.072531 318.000000 0.087108 341.000000 -0.069852 360.000000 -0.067049 10.000000 0.192291 114.000000 0.216763 155.000000 -0.071294
298538.000000 1.666458 356.000000 353.000000 263.000000 -0.077019 299.000000 0.107854 330.000000 -0.072161 338.000000 -0.080108 13.000000 0.000752 109.000000 0.210866 152.000000 -0.064603
299625.000000 1.617725 359.000000 364.000000 276.000000 -0.061309 306.000000 0.098457 340.000000 -0.071009 347.000000 -0.060225 20.000000 -0.103482 119.000000 0.228597 153.000000 -0.088424
299989.000000 1.563496 364.000000 335.000000 255.000000 -0.064870 283.000000 0.133090 306.000000 -0.050861 319.000000 -0.044357 11.000000 0.120913 110.000000 0.230535 153.000000 -0.103933
302393.000000 1.488871 369.000000 351.000000 266.000000 -0.021158 298.000000 0.156478 320.000000 -0.038051 336.000000 -0.051310 16.000000 -0.107071 111.000000 0.192959 153.000000 -0.046550
305338.000000 1.594667 362.000000 366.000000 235.000000 -0.082472 308.000000 0.111039 322.000000 0.032574 350.000000 -0.090076 12.000000 0.100029 113.000000 0.203205 154.000000 -0.083734
307544.000000 1.494218 356.000000 363.000000 257.000000 -0.116320 308.000000 0.089477 320.000000 0.039275 350.000000 -0.102903 12.000000 0.016492 111.000000 0.213573 152.000000 -0.036703
308637.000000 1.624080 730.000000 342.000000 258.000000 -0.131662 287.000000 0.086739 311.000000 -0.082039 328.000000 -0.108495 18.000000 -0.068007 115.000000 0.248806 138.000000 -0.030033
309668.000000 1.561723 343.000000 359.000000 274.000000 -0.054111 303.000000 0.137912 329.000000 -0.069782 343.000000 -0.069704 16.000000 -0.056601 106.000000 0.171662 147.000000 -0.072666
312905.000000 1.561975 367.000000 342.000000 264.000000 -0.015735 288.000000 0.171646 312.000000 -0.019465 327.000000 -0.081456 16.000000 -0.021049 119.000000 0.214078 148.000000 -0.022098
316234.000000 1.631303 312.000000 330.000000 236.000000 -0.059480 273.000000 0.111879 296.000000 -0.041287 312.000000 -0.073357 13.000000 0.042792 115.000000 0.217139 154.000000 -0.108592
316564.000000 1.651756 330.000000 338.000000 249.000000 -0.087044 282.000000 0.067005 303.000000 -0.090911 322.000000 -0.115673 10.000000 0.214859 115.000000 0.228577 153.000000 -0.066946
316902.000000 1.542686 338.000000 329.000000 238.000000 -0.008200 273.000000 0.142727 297.000000 -0.054767 314.000000 -0.088718 16.000000 -0.098410 113.000000 0.196084 153.000000 -0.068026
317928.000000 1.683420 344.000000 350.000000 242.000000 -0.080874 299.000000 0.115129 316.000000 -0.042035 332.000000 -0.091330 15.000000 -0.082864 108.000000 0.228333 153.000000 -0.073564
318636.000000 1.624045 358.000000 381.000000 241.000000 -0.081284 324.000000 0.140688 363.000000 -0.078137 368.000000 -0.092823 16.000000 -0.089244 120.000000 0.188107 155.000000 -0.062192
320107.000000 1.656037 348.000000 360.000000 248.000000 -0.085953 306.000000 0.116564 328.000000 -0.053545 346.000000 -0.084233 14.000000 -0.052063 119.000000 0.220087 156.000000 -0.086921
321584.000000 1.627806 365.000000 364.000000 246.000000 -0.069337 310.000000 0.125154 332.000000 -0.068625 349.000000 -0.092165 13.000000 0.012387 118.000000 0.213752 155.000000 -0.089275
322648.000000 1.582051 348.000000 366.000000 265.000000 -0.069719 307.000000 0.119514 350.000000 -0.100451 351.000000 -0.105435 17.000000 -0.099215 115.000000 0.223330 156.000000 -0.051917
323014.000000 1.626808 366.000000 377.000000 292.000000 -0.046334 319.000000 0.132646 343.000000 -0.058798 362.000000 -0.071320 13.000000 0.084172 121.000000 0.243302 158.000000 -0.062955
325182.000000 1.657708 368.000000 365.000000 266.000000 -0.047801 307.000000 0.139286 331.000000 -0.027328 346.000000 -0.065009 19.000000 -0.117383 115.000000 0.201174 150.000000 -0.069061
325547.000000 1.622965 365.000000 364.000000 256.000000 -0.108244 307.000000 0.104815 333.000000 -0.100843 347.000000 -0.101124 22.000000 -0.110891 116.000000 0.223865 156.000000 -0.033297
326571.000000 1.683997 315.000000 313.000000 235.000000 -0.062085 260.000000 0.089764 269.000000 0.024936 299.000000 -0.080613 18.000000 -0.100640 112.000000 0.252154 159.000000 -0.097895
326884.000000 1.678182 313.000000 317.000000 237.000000 -0.033069 261.000000 0.100615 283.000000 -0.057959 303.000000 -0.096251 12.000000 -0.017742 111.000000 0.224847 115.000000 0.184958
327555.000000 1.652996 354.000000 361.000000 271.000000 -0.069180 303.000000 0.117590 328.000000 -0.065311 346.000000 -0.084277 19.000000 -0.119185 117.000000 0.222449 154.000000 -0.074398
327916.000000 1.615049 361.000000 351.000000 258.000000 -0.071842 296.000000 0.141511 319.000000 -0.055323 333.000000 -0.057988 10.000000 0.189876 111.000000 0.209410 152.000000 -0.066441
331197.000000 1.607509 372.000000 376.000000 294.000000 -0.044735 320.000000 0.130199 348.000000 -0.081384 363.000000 -0.096508 13.000000 -0.001956 117.000000 0.224504 155.000000 -0.062379
335709.000000 1.925265 311.000000 309.000000 225.000000 -0.093808 256.000000 0.093902 283.000000 -0.068669 297.000000 -0.079922 14.000000 -0.193841 112.000000 0.264182 152.000000 -0.200114
339724.000000 1.458623 364.000000 347.000000 270.000000 -0.053116 292.000000 0.137509 315.000000 -0.072681 332.000000 -0.088746 15.000000 -0.090451 107.000000 0.219648 151.000000 -0.054789
340434.000000 1.529232 363.000000 350.000000 262.000000 -0.069653 296.000000 0.116117 317.000000 -0.071093 335.000000 -0.093995 11.000000 0.106189 120.000000 0.232130 156.000000 -0.092868
341773.000000 1.562637 332.000000 350.000000 268.000000 -0.038132 295.000000 0.133846 318.000000 -0.069242 336.000000 -0.094651 15.000000 -0.064008 109.000000 0.233254 152.000000 -0.073440
344746.000000 1.507195 369.000000 377.000000 270.000000 -0.064746 318.000000 0.138087 341.000000 -0.070894 362.000000 -0.114828 19.000000 -0.106459 115.000000 0.220692 155.000000 -0.068399
347205.000000 1.697276 346.000000 321.000000 242.000000 -0.089423 265.000000 0.073258 290.000000 -0.084721 306.000000 -0.083827 14.000000 -0.002568 113.000000 0.287378 157.000000 -0.069016
348520.000000 1.643106 331.000000 348.000000 249.000000 -0.108760 289.000000 0.122882 305.000000 0.028148 332.000000 -0.095929 9.000000 0.327932 109.000000 0.286227 154.000000 -0.077801
348868.000000 1.643901 348.000000 359.000000 267.000000 -0.072726 301.000000 0.119172 309.000000 0.028012 340.000000 -0.105734 20.000000 -0.102005 115.000000 0.262456 154.000000 -0.112198
349930.000000 1.617289 338.000000 308.000000 223.000000 -0.082242 257.000000 0.105630 271.000000 -0.012270 293.000000 -0.105875 14.000000 -0.024186 108.000000 0.209827 137.000000 -0.023013
351455.000000 1.833419 307.000000 323.000000 246.000000 -0.017242 270.000000 0.171189 294.000000 -0.045255 308.000000 -0.076161 11.000000 0.165565 114.000000 0.200582 154.000000 -0.103853
353898.000000 1.654214 365.000000 352.000000 254.000000 -0.074041 298.000000 0.134845 330.000000 -0.097648 337.000000 -0.107006 13.000000 0.013133 108.000000 0.214526 151.000000 -0.069849
354250.000000 1.599921 352.000000 329.000000 255.000000 -0.061830 277.000000 0.114629 300.000000 -0.077958 311.000000 -0.093429 8.000000 0.195530 109.000000 0.213156 150.000000 -0.080004
355573.000000 1.712475 342.000000 357.000000 260.000000 -0.088181 298.000000 0.137165 307.000000 0.052997 343.000000 -0.110358 12.000000 0.065187 118.000000 0.245932 156.000000 -0.084378
355930.000000 1.669624 357.000000 362.000000 281.000000 -0.053478 307.000000 0.132807 329.000000 -0.080641 347.000000 -0.097631 10.000000 0.145296 115.000000 0.218480 152.000000 -0.030127
356292.000000 1.632100 362.000000 354.000000 278.000000 -0.054911 300.000000 0.112597 331.000000 -0.091021 335.000000 -0.080033 13.000000 -0.023450 113.000000 0.223647 153.000000 -0.068873
356646.000000 1.635190 354.000000 347.000000 273.000000 -0.052224 295.000000 0.138967 308.000000 0.044172 333.000000 -0.100295 11.000000 0.052855 101.000000 0.233388 148.000000 -0.057995
357360.000000 1.650537 367.000000 384.000000 298.000000 -0.041913 327.000000 0.129044 351.000000 -0.092009 369.000000 -0.096396 10.000000 0.124410 117.000000 0.236828 155.000000 -0.043831
357744.000000 1.656034 384.000000 384.000000 285.000000 -0.058698 328.000000 0.130851 341.000000 0.064127 371.000000 -0.091437 16.000000 -0.026299 119.000000 0.236609 155.000000 -0.053705
360333.000000 1.603014 375.000000 366.000000 284.000000 -0.052057 311.000000 0.108429 343.000000 -0.101462 351.000000 -0.074081 10.000000 0.173702 118.000000 0.241671 156.000000 -0.063107
361031.000000 1.728416 332.000000 329.000000 245.000000 -0.090389 277.000000 0.112622 289.000000 0.019081 314.000000 -0.080544 15.000000 -0.089092 104.000000 0.244820 151.000000 -0.093970
362057.000000 1.670143 341.000000 350.000000 254.000000 -0.065300 292.000000 0.107739 317.000000 -0.083843 337.000000 -0.078356 18.000000 -0.117289 115.000000 0.272932 152.000000 -0.082052
362743.000000 1.805031 336.000000 305.000000 217.000000 -0.050250 249.000000 0.116708 253.000000 0.014842 292.000000 -0.044829 10.000000 0.066333 107.000000 0.258687 155.000000 -0.097112
363048.000000 2.017194 305.000000 298.000000 215.000000 -0.092215 241.000000 0.051769 264.000000 -0.130267 283.000000 -0.117227 11.000000 -0.061253 113.000000 0.303719 153.000000 -0.168337
363346.000000 1.934859 298.000000 296.000000 218.000000 -0.054093 243.000000 0.075990 264.000000 -0.130720 282.000000 -0.137364 13.000000 -0.026001 109.000000 0.297573 154.000000 -0.130014
363642.000000 1.869298 296.000000 295.000000 215.000000 -0.066065 240.000000 0.115942 256.000000 -0.013070 280.000000 -0.119981 15.000000 -0.046660 114.000000 0.244029 156.000000 -0.134486
365582.000000 1.644279 313.000000 330.000000 255.000000 -0.067165 276.000000 0.088976 307.000000 -0.099801 314.000000 -0.110866 14.000000 -0.062304 108.000000 0.206127 153.000000 -0.093009
366275.000000 1.713354 363.000000 377.000000 295.000000 -0.046671 322.000000 0.130821 344.000000 -0.074761 361.000000 -0.087144 17.000000 -0.097071 117.000000 0.210702 154.000000 -0.067872
368156.000000 1.562415 375.000000 392.000000 303.000000 -0.045110 332.000000 0.113225 357.000000 -0.070864 375.000000 -0.106696 16.000000 -0.031504 119.000000 0.227744 155.000000 -0.050955
371092.000000 1.819640 365.000000 357.000000 275.000000 -0.062996 303.000000 0.108149 330.000000 -0.106004 344.000000 -0.112791 17.000000 -0.091563 112.000000 0.257142 154.000000 -0.071589
373238.000000 1.659734 361.000000 355.000000 251.000000 -0.076628 301.000000 0.100094 323.000000 -0.070174 340.000000 -0.085989 15.000000 -0.014892 113.000000 0.265942 154.000000 -0.081801
375773.000000 1.635580 361.000000 348.000000 244.000000 -0.069610 295.000000 0.110891 320.000000 -0.074939 332.000000 -0.096208 19.000000 -0.107068 113.000000 0.245873 155.000000 -0.093580
376836.000000 1.595170 363.000000 368.000000 252.000000 -0.072978 309.000000 0.139989 332.000000 -0.035766 353.000000 -0.075688 18.000000 -0.128685 118.000000 0.194038 151.000000 -0.057353
377925.000000 1.686193 359.000000 359.000000 257.000000 -0.073165 302.000000 0.101084 326.000000 -0.083147 345.000000 -0.083226 16.000000 -0.080065 113.000000 0.267292 154.000000 -0.078584
378624.000000 1.683418 340.000000 348.000000 247.000000 -0.093264 289.000000 0.111344 298.000000 0.045074 332.000000 -0.080881 13.000000 -0.022870 110.000000 0.229763 153.000000 -0.087900
378972.000000 1.709639 348.000000 372.000000 289.000000 -0.039503 313.000000 0.113961 338.000000 -0.058468 357.000000 -0.070567 13.000000 0.030832 111.000000 0.252553 161.000000 -0.067792
380414.000000 1.758842 341.000000 341.000000 244.000000 -0.089170 286.000000 0.093632 301.000000 0.020309 328.000000 -0.107387 18.000000 -0.090528 108.000000 0.248490 153.000000 -0.118001
381795.000000 1.790328 331.000000 345.000000 262.000000 -0.054088 291.000000 0.114219 302.000000 0.044547 331.000000 -0.071740 10.000000 0.211081 114.000000 0.251412 157.000000 -0.087070
382796.000000 1.734856 329.000000 324.000000 242.000000 -0.073146 270.000000 0.080725 294.000000 -0.088194 308.000000 -0.082239 16.000000 -0.118406 109.000000 0.234849 154.000000 -0.095507
384196.000000 1.725641 353.000000 350.000000 268.000000 -0.049418 295.000000 0.103701 321.000000 -0.087773 335.000000 -0.075264 11.000000 0.111268 113.000000 0.228262 154.000000 -0.095743
384894.000000 1.688434 348.000000 349.000000 260.000000 -0.044938 296.000000 0.149671 305.000000 0.061427 333.000000 -0.051911 19.000000 -0.102332 105.000000 0.203653 154.000000 -0.083246
385605.000000 1.685486 362.000000 374.000000 292.000000 -0.047096 319.000000 0.112920 340.000000 -0.068367 360.000000 -0.082694 19.000000 -0.083936 115.000000 0.236573 157.000000 -0.067704
386715.000000 1.694483 359.000000 352.000000 284.000000 -0.021976 300.000000 0.110924 329.000000 -0.080533 335.000000 -0.091112 14.000000 -0.007743 110.000000 0.239252 142.000000 -0.078553
387767.000000 1.664373 347.000000 367.000000 253.000000 -0.085592 310.000000 0.105366 337.000000 -0.096090 352.000000 -0.086687 20.000000 -0.125081 125.000000 0.249442 155.000000 -0.084333
391523.000000 1.683542 349.000000 351.000000 265.000000 -0.056848 293.000000 0.130723 303.000000 0.041976 334.000000 -0.097071 11.000000 0.035187 107.000000 0.211912 154.000000 -0.063466
392627.000000 1.677197 374.000000 352.000000 251.000000 -0.073367 295.000000 0.123634 308.000000 0.050154 336.000000 -0.061507 17.000000 -0.109541 120.000000 0.211560 155.000000 -0.047300
393673.000000 1.812524 353.000000 355.000000 246.000000 -0.100268 299.000000 0.126632 325.000000 -0.081862 338.000000 -0.064134 13.000000 0.042570 111.000000 0.231138 154.000000 -0.079801
395458.000000 1.804906 330.000000 343.000000 240.000000 -0.080365 287.000000 0.121957 312.000000 -0.086834 328.000000 -0.118384 18.000000 -0.095547 109.000000 0.251061 153.000000 -0.108111
395801.000000 1.792353 343.000000 349.000000 264.000000 -0.042652 294.000000 0.139103 306.000000 0.055357 334.000000 -0.102807 18.000000 -0.110939 108.000000 0.236139 153.000000 -0.105477
396525.000000 1.687791 375.000000 371.000000 259.000000 -0.070939 315.000000 0.138217 336.000000 -0.071140 355.000000 -0.067816 17.000000 -0.110379 115.000000 0.226713 155.000000 -0.080039
397267.000000 1.644487 371.000000 354.000000 273.000000 -0.024109 301.000000 0.151673 336.000000 -0.061289 338.000000 -0.071257 14.000000 -0.085887 118.000000 0.209956 156.000000 -0.061081
398314.000000 1.743119 350.000000 367.000000 287.000000 -0.042790 313.000000 0.133151 347.000000 -0.095031 353.000000 -0.091959 10.000000 0.154123 114.000000 0.233383 155.000000 -0.087950
399045.000000 1.756489 364.000000 365.000000 266.000000 -0.061091 311.000000 0.110962 322.000000 0.047450 351.000000 -0.080986 15.000000 -0.049829 123.000000 0.212888 155.000000 -0.078537
399764.000000 1.760468 354.000000 347.000000 255.000000 -0.060579 293.000000 0.131961 320.000000 -0.068948 333.000000 -0.050800 14.000000 -0.044309 112.000000 0.227774 153.000000 -0.068228
400450.000000 1.740033 339.000000 350.000000 243.000000 -0.085338 294.000000 0.109846 319.000000 -0.071817 337.000000 -0.093165 11.000000 0.096569 116.000000 0.242013 155.000000 -0.095812
401147.000000 1.689702 347.000000 342.000000 260.000000 -0.051467 287.000000 0.136511 311.000000 -0.064398 328.000000 -0.091391 10.000000 0.089183 115.000000 0.213221 152.000000 -0.054490
403660.000000 1.747229 379.000000 369.000000 249.000000 -0.072666 313.000000 0.134797 340.000000 -0.076003 353.000000 -0.083558 13.000000 0.019610 116.000000 0.253971 157.000000 -0.078063
406249.000000 1.769420 365.000000 355.000000 274.000000 -0.030199 301.000000 0.140803 324.000000 -0.055185 341.000000 -0.056283 18.000000 -0.104449 108.000000 0.242229 154.000000 -0.103682
406957.000000 1.763512 353.000000 382.000000 252.000000 -0.081218 322.000000 0.135576 346.000000 -0.072795 362.000000 -0.108530 10.000000 0.126664 115.000000 0.225321 155.000000 -0.077503
407339.000000 1.774230 382.000000 388.000000 303.000000 -0.040576 331.000000 0.139361 357.000000 -0.073853 373.000000 -0.061298 18.000000 -0.125439 122.000000 0.236430 156.000000 -0.053164
407727.000000 1.695957 388.000000 361.000000 278.000000 -0.029482 305.000000 0.142246 331.000000 -0.074432 348.000000 -0.104683 17.000000 -0.121492 117.000000 0.203710 155.000000 -0.066666
408088.000000 1.778216 361.000000 362.000000 278.000000 -0.038339 306.000000 0.103559 331.000000 -0.087084 345.000000 -0.085267 11.000000 0.041507 111.000000 0.224855 158.000000 -0.072654
410980.000000 1.725826 351.000000 351.000000 263.000000 -0.052824 292.000000 0.136127 308.000000 0.033273 334.000000 -0.092133 11.000000 0.023507 112.000000 0.210963 153.000000 -0.051887
411331.000000 1.795941 351.000000 375.000000 282.000000 -0.064670 316.000000 0.127659 341.000000 -0.083752 359.000000 -0.091212 13.000000 -0.005498 119.000000 0.228505 154.000000 -0.080121
412079.000000 1.759482 373.000000 360.000000 267.000000 -0.055829 305.000000 0.146214 320.000000 0.036419 345.000000 -0.066217 19.000000 -0.102667 115.000000 0.190422 155.000000 -0.074749
412439.000000 1.822669 360.000000 353.000000 271.000000 -0.054559 297.000000 0.105643 320.000000 -0.082730 336.000000 -0.096915 13.000000 -0.038632 114.000000 0.195033 156.000000 -0.104764
412792.000000 1.821910 353.000000 357.000000 280.000000 -0.030577 304.000000 0.121602 316.000000 0.041710 343.000000 -0.079793 17.000000 -0.134157 109.000000 0.219913 150.000000 -0.078939
413149.000000 1.736270 357.000000 349.000000 244.000000 -0.060161 294.000000 0.152228 317.000000 -0.067395 333.000000 -0.079810 10.000000 0.067272 109.000000 0.193958 153.000000 -0.100791
413498.000000 1.807400 349.000000 364.000000 274.000000 -0.053652 305.000000 0.118946 317.000000 0.033820 346.000000 -0.100660 13.000000 -0.019685 113.000000 0.205972 154.000000 -0.066254
415317.000000 1.733872 357.000000 351.000000 270.000000 -0.037103 295.000000 0.134986 321.000000 -0.072520 338.000000 -0.099623 16.000000 -0.075300 113.000000 0.211920 153.000000 -0.092544
416041.000000 1.787978 373.000000 368.000000 286.000000 -0.039330 312.000000 0.145308 340.000000 -0.081164 354.000000 -0.069408 14.000000 -0.028697 120.000000 0.251930 154.000000 -0.101598
416769.000000 1.887903 360.000000 354.000000 272.000000 -0.058267 300.000000 0.107391 321.000000 -0.058692 337.000000 -0.100419 18.000000 -0.134936 117.000000 0.242878 156.000000 -0.098912
417123.000000 1.871365 354.000000 345.000000 252.000000 -0.072129 292.000000 0.131900 314.000000 -0.065186 330.000000 -0.074935 20.000000 -0.101304 113.000000 0.244739 153.000000 -0.089381
418183.000000 1.820328 368.000000 379.000000 255.000000 -0.106210 319.000000 0.131854 343.000000 -0.063429 364.000000 -0.082942 20.000000 -0.126867 120.000000 0.230075 156.000000 -0.071916
420341.000000 1.734244 372.000000 358.000000 266.000000 -0.066659 301.000000 0.138560 316.000000 0.016223 344.000000 -0.112117 20.000000 -0.098372 120.000000 0.216335 153.000000 -0.055375
420699.000000 1.782022 358.000000 366.000000 286.000000 -0.043069 311.000000 0.111994 337.000000 -0.096109 353.000000 -0.085387 16.000000 -0.077601 117.000000 0.229256 154.000000 -0.066591
423215.000000 1.776801 357.000000 338.000000 241.000000 -0.053463 285.000000 0.108289 306.000000 -0.075428 320.000000 -0.083811 11.000000 0.027603 115.000000 0.209460 153.000000 -0.079101
423553.000000 1.845346 338.000000 337.000000 255.000000 -0.086583 282.000000 0.094889 289.000000 0.036675 322.000000 -0.088640 15.000000 -0.078820 113.000000 0.268922 156.000000 -0.085920
423890.000000 1.804952 337.000000 338.000000 247.000000 -0.082164 282.000000 0.113318 308.000000 -0.100775 322.000000 -0.078986 18.000000 -0.109762 114.000000 0.236662 153.000000 -0.096925
426265.000000 1.752244 346.000000 355.000000 262.000000 -0.079543 298.000000 0.116176 328.000000 -0.106661 340.000000 -0.104200 18.000000 -0.098164 115.000000 0.212948 153.000000 -0.078932
426620.000000 1.773277 355.000000 383.000000 304.000000 -0.027953 327.000000 0.117269 357.000000 -0.102227 375.000000 -0.180674 15.000000 -0.028010 118.000000 0.233881 154.000000 -0.062211
427378.000000 1.598025 375.000000 355.000000 248.000000 -0.053978 299.000000 0.125130 326.000000 -0.071296 341.000000 -0.091909 12.000000 -0.007664 117.000000 0.201869 151.000000 -0.056000
429554.000000 1.725753 382.000000 353.000000 268.000000 -0.035969 298.000000 0.124780 322.000000 -0.065125 339.000000 -0.077619 13.000000 -0.036033 117.000000 0.205634 156.000000 -0.055134
430623.000000 1.736616 366.000000 359.000000 260.000000 -0.075080 300.000000 0.143542 311.000000 0.062476 344.000000 -0.066004 16.000000 -0.096376 117.000000 0.201907 155.000000 -0.075585
431723.000000 1.800940 370.000000 345.000000 258.000000 -0.066800 288.000000 0.109797 312.000000 -0.091943 330.000000 -0.101236 17.000000 -0.087286 111.000000 0.222229 156.000000 -0.082111
432756.000000 1.704137 341.000000 334.000000 253.000000 -0.026671 277.000000 0.153675 303.000000 -0.069430 317.000000 -0.081155 14.000000 -0.073198 109.000000 0.204362 151.000000 -0.016189
433453.000000 1.734533 363.000000 361.000000 272.000000 -0.055330 304.000000 0.125407 313.000000 0.061364 346.000000 -0.114529 15.000000 -0.062445 114.000000 0.232910 156.000000 -0.059581
435584.000000 1.782572 368.000000 372.000000 289.000000 -0.044907 316.000000 0.125701 340.000000 -0.083672 357.000000 -0.106115 15.000000 -0.064384 120.000000 0.179630 156.000000 -0.087894
436675.000000 1.744421 345.000000 343.000000 246.000000 -0.053698 287.000000 0.117164 321.000000 -0.103966 325.000000 -0.088981 15.000000 -0.105060 108.000000 0.196481 153.000000 -0.086214
437018.000000 1.757978 343.000000 365.000000 280.000000 -0.041754 307.000000 0.140550 332.000000 -0.077930 351.000000 -0.084013 15.000000 -0.059859 115.000000 0.215116 154.000000 -0.068413
437767.000000 1.591533 384.000000 366.000000 281.000000 -0.033433 311.000000 0.126721 333.000000 -0.097556 351.000000 -0.120205 15.000000 -0.082462 125.000000 0.203767 154.000000 -0.060731
438481.000000 1.883308 348.000000 347.000000 260.000000 -0.062706 289.000000 0.100037 317.000000 -0.087000 331.000000 -0.108851 15.000000 -0.097473 115.000000 0.201676 155.000000 -0.087918
440232.000000 1.685738 356.000000 350.000000 252.000000 -0.087083 294.000000 0.107981 307.000000 0.011693 336.000000 -0.097352 19.000000 -0.111329 120.000000 0.224512 155.000000 -0.056118
441953.000000 1.732503 350.000000 357.000000 263.000000 -0.084563 300.000000 0.095297 312.000000 0.062240 342.000000 -0.077288 16.000000 -0.053888 124.000000 0.258088 158.000000 -0.070643
442967.000000 1.903118 318.000000 321.000000 239.000000 -0.089447 266.000000 0.116586 287.000000 -0.077743 306.000000 -0.082664 15.000000 -0.084749 110.000000 0.215442 146.000000 -0.101315
