351.000000 2.160248 351.000000 374.000000 291.000000 -0.149748 332.000000 0.173921 342.000000 0.011444 359.000000 -0.142946 15.000000 -0.269250 97.000000 0.761051 150.000000 -0.122036
1086.000000 2.172962 361.000000 362.000000 283.000000 -0.067286 321.000000 0.232870 344.000000 -0.161458 347.000000 -0.180690 13.000000 -0.222352 97.000000 0.730610 151.000000 -0.168576
1448.000000 2.169559 362.000000 382.000000 311.000000 -0.082362 339.000000 0.171618 358.000000 -0.218603 362.000000 -0.209623 12.000000 -0.253011 102.000000 0.727552 153.000000 -0.197695
2571.000000 2.077572 373.000000 348.000000 288.000000 -0.158477 306.000000 0.300598 326.000000 -0.216849 332.000000 -0.179797 12.000000 -0.212492 101.000000 0.711573 150.000000 -0.138760
3234.000000 2.207524 315.000000 337.000000 278.000000 -0.139435 297.000000 0.191068 316.000000 -0.166111 320.000000 -0.181628 13.000000 -0.299483 98.000000 0.756017 150.000000 -0.201587
3571.000000 2.141647 337.000000 360.000000 290.000000 -0.175549 319.000000 0.117431 339.000000 -0.253888 343.000000 -0.225267 15.000000 -0.252005 103.000000 0.807416 157.000000 -0.126499
3931.000000 2.339074 360.000000 351.000000 288.000000 -0.119685 308.000000 0.173544 333.000000 -0.209951 334.000000 -0.230876 13.000000 -0.349470 104.000000 0.656787 158.000000 -0.141533
4947.000000 2.331942 334.000000 308.000000 233.000000 -0.170157 270.000000 0.222257 288.000000 -0.140094 293.000000 -0.122210 14.000000 -0.286521 95.000000 0.591364 139.000000 -0.177193
5255.000000 2.259045 308.000000 303.000000 243.000000 -0.169372 267.000000 0.173667 283.000000 -0.205879 289.000000 -0.208481 11.000000 -0.239374 97.000000 0.659167 150.000000 -0.217835
5558.000000 2.341882 303.000000 305.000000 245.000000 -0.132227 264.000000 0.208776 286.000000 -0.189827 290.000000 -0.154717 12.000000 -0.244498 96.000000 0.488140 152.000000 -0.163417
5863.000000 2.278794 305.000000 312.000000 226.000000 -0.187227 275.000000 0.232052 291.000000 -0.171741 294.000000 -0.175470 13.000000 -0.238276 103.000000 0.471597 137.000000 -0.084078
6472.000000 2.129891 297.000000 285.000000 216.000000 -0.136348 246.000000 0.168932 260.000000 -0.181380 270.000000 -0.140454 14.000000 -0.340094 106.000000 0.423841 151.000000 -0.158321
6757.000000 2.042180 285.000000 288.000000 231.000000 -0.156126 249.000000 0.198874 268.000000 -0.161409 272.000000 -0.158698 14.000000 -0.273666 102.000000 0.324264 135.000000 -0.167914
7045.000000 2.142025 288.000000 291.000000 233.000000 -0.176601 254.000000 0.202318 271.000000 -0.127023 273.000000 -0.146741 13.000000 -0.252990 97.000000 0.323138 134.000000 -0.084811
7336.000000 2.259467 291.000000 279.000000 217.000000 -0.148934 245.000000 0.215142 262.000000 -0.128290 266.000000 -0.165923 12.000000 -0.199532 94.000000 0.311945 127.000000 -0.157301
7615.000000 2.261349 279.000000 282.000000 215.000000 -0.129874 247.000000 0.214136 261.000000 -0.152824 263.000000 -0.175895 13.000000 -0.220848 92.000000 0.292693 130.000000 -0.120390
7897.000000 2.254623 282.000000 286.000000 214.000000 -0.144340 248.000000 0.227369 268.000000 -0.184750 269.000000 -0.174389 12.000000 -0.248028 97.000000 0.212602 136.000000 -0.104573
8183.000000 2.200798 286.000000 292.000000 217.000000 -0.144048 255.000000 0.222818 271.000000 -0.199924 277.000000 -0.212884 14.000000 -0.206159 94.000000 0.192026 102.000000 0.155772
8475.000000 2.200582 292.000000 283.000000 223.000000 -0.115833 247.000000 0.225109 264.000000 -0.140612 267.000000 -0.172102 14.000000 -0.279151 107.000000 0.207336 140.000000 -0.056458
8758.000000 2.207583 283.000000 267.000000 209.000000 -0.120061 232.000000 0.242794 241.000000 -0.188272 254.000000 -0.194121 13.000000 -0.300661 100.000000 0.197507 133.000000 -0.137130
9025.000000 2.224782 267.000000 247.000000 191.000000 -0.096064 212.000000 0.232948 227.000000 -0.191081 230.000000 -0.146458 12.000000 -0.257524 92.000000 0.154121 123.000000 -0.159762
9517.000000 2.249875 245.000000 252.000000 191.000000 -0.080080 211.000000 0.268713 227.000000 -0.149516 240.000000 -0.191865 14.000000 -0.202210 92.000000 0.219936 125.000000 -0.146005
9769.000000 2.295454 252.000000 270.000000 207.000000 -0.125417 230.000000 0.231761 250.000000 -0.192113 254.000000 -0.172928 12.000000 -0.216943 93.000000 0.236776 131.000000 -0.191737
10315.000000 2.258826 276.000000 268.000000 186.000000 0.050064 225.000000 0.210519 249.000000 -0.183556 252.000000 -0.184888 14.000000 -0.303951 98.000000 0.344621 137.000000 -0.094465
10583.000000 2.209579 268.000000 302.000000 228.000000 -0.156132 262.000000 0.190279 283.000000 -0.170113 288.000000 -0.179705 12.000000 -0.239858 94.000000 0.348807 147.000000 -0.183229
10885.000000 2.142554 302.000000 360.000000 300.000000 -0.119089 321.000000 0.210865 341.000000 -0.158164 345.000000 -0.116942 13.000000 -0.221678 97.000000 0.403617 143.000000 -0.164067
11935.000000 1.717852 346.000000 352.000000 249.000000 -0.122726 312.000000 0.183352 333.000000 -0.047540 338.000000 -0.020016 11.000000 -0.104640 99.000000 0.359955 139.000000 -0.095450
12287.000000 1.534798 352.000000 363.000000 270.000000 -0.099059 321.000000 0.184167 344.000000 -0.074595 348.000000 -0.042542 12.000000 -0.099499 100.000000 0.334781 142.000000 -0.114060
13001.000000 1.377677 351.000000 318.000000 247.000000 -0.147351 280.000000 0.158809 289.000000 -0.005643 298.000000 -0.056583 8.000000 -0.120786 100.000000 0.401584 147.000000 -0.106079
13319.000000 1.393870 318.000000 298.000000 236.000000 -0.115222 263.000000 0.140076 279.000000 -0.052210 283.000000 -0.047273 16.000000 -0.125893 95.000000 0.277011 143.000000 -0.145983
13617.000000 1.279186 298.000000 301.000000 231.000000 -0.127662 265.000000 0.173133 282.000000 0.002554 288.000000 0.021833 17.000000 -0.116568 92.000000 0.257601 137.000000 -0.117456
13918.000000 1.247852 301.000000 310.000000 227.000000 -0.090800 275.000000 0.172081 289.000000 -0.003092 295.000000 0.016548 12.000000 -0.025610 95.000000 0.212255 131.000000 -0.113122
14903.000000 1.099483 338.000000 328.000000 255.000000 -0.104414 292.000000 0.139282 305.000000 -0.024669 312.000000 -0.036096 11.000000 -0.006491 101.000000 0.264261 150.000000 -0.118480
15231.000000 1.046411 328.000000 330.000000 268.000000 -0.088760 294.000000 0.138998 311.000000 -0.011801 317.000000 0.018856 12.000000 -0.065548 103.000000 0.273150 146.000000 -0.076663
15561.000000 1.036362 330.000000 339.000000 273.000000 -0.095861 301.000000 0.174375 320.000000 -0.022677 325.000000 0.013890 12.000000 0.008652 98.000000 0.252898 150.000000 -0.081228
15900.000000 1.118216 339.000000 345.000000 243.000000 -0.125646 305.000000 0.106504 324.000000 -0.048841 330.000000 -0.012790 11.000000 -0.004513 95.000000 0.278494 97.000000 0.244168
16245.000000 1.113152 345.000000 360.000000 297.000000 -0.072495 320.000000 0.128824 336.000000 -0.024765 348.000000 0.033482 11.000000 -0.043856 96.000000 0.311791 138.000000 -0.086557
16605.000000 1.075129 360.000000 393.000000 318.000000 -0.171551 354.000000 -0.008728 374.000000 -0.073745 382.000000 -0.016692 11.000000 0.015254 97.000000 0.277384 146.000000 -0.064218
16998.000000 1.054092 393.000000 357.000000 258.000000 -0.098437 316.000000 0.103821 319.000000 0.064197 334.000000 -0.002479 5.000000 0.461741 101.000000 0.340674 151.000000 -0.080034
17701.000000 1.082791 346.000000 325.000000 260.000000 -0.064981 285.000000 0.147198 301.000000 -0.024590 310.000000 0.024860 11.000000 -0.024797 100.000000 0.211957 147.000000 -0.096471
18026.000000 1.083838 325.000000 308.000000 235.000000 -0.089861 272.000000 0.161472 273.000000 0.146911 280.000000 0.029482 14.000000 0.003133 93.000000 0.193790 140.000000 -0.101742
18644.000000 1.058605 310.000000 320.000000 233.000000 -0.080596 284.000000 0.197493 299.000000 -0.007289 305.000000 0.020831 17.000000 -0.079202 104.000000 0.140991 141.000000 -0.095843
18964.000000 1.156677 320.000000 311.000000 243.000000 -0.091540 270.000000 0.150418 289.000000 -0.014722 296.000000 -0.004501 15.000000 -0.078387 103.000000 0.151125 150.000000 -0.094326
19275.000000 1.199387 311.000000 304.000000 241.000000 -0.058711 265.000000 0.156556 283.000000 0.000038 288.000000 -0.011592 13.000000 -0.016334 97.000000 0.118758 150.000000 -0.103901
19579.000000 1.091057 304.000000 290.000000 214.000000 -0.023448 250.000000 0.198258 271.000000 -0.026507 275.000000 -0.005190 13.000000 -0.009604 99.000000 0.105584 140.000000 -0.076955
19869.000000 1.000596 290.000000 267.000000 202.000000 -0.063292 230.000000 0.135030 249.000000 -0.042539 254.000000 -0.004749 16.000000 -0.130657 98.000000 0.081053 130.000000 -0.074575
20136.000000 1.036740 267.000000 270.000000 208.000000 -0.061346 232.000000 0.141069 242.000000 -0.028617 258.000000 -0.032112 13.000000 -0.090487 94.000000 0.135611 130.000000 -0.087774
20406.000000 1.088373 270.000000 285.000000 223.000000 -0.066161 245.000000 0.171865 261.000000 -0.017006 272.000000 -0.006410 11.000000 -0.025891 94.000000 0.127292 139.000000 -0.113165
21300.000000 1.163259 312.000000 336.000000 272.000000 -0.065943 298.000000 0.163743 315.000000 -0.030738 320.000000 -0.026350 11.000000 0.002035 100.000000 0.211186 149.000000 -0.073311
22008.000000 1.294483 372.000000 356.000000 292.000000 -0.069810 318.000000 0.181632 338.000000 -0.028024 343.000000 0.004687 11.000000 0.011237 101.000000 0.211601 138.000000 -0.093194
22364.000000 1.314296 356.000000 326.000000 253.000000 -0.136930 286.000000 0.095752 301.000000 -0.018510 311.000000 -0.033996 13.000000 -0.053071 92.000000 0.262179 135.000000 -0.117936
23016.000000 1.298340 326.000000 348.000000 244.000000 -0.141547 310.000000 0.220050 329.000000 0.032779 334.000000 0.037513 11.000000 0.028841 95.000000 0.324900 153.000000 -0.164470
23364.000000 1.358044 348.000000 355.000000 278.000000 -0.122227 312.000000 0.142115 333.000000 -0.104561 340.000000 -0.066269 15.000000 -0.037865 101.000000 0.274157 150.000000 -0.087787
23719.000000 1.415362 355.000000 329.000000 250.000000 -0.115472 292.000000 0.195767 309.000000 -0.065721 315.000000 -0.042633 13.000000 -0.157536 105.000000 0.352478 151.000000 -0.142207
24048.000000 1.433497 329.000000 314.000000 240.000000 -0.132428 279.000000 0.182746 287.000000 0.019643 294.000000 -0.069607 13.000000 -0.119732 100.000000 0.358155 146.000000 -0.121514
24362.000000 1.469186 314.000000 322.000000 249.000000 -0.094150 285.000000 0.210582 303.000000 -0.065470 308.000000 -0.060033 12.000000 -0.111565 94.000000 0.335079 138.000000 -0.144263
25010.000000 1.565187 326.000000 328.000000 252.000000 -0.126030 291.000000 0.190615 309.000000 -0.094307 313.000000 -0.089324 11.000000 -0.135674 93.000000 0.363257 139.000000 -0.146836
25338.000000 1.532981 328.000000 359.000000 288.000000 -0.117190 317.000000 0.208764 337.000000 -0.104811 343.000000 -0.088339 12.000000 -0.110200 101.000000 0.381144 148.000000 -0.094378
25697.000000 1.556002 359.000000 371.000000 308.000000 -0.107534 330.000000 0.247355 353.000000 -0.072552 355.000000 -0.072176 13.000000 -0.108385 102.000000 0.367224 149.000000 -0.105149
26068.000000 1.679577 371.000000 366.000000 302.000000 -0.117208 325.000000 0.198421 342.000000 -0.088915 352.000000 -0.078633 15.000000 -0.132633 102.000000 0.363510 145.000000 -0.081147
26434.000000 1.638953 366.000000 353.000000 287.000000 -0.134467 313.000000 0.212493 333.000000 -0.132742 338.000000 -0.110563 13.000000 -0.152129 97.000000 0.413579 137.000000 -0.098958
26787.000000 1.737823 353.000000 351.000000 283.000000 -0.169105 313.000000 0.129641 331.000000 -0.072335 335.000000 -0.086771 13.000000 -0.127601 92.000000 0.414263 136.000000 -0.086866
27138.000000 1.808072 351.000000 333.000000 268.000000 -0.111659 292.000000 0.161632 311.000000 -0.108683 317.000000 -0.117962 15.000000 -0.134515 95.000000 0.429953 145.000000 -0.155220
27471.000000 1.841549 333.000000 339.000000 268.000000 -0.089703 297.000000 0.220484 315.000000 -0.128872 320.000000 -0.133872 12.000000 -0.126302 98.000000 0.359153 146.000000 -0.151240
27810.000000 1.876364 339.000000 351.000000 290.000000 -0.105015 311.000000 0.243027 332.000000 -0.144325 337.000000 -0.147537 12.000000 -0.219498 106.000000 0.354737 151.000000 -0.139275
28161.000000 2.037573 351.000000 339.000000 267.000000 -0.069185 302.000000 0.272603 321.000000 -0.132382 325.000000 -0.140753 12.000000 -0.195266 98.000000 0.347337 151.000000 -0.124040
28500.000000 2.074042 339.000000 301.000000 231.000000 -0.155174 268.000000 0.206567 284.000000 -0.184484 288.000000 -0.164406 13.000000 -0.223311 94.000000 0.413568 130.000000 -0.098341
28801.000000 2.149013 301.000000 304.000000 232.000000 -0.143811 267.000000 0.238274 277.000000 0.003274 285.000000 -0.119609 12.000000 -0.278009 94.000000 0.452288 149.000000 -0.149048
29105.000000 2.133650 304.000000 303.000000 245.000000 0.034783 270.000000 0.342353 278.000000 -0.097961 283.000000 -0.196456 13.000000 -0.217571 94.000000 0.415614 135.000000 -0.137132
29408.000000 2.124234 303.000000 304.000000 240.000000 -0.121505 257.000000 0.254232 282.000000 -0.156285 285.000000 -0.117648 13.000000 -0.234716 112.000000 0.429014 124.000000 -0.156080
29712.000000 2.171914 304.000000 312.000000 251.000000 -0.077916 275.000000 0.220722 295.000000 -0.114798 297.000000 -0.154593 14.000000 -0.286238 102.000000 0.407226 150.000000 -0.173668
30024.000000 1.898196 312.000000 310.000000 250.000000 -0.185549 274.000000 0.247382 288.000000 -0.057601 294.000000 -0.044827 13.000000 -0.172602 95.000000 0.343418 142.000000 -0.120549
30334.000000 1.869123 310.000000 296.000000 240.000000 -0.138401 260.000000 0.126772 276.000000 -0.128497 280.000000 -0.187667 14.000000 -0.173087 97.000000 0.358745 141.000000 -0.202446
30630.000000 1.814667 296.000000 291.000000 229.000000 -0.240221 250.000000 0.102648 270.000000 -0.171646 274.000000 -0.182775 14.000000 -0.306664 100.000000 0.502836 140.000000 -0.152476
31190.000000 2.142668 269.000000 272.000000 148.000000 -0.192728 230.000000 0.204937 250.000000 -0.179138 254.000000 -0.194012 10.000000 -0.244339 93.000000 0.491646 148.000000 -0.192728
31462.000000 2.168042 272.000000 265.000000 182.000000 -0.119264 222.000000 0.247256 245.000000 -0.125454 250.000000 -0.209466 16.000000 -0.247006 97.000000 0.519827 140.000000 -0.302979
32014.000000 2.223120 287.000000 322.000000 253.000000 -0.169606 279.000000 0.179375 293.000000 -0.088023 307.000000 -0.196817 12.000000 -0.390893 100.000000 0.679011 169.000000 -0.226161
32336.000000 2.180691 322.000000 332.000000 269.000000 -0.191991 297.000000 0.171427 311.000000 -0.149654 315.000000 -0.165782 12.000000 -0.360863 105.000000 0.662978 158.000000 -0.162960
32867.000000 1.273873 199.000000 174.000000 17.000000 -1.205985 105.000000 0.934795 144.000000 0.030765 150.000000 0.031407 14.000000 -1.163179 103.000000 1.017100 144.000000 0.030765
33653.000000 1.101018 176.000000 653.000000 590.000000 -0.058932 618.000000 0.252196 630.000000 -0.086771 634.000000 -0.140078 15.000000 -1.244686 168.000000 1.606157 212.000000 -0.689278
34666.000000 2.135832 360.000000 191.000000 45.000000 -0.270984 115.000000 0.297839 151.000000 -0.293526 162.000000 -0.177256 13.000000 -0.298524 97.000000 0.611586 151.000000 -0.293526
36757.000000 1.598103 655.000000 825.000000 751.000000 -0.108212 790.000000 0.206849 794.000000 0.137804 802.000000 -0.024093 13.000000 -0.208872 364.000000 1.353152 407.000000 -0.536786
37913.000000 1.488321 331.000000 843.000000 771.000000 -0.037160 799.000000 0.198857 816.000000 -0.045641 824.000000 -0.137977 12.000000 -0.201819 352.000000 1.317930 396.000000 -0.657824
39903.000000 1.826036 312.000000 182.000000 53.000000 -0.175282 110.000000 0.233793 142.000000 -0.301896 168.000000 -0.021598 14.000000 -0.261331 98.000000 0.513370 142.000000 -0.301896
40085.000000 0.757351 182.000000 630.000000 564.000000 0.008416 594.000000 0.248072 610.000000 -0.062351 615.000000 -0.071300 19.000000 -1.114624 168.000000 1.452196 230.000000 -0.758772
41033.000000 1.445705 318.000000 361.000000 207.000000 -1.024576 290.000000 0.954059 302.000000 0.757553 315.000000 0.335266 13.000000 -0.227617 188.000000 0.569248 215.000000 -0.973307
41837.000000 1.807996 443.000000 167.000000 36.000000 -0.200798 103.000000 0.422336 147.000000 -0.177257 160.000000 0.166957 14.000000 -0.183886 98.000000 0.461035 147.000000 -0.177257
42625.000000 0.925987 185.000000 173.000000 17.000000 -1.139734 106.000000 0.891867 142.000000 0.052118 158.000000 0.604374 16.000000 -1.169719 101.000000 0.872542 142.000000 0.052118
42798.000000 1.614466 173.000000 477.000000 415.000000 -0.060491 434.000000 0.175213 440.000000 0.159587 464.000000 -0.089580 8.000000 1.076613 184.000000 0.154793 191.000000 0.076266
43275.000000 1.724355 477.000000 184.000000 61.000000 -0.169199 111.000000 0.463902 151.000000 -0.166475 164.000000 -0.059751 13.000000 -0.183545 105.000000 0.469765 151.000000 -0.166475
43906.000000 1.583731 447.000000 601.000000 542.000000 -0.127239 562.000000 0.133935 583.000000 -0.121332 587.000000 -0.134938 12.000000 -0.133415 273.000000 0.841218 319.000000 0.028928
44507.000000 1.538620 601.000000 185.000000 34.000000 -0.259640 111.000000 0.310094 147.000000 -0.110987 173.000000 0.128261 14.000000 -0.165189 96.000000 0.512240 147.000000 -0.110987
44692.000000 0.830253 185.000000 659.000000 600.000000 -0.133119 620.000000 0.168056 638.000000 -0.088448 640.000000 -0.104607 21.000000 -0.910705 175.000000 1.396431 225.000000 -0.495436
45976.000000 1.869389 625.000000 180.000000 32.000000 -0.196381 108.000000 0.458325 146.000000 -0.139700 150.000000 -0.225249 13.000000 -0.173010 98.000000 0.617619 146.000000 -0.139700
46156.000000 0.656930 180.000000 164.000000 14.000000 -1.227412 103.000000 0.889046 113.000000 0.566460 129.000000 0.213559 19.000000 -1.129026 97.000000 0.971099 140.000000 0.070879
47413.000000 1.398727 455.000000 813.000000 748.000000 -0.030376 773.000000 0.226644 785.000000 0.032930 787.000000 0.005767 14.000000 -0.186477 367.000000 1.145075 414.000000 -0.533188
50773.000000 1.505612 167.000000 439.000000 372.000000 0.014874 401.000000 0.200015 419.000000 -0.029609 423.000000 -0.077101 11.000000 0.472271 173.000000 0.109715 182.000000 0.063337
51212.000000 1.717179 439.000000 188.000000 39.000000 -0.215095 113.000000 0.403496 152.000000 -0.167305 161.000000 -0.078495 13.000000 -0.172522 101.000000 0.469844 152.000000 -0.167305
51400.000000 0.654797 188.000000 450.000000 385.000000 -0.111583 409.000000 0.151441 428.000000 -0.070127 429.000000 -0.055581 16.000000 -1.107147 98.000000 0.880694 150.000000 -0.038988
51850.000000 1.601429 450.000000 362.000000 203.000000 -1.083715 285.000000 0.843856 329.000000 0.084669 345.000000 0.391927 15.000000 -0.121927 188.000000 0.536002 206.000000 -1.035940
53578.000000 1.042772 302.000000 296.000000 229.000000 -0.143036 256.000000 0.053248 275.000000 -0.125372 279.000000 -0.097928 12.000000 -0.186617 105.000000 0.387238 153.000000 -0.154250
54253.000000 1.531835 379.000000 463.000000 392.000000 -0.134952 431.000000 0.060878 444.000000 -0.054170 444.000000 -0.054170 19.000000 -0.188492 186.000000 0.228880 270.000000 0.026206
54716.000000 1.113025 463.000000 172.000000 39.000000 -0.148590 104.000000 0.347338 142.000000 -0.061598 161.000000 0.300251 14.000000 -0.136505 101.000000 0.405049 142.000000 -0.061598
54888.000000 0.979059 172.000000 671.000000 609.000000 -0.071692 626.000000 0.064688 649.000000 -0.028055 656.000000 -0.024230 14.000000 -0.249673 174.000000 1.222239 243.000000 -0.461460
55559.000000 1.004107 671.000000 188.000000 43.000000 -0.183369 113.000000 0.315268 152.000000 0.080895 169.000000 0.275457 14.000000 -0.058871 109.000000 0.364639 152.000000 0.080895
55747.000000 1.241428 188.000000 480.000000 414.000000 -0.037586 444.000000 0.175610 462.000000 0.015628 464.000000 -0.009686 18.000000 -0.073321 169.000000 0.146829 250.000000 -0.023983
56227.000000 0.953811 480.000000 321.000000 259.000000 -0.136176 282.000000 0.077696 301.000000 -0.062507 307.000000 -0.048933 14.000000 -0.083497 107.000000 0.229166 151.000000 0.007163
56548.000000 0.943591 321.000000 293.000000 225.000000 -0.055411 255.000000 0.145248 275.000000 -0.030959 281.000000 -0.011179 11.000000 -0.052035 94.000000 0.314636 146.000000 -0.234155
57495.000000 0.961063 320.000000 377.000000 209.000000 -0.720736 294.000000 0.753307 346.000000 0.155236 348.000000 0.159468 13.000000 -0.164439 95.000000 0.500343 157.000000 -0.171127
58345.000000 0.927667 473.000000 189.000000 55.000000 -0.235219 115.000000 0.322773 151.000000 -0.020174 173.000000 0.224401 18.000000 -0.128040 102.000000 0.402349 151.000000 -0.020174
58534.000000 1.138086 189.000000 458.000000 398.000000 -0.070046 423.000000 0.124796 436.000000 -0.028323 437.000000 -0.038793 10.000000 0.153087 178.000000 0.137298 201.000000 0.099273
58992.000000 0.970593 458.000000 177.000000 29.000000 -0.176945 107.000000 0.286738 148.000000 -0.155504 164.000000 -0.018151 6.000000 0.161644 97.000000 0.422491 148.000000 -0.155504
59769.000000 0.907073 439.000000 185.000000 47.000000 -0.214573 111.000000 0.260108 143.000000 0.041347 153.000000 0.070907 13.000000 -0.109276 101.000000 0.366725 143.000000 0.041347
59954.000000 1.245456 185.000000 479.000000 416.000000 -0.060814 438.000000 0.130925 456.000000 -0.008323 463.000000 -0.012852 25.000000 -0.245362 174.000000 0.137448 182.000000 0.096913
61082.000000 0.894063 445.000000 194.000000 129.000000 0.017617 173.000000 0.403839 143.000000 0.019309 150.000000 0.051581 14.000000 -0.143085 97.000000 0.359311 142.000000 -0.006725
62099.000000 0.950221 369.000000 389.000000 311.000000 -0.084257 347.000000 0.088923 363.000000 -0.030044 375.000000 -0.013886 12.000000 -0.104919 99.000000 0.433921 153.000000 -0.077960
62488.000000 0.993575 389.000000 335.000000 268.000000 -0.103664 298.000000 0.033420 302.000000 -0.033147 312.000000 -0.091017 13.000000 -0.110437 101.000000 0.459111 153.000000 -0.118598
62823.000000 0.895359 335.000000 305.000000 241.000000 -0.140077 269.000000 0.041157 285.000000 -0.073669 291.000000 -0.053214 15.000000 -0.147932 96.000000 0.436774 151.000000 -0.152896
63128.000000 0.785187 305.000000 371.000000 309.000000 -0.135612 332.000000 0.029466 350.000000 -0.089515 358.000000 -0.050017 13.000000 -0.123590 96.000000 0.483809 149.000000 -0.100317
63499.000000 0.949624 371.000000 192.000000 38.000000 -0.173339 116.000000 0.176629 156.000000 -0.181568 178.000000 -0.023496 12.000000 -0.088356 97.000000 0.512398 156.000000 -0.181568
63691.000000 0.549075 192.000000 171.000000 17.000000 -0.745642 103.000000 0.625111 138.000000 0.156677 143.000000 0.136159 19.000000 -0.733260 97.000000 0.614124 138.000000 0.156677
64035.000000 0.653370 173.000000 533.000000 487.000000 -0.066235 509.000000 0.106853 518.000000 0.106209 522.000000 0.114359 11.000000 -0.342178 96.000000 0.692777 155.000000 0.052999
64568.000000 1.010378 533.000000 198.000000 48.000000 -0.244435 120.000000 0.282162 159.000000 0.014214 172.000000 0.138369 11.000000 0.015754 114.000000 0.339889 159.000000 0.014214
64766.000000 1.489309 198.000000 521.000000 462.000000 -0.031522 486.000000 0.123289 498.000000 -0.005928 508.000000 0.008760 17.000000 -0.090454 169.000000 0.160567 181.000000 0.139500
65287.000000 1.004497 521.000000 417.000000 340.000000 -0.128804 379.000000 0.101759 400.000000 -0.066550 405.000000 0.012776 11.000000 -0.050910 98.000000 0.433639 150.000000 -0.071603
66104.000000 1.046662 400.000000 382.000000 304.000000 -0.129951 336.000000 0.093088 358.000000 -0.110344 364.000000 -0.061348 12.000000 -0.096503 96.000000 0.530615 148.000000 -0.127894
66886.000000 1.175050 400.000000 416.000000 352.000000 -0.086925 375.000000 0.103782 396.000000 -0.046548 399.000000 -0.042521 12.000000 -0.081548 105.000000 0.553141 161.000000 -0.089746
67302.000000 1.154312 416.000000 400.000000 329.000000 -0.118840 361.000000 0.135989 374.000000 -0.039044 386.000000 -0.044576 15.000000 -0.112068 98.000000 0.590673 156.000000 -0.132603
67702.000000 1.329830 400.000000 393.000000 328.000000 -0.096896 353.000000 0.121833 369.000000 -0.072461 379.000000 -0.065485 11.000000 -0.111016 100.000000 0.630379 148.000000 -0.120709
68464.000000 1.331912 369.000000 406.000000 343.000000 -0.096051 364.000000 0.153134 385.000000 -0.059749 390.000000 -0.060376 13.000000 -0.139954 100.000000 0.560504 152.000000 -0.207520
72193.000000 2.001865 377.000000 367.000000 307.000000 -0.134548 326.000000 0.176252 345.000000 -0.155407 349.000000 -0.149718 14.000000 -0.214750 98.000000 0.692605 149.000000 -0.175445
73730.000000 2.092319 393.000000 357.000000 292.000000 -0.170549 317.000000 0.150281 338.000000 -0.166974 340.000000 -0.182035 14.000000 -0.251522 104.000000 0.666584 156.000000 -0.127487
74087.000000 2.065940 357.000000 321.000000 264.000000 -0.190080 285.000000 0.143259 302.000000 -0.172416 305.000000 -0.166741 13.000000 -0.319686 100.000000 0.706535 151.000000 -0.185110
74408.000000 2.081145 321.000000 335.000000 266.000000 -0.124531 294.000000 0.213915 313.000000 -0.160003 318.000000 -0.161350 13.000000 -0.265486 97.000000 0.706647 151.000000 -0.172711
77024.000000 2.077571 353.000000 377.000000 316.000000 -0.150485 335.000000 0.179751 355.000000 -0.164152 358.000000 -0.189387 14.000000 -0.255956 108.000000 0.665474 155.000000 -0.152171
77771.000000 2.046613 370.000000 386.000000 323.000000 -0.123085 344.000000 0.189831 363.000000 -0.164326 367.000000 -0.193386 14.000000 -0.253623 105.000000 0.647024 153.000000 -0.120217
79261.000000 2.149686 404.000000 390.000000 325.000000 -0.043435 346.000000 0.301738 362.000000 -0.102290 375.000000 -0.172054 13.000000 -0.240754 103.000000 0.621093 153.000000 -0.139929
80033.000000 2.065108 382.000000 341.000000 275.000000 -0.171894 300.000000 0.155928 318.000000 -0.185202 322.000000 -0.160719 13.000000 -0.257272 105.000000 0.615926 151.000000 -0.160501
80374.000000 2.204439 341.000000 312.000000 235.000000 -0.186896 270.000000 0.150893 292.000000 -0.168354 292.000000 -0.168354 16.000000 -0.258163 101.000000 0.729645 154.000000 -0.216378
80686.000000 2.259860 312.000000 334.000000 272.000000 -0.141648 293.000000 0.186989 307.000000 -0.109421 314.000000 -0.187540 16.000000 -0.246817 95.000000 0.714216 151.000000 -0.184505
83307.000000 2.200190 362.000000 357.000000 296.000000 -0.137051 316.000000 0.190550 334.000000 -0.163477 339.000000 -0.175014 13.000000 -0.254891 101.000000 0.715375 155.000000 -0.135311
85213.000000 2.157729 376.000000 387.000000 322.000000 -0.128827 347.000000 0.196816 367.000000 -0.138136 371.000000 -0.164107 14.000000 -0.235861 103.000000 0.722318 151.000000 -0.137851
85600.000000 2.178354 387.000000 412.000000 344.000000 -0.098225 366.000000 0.187197 389.000000 -0.157837 399.000000 -0.242713 14.000000 -0.248825 106.000000 0.709652 155.000000 -0.130444
87507.000000 2.101757 374.000000 382.000000 315.000000 -0.114950 339.000000 0.180833 359.000000 -0.132115 364.000000 -0.148103 13.000000 -0.258195 102.000000 0.713572 154.000000 -0.166481
88711.000000 2.110043 412.000000 386.000000 317.000000 -0.118214 344.000000 0.231442 362.000000 -0.130107 366.000000 -0.159512 13.000000 -0.257778 111.000000 0.687522 150.000000 -0.048419
89742.000000 2.138780 311.000000 315.000000 257.000000 -0.205378 273.000000 0.161833 298.000000 -0.167569 298.000000 -0.167569 12.000000 -0.282990 100.000000 0.704499 156.000000 -0.181069
90057.000000 2.163701 315.000000 341.000000 279.000000 -0.121447 300.000000 0.204918 322.000000 -0.161006 324.000000 -0.141633 15.000000 -0.288306 107.000000 0.661311 154.000000 -0.137228
90398.000000 2.138103 341.000000 379.000000 319.000000 -0.095421 337.000000 0.177949 359.000000 -0.159608 361.000000 -0.170016 15.000000 -0.248683 108.000000 0.668823 156.000000 -0.119674
90777.000000 2.195894 379.000000 357.000000 294.000000 -0.054905 316.000000 0.258481 336.000000 -0.072633 339.000000 -0.064859 12.000000 -0.303776 108.000000 0.664576 156.000000 -0.162883
92046.000000 2.033763 292.000000 299.000000 216.000000 -0.157571 255.000000 0.121942 280.000000 -0.179546 285.000000 -0.182241 10.000000 -0.351411 104.000000 0.596694 153.000000 -0.204480
92345.000000 2.158794 299.000000 314.000000 247.000000 -0.184621 274.000000 0.125159 294.000000 -0.211833 299.000000 -0.196959 13.000000 -0.274436 106.000000 0.622344 163.000000 -0.167776
93015.000000 2.132132 356.000000 379.000000 308.000000 -0.124388 340.000000 0.252115 351.000000 -0.086051 357.000000 -0.120831 14.000000 -0.186554 107.000000 0.581376 151.000000 -0.032191
93713.000000 2.173589 319.000000 321.000000 256.000000 -0.151583 285.000000 0.173527 300.000000 -0.181895 306.000000 -0.198746 13.000000 -0.286616 99.000000 0.594893 149.000000 -0.181122
94034.000000 2.142664 321.000000 342.000000 277.000000 -0.101563 301.000000 0.243044 320.000000 -0.166597 324.000000 -0.166002 13.000000 -0.238827 103.000000 0.559779 151.000000 -0.095783
96335.000000 1.921034 618.000000 328.000000 243.000000 -0.150425 286.000000 0.104153 297.000000 -0.038041 307.000000 -0.218793 13.000000 -0.220268 106.000000 0.399753 145.000000 -0.097064
97909.000000 1.557163 290.000000 308.000000 240.000000 -0.169937 267.000000 0.052946 287.000000 -0.169750 291.000000 -0.133701 13.000000 -0.130893 98.000000 0.527310 157.000000 -0.137269
98217.000000 1.592207 308.000000 296.000000 235.000000 -0.132991 258.000000 0.115331 264.000000 0.035410 282.000000 -0.062303 15.000000 -0.185990 102.000000 0.455348 150.000000 -0.158745
98513.000000 1.509218 296.000000 306.000000 242.000000 -0.161599 263.000000 0.043841 284.000000 -0.177805 294.000000 -0.133244 13.000000 -0.137818 100.000000 0.439519 153.000000 -0.125705
98819.000000 1.340250 306.000000 315.000000 253.000000 -0.151675 275.000000 0.043778 294.000000 -0.093715 300.000000 -0.098637 12.000000 -0.148622 105.000000 0.482114 157.000000 -0.162433
99134.000000 1.386096 315.000000 337.000000 239.000000 -0.150941 295.000000 0.103951 309.000000 -0.053323 322.000000 -0.060675 19.000000 -0.160896 104.000000 0.502407 159.000000 -0.127593
99471.000000 1.373259 337.000000 336.000000 251.000000 -0.126050 295.000000 0.090251 311.000000 -0.070674 325.000000 -0.046316 12.000000 -0.049939 103.000000 0.515331 156.000000 -0.103651
99807.000000 1.285066 336.000000 312.000000 243.000000 -0.157820 271.000000 0.073529 291.000000 -0.072773 298.000000 -0.024640 12.000000 -0.053523 103.000000 0.458296 156.000000 -0.102273
100442.000000 1.195658 323.000000 345.000000 260.000000 -0.103024 308.000000 0.125532 324.000000 -0.030737 333.000000 0.006207 11.000000 -0.025832 103.000000 0.416634 155.000000 -0.147405
101518.000000 1.207115 369.000000 365.000000 298.000000 -0.079118 324.000000 0.090552 340.000000 -0.034904 351.000000 -0.019434 13.000000 -0.036225 107.000000 0.415198 153.000000 -0.106238
101883.000000 1.181976 365.000000 346.000000 285.000000 -0.135785 307.000000 0.087774 323.000000 -0.045784 332.000000 0.021584 12.000000 -0.017790 102.000000 0.400176 154.000000 -0.110150
102229.000000 1.112731 346.000000 330.000000 266.000000 -0.101269 290.000000 0.068698 310.000000 -0.028464 315.000000 -0.017946 14.000000 -0.022569 98.000000 0.397944 148.000000 -0.076054
102559.000000 1.085736 330.000000 350.000000 257.000000 -0.128809 309.000000 0.074407 333.000000 -0.012944 333.000000 -0.012944 12.000000 -0.031177 98.000000 0.400042 151.000000 -0.104255
102909.000000 1.145708 350.000000 391.000000 324.000000 -0.068858 350.000000 0.070783 364.000000 -0.055769 377.000000 -0.009812 13.000000 -0.014152 103.000000 0.421013 157.000000 -0.058610
103667.000000 1.128841 367.000000 375.000000 307.000000 -0.063746 333.000000 0.088354 353.000000 -0.013387 360.000000 -0.009500 13.000000 -0.041799 106.000000 0.423711 156.000000 -0.104862
104409.000000 1.201315 367.000000 368.000000 302.000000 -0.092097 330.000000 0.105803 351.000000 -0.023901 351.000000 -0.023901 15.000000 -0.071601 102.000000 0.451344 155.000000 -0.057997
105123.000000 1.193576 346.000000 379.000000 312.000000 -0.055753 336.000000 0.108555 348.000000 -0.010033 365.000000 -0.013731 13.000000 -0.029400 103.000000 0.462997 156.000000 -0.093351
105898.000000 1.245359 396.000000 389.000000 317.000000 -0.080702 348.000000 0.121758 363.000000 -0.052002 378.000000 -0.044262 13.000000 -0.035720 107.000000 0.429520 154.000000 -0.088327
106631.000000 1.288007 344.000000 346.000000 248.000000 -0.150520 305.000000 0.100452 321.000000 -0.048998 333.000000 -0.024154 12.000000 -0.086319 100.000000 0.446525 149.000000 -0.094758
106977.000000 1.247666 346.000000 389.000000 300.000000 -0.087430 343.000000 0.136206 363.000000 -0.063825 370.000000 -0.058090 13.000000 -0.031801 103.000000 0.468865 152.000000 -0.103311
107366.000000 1.387399 389.000000 410.000000 341.000000 -0.096786 367.000000 0.113559 388.000000 -0.068260 394.000000 -0.047367 19.000000 -0.123682 110.000000 0.444943 159.000000 -0.089020
108537.000000 1.416894 383.000000 384.000000 319.000000 -0.053856 344.000000 0.109171 366.000000 -0.055375 368.000000 -0.046049 12.000000 -0.034752 98.000000 0.491340 155.000000 -0.126624
109289.000000 1.374423 368.000000 379.000000 308.000000 -0.106460 335.000000 0.106283 360.000000 -0.067117 365.000000 -0.047540 14.000000 -0.091800 102.000000 0.481916 152.000000 -0.126969
109668.000000 1.368668 379.000000 395.000000 331.000000 -0.085501 352.000000 0.138603 375.000000 -0.065864 382.000000 -0.033482 13.000000 -0.074874 107.000000 0.475282 155.000000 -0.100886
110432.000000 1.418998 369.000000 356.000000 288.000000 -0.111297 314.000000 0.124407 334.000000 -0.102914 341.000000 -0.091849 12.000000 -0.130830 105.000000 0.476472 153.000000 -0.106931
111136.000000 1.471505 348.000000 334.000000 253.000000 -0.099273 294.000000 0.110128 305.000000 -0.038257 321.000000 -0.071519 14.000000 -0.133324 103.000000 0.519937 151.000000 -0.121568
111470.000000 1.410940 334.000000 363.000000 261.000000 -0.127393 320.000000 0.079987 344.000000 -0.108996 344.000000 -0.108996 12.000000 -0.134906 104.000000 0.519376 155.000000 -0.142334
111833.000000 1.467256 363.000000 394.000000 330.000000 -0.062428 349.000000 0.133558 372.000000 -0.058605 377.000000 -0.045659 15.000000 -0.159031 108.000000 0.589511 155.000000 -0.077507
112955.000000 1.619735 340.000000 349.000000 271.000000 -0.082775 311.000000 0.108338 331.000000 -0.095376 332.000000 -0.120549 15.000000 -0.136344 101.000000 0.561164 155.000000 -0.148239
113672.000000 1.824325 368.000000 387.000000 321.000000 -0.106175 344.000000 0.136065 367.000000 -0.187022 372.000000 -0.205110 12.000000 -0.152494 105.000000 0.558806 154.000000 -0.109720
114059.000000 1.910079 387.000000 344.000000 276.000000 -0.096439 303.000000 0.157666 317.000000 -0.089355 332.000000 -0.206316 12.000000 -0.211535 107.000000 0.693733 158.000000 -0.147287
114403.000000 1.869546 344.000000 335.000000 247.000000 -0.186835 297.000000 0.143716 306.000000 -0.063792 321.000000 -0.174405 12.000000 -0.267429 107.000000 0.664890 155.000000 -0.164564
114738.000000 2.044123 335.000000 344.000000 282.000000 -0.113214 305.000000 0.220815 314.000000 -0.050157 331.000000 -0.194235 14.000000 -0.263667 106.000000 0.628112 157.000000 -0.164646
115082.000000 2.201755 344.000000 346.000000 287.000000 -0.150063 305.000000 0.158323 316.000000 -0.029812 332.000000 -0.177445 12.000000 -0.230941 99.000000 0.636261 155.000000 -0.180402
115428.000000 2.236915 346.000000 336.000000 264.000000 -0.146821 293.000000 0.195359 317.000000 -0.172180 322.000000 -0.167838 13.000000 -0.319451 101.000000 0.749077 150.000000 -0.099590
115764.000000 2.213573 336.000000 357.000000 295.000000 -0.095438 313.000000 0.221647 334.000000 -0.143150 339.000000 -0.155641 14.000000 -0.265785 100.000000 0.668413 156.000000 -0.186276
116121.000000 2.347241 357.000000 410.000000 331.000000 -0.090895 367.000000 0.211957 390.000000 -0.158370 396.000000 -0.193245 17.000000 -0.272008 110.000000 0.666597 157.000000 -0.125947
116909.000000 2.328587 378.000000 370.000000 293.000000 -0.080817 329.000000 0.181316 342.000000 -0.092758 355.000000 -0.137866 13.000000 -0.249672 108.000000 0.642052 155.000000 -0.179785
117279.000000 2.370065 370.000000 373.000000 312.000000 -0.135500 333.000000 0.205440 352.000000 -0.156785 358.000000 -0.143274 13.000000 -0.208305 103.000000 0.670314 154.000000 -0.185889
117652.000000 2.442792 373.000000 338.000000 260.000000 -0.119749 295.000000 0.198590 319.000000 -0.136645 320.000000 -0.141865 12.000000 -0.277773 103.000000 0.680271 148.000000 -0.187455
117990.000000 2.408667 338.000000 373.000000 302.000000 -0.098120 329.000000 0.233276 352.000000 -0.136550 357.000000 -0.157820 9.000000 -0.252320 107.000000 0.670826 153.000000 -0.212674
118363.000000 2.452603 373.000000 395.000000 332.000000 -0.103230 353.000000 0.241755 374.000000 -0.145374 377.000000 -0.141737 14.000000 -0.209733 112.000000 0.659245 156.000000 -0.149970
119140.000000 2.486537 382.000000 345.000000 278.000000 -0.115862 305.000000 0.190891 326.000000 -0.153826 331.000000 -0.167572 13.000000 -0.254122 103.000000 0.704472 152.000000 -0.151000
119485.000000 2.469277 345.000000 365.000000 278.000000 -0.115277 324.000000 0.231257 347.000000 -0.135610 349.000000 -0.165421 12.000000 -0.214925 106.000000 0.670735 153.000000 -0.190158
119850.000000 2.522571 365.000000 373.000000 314.000000 -0.088166 334.000000 0.215471 355.000000 -0.104278 358.000000 -0.116034 13.000000 -0.195911 101.000000 0.646588 148.000000 -0.179058
120223.000000 2.427526 373.000000 380.000000 316.000000 -0.068744 336.000000 0.180142 347.000000 0.005988 366.000000 -0.168416 14.000000 -0.198444 107.000000 0.637509 154.000000 -0.137484
120603.000000 2.417476 380.000000 402.000000 340.000000 -0.064920 358.000000 0.204374 371.000000 -0.047961 395.000000 -0.084199 14.000000 -0.205315 110.000000 0.623535 156.000000 -0.143817
121005.000000 2.405659 402.000000 397.000000 325.000000 -0.092679 355.000000 0.200801 378.000000 -0.135455 380.000000 -0.121035 13.000000 -0.193934 110.000000 0.645731 158.000000 -0.125335
121402.000000 2.436299 397.000000 367.000000 301.000000 -0.070846 327.000000 0.234358 348.000000 -0.129328 353.000000 -0.159484 16.000000 -0.215973 104.000000 0.602075 153.000000 -0.170541
122119.000000 2.375943 350.000000 352.000000 268.000000 -0.100345 309.000000 0.237445 333.000000 -0.189828 338.000000 -0.254357 13.000000 -0.201612 101.000000 0.639375 156.000000 -0.164940
122810.000000 2.386065 339.000000 328.000000 263.000000 -0.142194 285.000000 0.174859 293.000000 0.041645 315.000000 -0.219687 12.000000 -0.382021 106.000000 0.662398 154.000000 -0.145395
123138.000000 2.374390 328.000000 346.000000 282.000000 -0.086916 306.000000 0.195217 315.000000 -0.029861 331.000000 -0.163949 13.000000 -0.252695 108.000000 0.628994 154.000000 -0.213140
123484.000000 2.455204 346.000000 399.000000 316.000000 -0.086628 359.000000 0.194453 380.000000 -0.106237 385.000000 -0.116942 14.000000 -0.182523 104.000000 0.672880 155.000000 -0.197469
123883.000000 2.476006 399.000000 365.000000 304.000000 -0.090391 323.000000 0.235705 342.000000 -0.130658 344.000000 -0.160581 12.000000 -0.196925 101.000000 0.662356 152.000000 -0.186060
124248.000000 2.453714 365.000000 397.000000 328.000000 -0.051144 354.000000 0.256426 379.000000 -0.093388 381.000000 -0.129627 14.000000 -0.203481 102.000000 0.681064 154.000000 -0.199672
124645.000000 2.378586 397.000000 387.000000 318.000000 -0.090845 342.000000 0.201068 368.000000 -0.172522 373.000000 -0.221613 13.000000 -0.251807 107.000000 0.658890 154.000000 -0.150149
125032.000000 2.403182 387.000000 384.000000 294.000000 -0.104154 340.000000 0.219388 365.000000 -0.159044 370.000000 -0.185392 13.000000 -0.216269 110.000000 0.651488 156.000000 -0.173638
125416.000000 2.413570 384.000000 372.000000 297.000000 -0.086864 328.000000 0.191520 349.000000 -0.151459 355.000000 -0.148841 13.000000 -0.212073 110.000000 0.648382 154.000000 -0.179283
125788.000000 2.421613 372.000000 327.000000 252.000000 -0.178694 290.000000 0.195709 311.000000 -0.164936 314.000000 -0.143495 16.000000 -0.240065 104.000000 0.716914 149.000000 -0.186534
126812.000000 2.356586 361.000000 356.000000 298.000000 -0.083340 315.000000 0.179875 335.000000 -0.164375 340.000000 -0.174061 14.000000 -0.256956 107.000000 0.674999 156.000000 -0.175474
127168.000000 2.414215 356.000000 396.000000 333.000000 -0.054859 352.000000 0.250659 375.000000 -0.112036 380.000000 -0.130326 13.000000 -0.236692 111.000000 0.653718 161.000000 -0.150579
127564.000000 2.399297 396.000000 391.000000 323.000000 -0.094953 350.000000 0.232855 370.000000 -0.100312 375.000000 -0.111943 15.000000 -0.192303 110.000000 0.671691 160.000000 -0.127049
127955.000000 2.363290 391.000000 355.000000 278.000000 -0.085013 315.000000 0.191366 337.000000 -0.142820 339.000000 -0.161723 13.000000 -0.217947 103.000000 0.678916 152.000000 -0.169093
128310.000000 2.388525 355.000000 367.000000 283.000000 -0.099282 325.000000 0.202914 346.000000 -0.114766 348.000000 -0.090299 14.000000 -0.199579 102.000000 0.664933 153.000000 -0.177324
128677.000000 2.358465 367.000000 372.000000 306.000000 -0.093289 329.000000 0.202211 350.000000 -0.165612 357.000000 -0.189859 15.000000 -0.208134 108.000000 0.682899 155.000000 -0.164922
129049.000000 2.385063 372.000000 398.000000 334.000000 -0.109608 355.000000 0.217304 374.000000 -0.133933 382.000000 -0.147994 14.000000 -0.234702 108.000000 0.650241 156.000000 -0.134807
129819.000000 2.314061 372.000000 365.000000 303.000000 -0.073826 324.000000 0.227492 347.000000 -0.130702 351.000000 -0.135905 16.000000 -0.209448 106.000000 0.633196 157.000000 -0.207435
130184.000000 2.365597 365.000000 355.000000 296.000000 -0.110878 315.000000 0.204499 336.000000 -0.125141 341.000000 -0.151755 13.000000 -0.197396 101.000000 0.664697 156.000000 -0.172745
130539.000000 2.330504 355.000000 333.000000 271.000000 -0.154511 292.000000 0.194595 314.000000 -0.158447 318.000000 -0.172381 13.000000 -0.253463 100.000000 0.698452 152.000000 -0.177266
131233.000000 2.354608 361.000000 399.000000 316.000000 -0.086331 354.000000 0.234576 378.000000 -0.114860 381.000000 -0.172712 15.000000 -0.195189 108.000000 0.648125 156.000000 -0.165836
131632.000000 2.372241 399.000000 380.000000 307.000000 -0.076333 335.000000 0.215816 358.000000 -0.136645 368.000000 -0.311362 14.000000 -0.222867 110.000000 0.665112 157.000000 -0.161815
132012.000000 2.391148 380.000000 370.000000 310.000000 -0.121552 329.000000 0.202006 351.000000 -0.156726 356.000000 -0.157133 12.000000 -0.253161 104.000000 0.674500 154.000000 -0.211312
132382.000000 2.407805 370.000000 340.000000 236.000000 -0.174247 298.000000 0.191755 320.000000 -0.127071 326.000000 -0.131381 13.000000 -0.219313 99.000000 0.703588 154.000000 -0.197026
132722.000000 2.414029 340.000000 356.000000 287.000000 -0.085783 313.000000 0.203399 336.000000 -0.140974 341.000000 -0.146726 13.000000 -0.224794 102.000000 0.660774 154.000000 -0.183568
133078.000000 2.367914 356.000000 388.000000 319.000000 -0.108245 342.000000 0.199137 357.000000 -0.078434 373.000000 -0.204969 14.000000 -0.188308 104.000000 0.661598 153.000000 -0.157175
133835.000000 2.377930 369.000000 372.000000 307.000000 -0.068666 327.000000 0.243451 339.000000 -0.029213 358.000000 -0.174200 12.000000 -0.276850 110.000000 0.644062 156.000000 -0.206608
134207.000000 2.398434 372.000000 362.000000 295.000000 -0.102804 321.000000 0.223684 343.000000 -0.149780 349.000000 -0.191082 12.000000 -0.204701 105.000000 0.640932 156.000000 -0.197155
134569.000000 2.422097 362.000000 335.000000 274.000000 -0.134638 293.000000 0.169956 302.000000 0.009047 321.000000 -0.170703 11.000000 -0.275943 102.000000 0.687365 152.000000 -0.180313
134904.000000 2.342053 335.000000 347.000000 287.000000 -0.080407 306.000000 0.224625 327.000000 -0.145282 332.000000 -0.142414 12.000000 -0.244766 103.000000 0.639691 154.000000 -0.230323
135251.000000 2.381848 347.000000 365.000000 300.000000 -0.071146 321.000000 0.253681 333.000000 0.000938 349.000000 -0.136680 12.000000 -0.210849 110.000000 0.634254 156.000000 -0.184491
135616.000000 2.372067 365.000000 362.000000 290.000000 -0.121566 316.000000 0.204407 340.000000 -0.158964 345.000000 -0.159889 13.000000 -0.293136 106.000000 0.629502 155.000000 -0.169648
135978.000000 2.363261 362.000000 376.000000 311.000000 -0.124544 332.000000 0.215660 356.000000 -0.137444 360.000000 -0.169137 13.000000 -0.197945 111.000000 0.630256 155.000000 -0.168724
136354.000000 2.358403 376.000000 369.000000 305.000000 -0.119889 328.000000 0.204123 350.000000 -0.161004 355.000000 -0.186600 14.000000 -0.172318 106.000000 0.654343 154.000000 -0.126862
137058.000000 2.348794 335.000000 348.000000 287.000000 -0.149449 308.000000 0.155628 329.000000 -0.179672 335.000000 -0.227165 12.000000 -0.228856 103.000000 0.630845 155.000000 -0.194467
137406.000000 2.238524 348.000000 351.000000 282.000000 -0.124498 308.000000 0.182085 334.000000 -0.188839 336.000000 -0.204153 14.000000 -0.262980 103.000000 0.654956 152.000000 -0.102956
137757.000000 2.266961 351.000000 343.000000 253.000000 -0.156598 299.000000 0.175818 316.000000 -0.109777 328.000000 -0.123352 13.000000 -0.280829 113.000000 0.609391 155.000000 -0.122836
138100.000000 1.901631 343.000000 361.000000 293.000000 -0.152396 317.000000 0.066475 341.000000 -0.178634 346.000000 -0.164512 14.000000 -0.278241 111.000000 0.659987 157.000000 -0.060392
138461.000000 1.959059 361.000000 357.000000 242.000000 -0.174672 316.000000 0.140768 339.000000 -0.088120 340.000000 -0.098136 13.000000 -0.181114 105.000000 0.568712 177.000000 -0.084027
138818.000000 1.873856 357.000000 355.000000 291.000000 -0.104308 314.000000 0.131430 329.000000 -0.042944 341.000000 -0.057773 15.000000 -0.141694 103.000000 0.559064 156.000000 -0.137991
139173.000000 1.750252 355.000000 357.000000 240.000000 -0.174330 315.000000 0.123997 328.000000 -0.022210 342.000000 -0.043793 13.000000 -0.081035 102.000000 0.568974 152.000000 -0.164222
139530.000000 1.569187 357.000000 345.000000 243.000000 -0.180223 302.000000 0.151486 326.000000 -0.076914 330.000000 -0.073669 13.000000 -0.072631 104.000000 0.539348 155.000000 -0.177848
139875.000000 1.545062 345.000000 362.000000 259.000000 -0.153450 319.000000 0.125970 335.000000 -0.045441 347.000000 -0.051098 14.000000 -0.108715 113.000000 0.519097 161.000000 -0.111013
140237.000000 1.393118 362.000000 336.000000 257.000000 -0.135960 293.000000 0.086926 303.000000 0.014387 320.000000 -0.068198 13.000000 -0.121756 111.000000 0.500208 156.000000 -0.125200
140573.000000 1.295031 336.000000 347.000000 273.000000 -0.075498 304.000000 0.109346 321.000000 -0.031877 335.000000 -0.016611 13.000000 -0.109155 105.000000 0.478331 157.000000 -0.141935
141278.000000 1.325328 358.000000 361.000000 291.000000 -0.121050 321.000000 0.088183 335.000000 -0.061300 347.000000 -0.059181 15.000000 -0.084123 102.000000 0.501708 154.000000 -0.108195
141639.000000 1.228123 361.000000 335.000000 244.000000 -0.158714 294.000000 0.086207 310.000000 -0.109373 321.000000 -0.073277 13.000000 -0.111077 102.000000 0.481098 152.000000 -0.097902
141974.000000 1.102820 335.000000 362.000000 234.000000 -0.159546 318.000000 0.105146 340.000000 -0.071469 347.000000 -0.047395 14.000000 -0.074517 109.000000 0.503541 158.000000 -0.104502
142336.000000 1.085519 362.000000 377.000000 310.000000 -0.071897 335.000000 0.083778 355.000000 -0.076144 360.000000 -0.039294 15.000000 -0.075029 108.000000 0.467291 162.000000 -0.096062
142713.000000 1.064814 377.000000 357.000000 293.000000 -0.038430 317.000000 0.118309 334.000000 -0.044859 345.000000 -0.035033 16.000000 -0.116565 107.000000 0.468462 155.000000 -0.113292
143070.000000 1.058227 357.000000 327.000000 242.000000 -0.132350 287.000000 0.083716 312.000000 -0.028589 316.000000 -0.007868 11.000000 -0.023952 105.000000 0.434284 154.000000 -0.128244
143397.000000 1.104185 327.000000 311.000000 206.000000 -0.219012 271.000000 0.167038 291.000000 0.059297 299.000000 0.112023 13.000000 -0.023309 96.000000 0.409029 157.000000 -0.247291
143708.000000 1.051709 311.000000 327.000000 229.000000 -0.150426 284.000000 0.119388 292.000000 0.034169 310.000000 -0.055988 13.000000 0.041097 103.000000 0.489874 175.000000 -0.121346
144035.000000 1.024390 327.000000 320.000000 239.000000 -0.158370 280.000000 0.105593 291.000000 0.003649 306.000000 -0.004610 22.000000 -0.158026 113.000000 0.438301 175.000000 -0.196537
144355.000000 1.031285 320.000000 325.000000 240.000000 -0.156115 284.000000 0.058728 301.000000 -0.080142 311.000000 -0.086834 13.000000 -0.108984 110.000000 0.451395 163.000000 -0.069981
144680.000000 1.028197 325.000000 309.000000 232.000000 -0.139157 265.000000 0.046692 281.000000 -0.077321 295.000000 -0.010347 15.000000 -0.114561 103.000000 0.454561 160.000000 -0.142572
144989.000000 1.022772 309.000000 327.000000 222.000000 -0.134374 286.000000 0.072850 302.000000 -0.069266 312.000000 -0.030347 7.000000 0.070232 106.000000 0.421674 154.000000 -0.133606
145687.000000 1.056849 371.000000 378.000000 317.000000 -0.081097 339.000000 0.075534 354.000000 -0.073260 365.000000 -0.037520 25.000000 -0.116361 99.000000 0.446953 155.000000 -0.126525
146453.000000 1.119831 388.000000 371.000000 308.000000 -0.059000 328.000000 0.125170 350.000000 -0.053027 355.000000 -0.019578 12.000000 -0.013931 106.000000 0.454908 163.000000 -0.147652
146824.000000 1.079842 371.000000 369.000000 302.000000 -0.107963 324.000000 0.108808 340.000000 -0.047274 354.000000 -0.020487 16.000000 -0.059122 108.000000 0.457194 158.000000 -0.131130
147873.000000 1.138494 335.000000 319.000000 241.000000 -0.126692 277.000000 0.086147 293.000000 -0.067599 306.000000 -0.018242 13.000000 -0.032371 102.000000 0.393409 131.000000 -0.045350
148192.000000 1.141192 319.000000 329.000000 229.000000 -0.126806 287.000000 0.110186 304.000000 -0.074656 313.000000 -0.056551 14.000000 -0.110235 102.000000 0.448697 152.000000 -0.117449
148888.000000 1.252856 367.000000 414.000000 343.000000 -0.051033 371.000000 0.147351 395.000000 -0.006020 399.000000 -0.032619 14.000000 -0.094122 113.000000 0.448025 181.000000 -0.082851
149302.000000 1.303872 414.000000 385.000000 327.000000 -0.096192 347.000000 0.074090 363.000000 -0.092979 370.000000 -0.045911 15.000000 -0.099090 107.000000 0.453815 155.000000 -0.087686
149687.000000 1.227915 385.000000 346.000000 273.000000 -0.098446 304.000000 0.077695 321.000000 -0.081473 331.000000 -0.066976 15.000000 -0.110941 101.000000 0.491311 151.000000 -0.104975
150780.000000 1.380097 393.000000 399.000000 331.000000 -0.073431 356.000000 0.122636 374.000000 -0.069572 384.000000 -0.069589 14.000000 -0.085124 111.000000 0.476734 157.000000 -0.090739
151179.000000 1.417619 399.000000 395.000000 325.000000 -0.083840 351.000000 0.107901 372.000000 -0.055360 378.000000 -0.037992 15.000000 -0.098134 109.000000 0.484524 158.000000 -0.098879
151932.000000 1.531911 358.000000 356.000000 222.000000 -0.168460 316.000000 0.135268 327.000000 -0.026425 342.000000 -0.093981 15.000000 -0.094219 106.000000 0.523753 155.000000 -0.157328
152288.000000 1.569983 356.000000 377.000000 316.000000 -0.070767 333.000000 0.119874 350.000000 -0.069906 364.000000 -0.110468 12.000000 -0.114482 103.000000 0.556607 156.000000 -0.101031
152665.000000 1.562416 377.000000 388.000000 323.000000 -0.044810 344.000000 0.193419 367.000000 -0.077569 373.000000 -0.067710 12.000000 -0.128807 106.000000 0.531852 168.000000 -0.131332
153053.000000 1.689438 388.000000 378.000000 309.000000 -0.084903 334.000000 0.153624 351.000000 -0.096658 364.000000 -0.108602 13.000000 -0.159684 119.000000 0.527604 178.000000 -0.103041
153431.000000 1.841209 378.000000 355.000000 291.000000 -0.191880 313.000000 0.130285 334.000000 -0.177694 337.000000 -0.206942 13.000000 -0.118365 107.000000 0.550944 161.000000 -0.156395
153786.000000 1.821162 355.000000 303.000000 194.000000 -0.061960 214.000000 0.121066 220.000000 -0.339891 289.000000 -0.187445 13.000000 -0.271599 101.000000 0.720299 151.000000 -0.159670
154381.000000 1.862505 292.000000 303.000000 239.000000 -0.184262 261.000000 0.151351 282.000000 -0.191815 285.000000 -0.183619 12.000000 -0.213295 99.000000 0.487882 151.000000 -0.093574
155006.000000 2.105392 322.000000 314.000000 253.000000 -0.139419 270.000000 0.180707 293.000000 -0.172163 299.000000 -0.194656 11.000000 -0.228761 110.000000 0.482585 158.000000 -0.114121
155320.000000 2.094452 314.000000 314.000000 242.000000 -0.167774 271.000000 0.201020 294.000000 -0.149559 300.000000 -0.155265 16.000000 -0.223524 109.000000 0.415384 157.000000 -0.162848
155634.000000 1.997225 314.000000 307.000000 240.000000 -0.191053 269.000000 0.208507 287.000000 -0.132245 293.000000 -0.195333 13.000000 -0.220173 100.000000 0.469969 152.000000 -0.130043
155941.000000 2.045169 307.000000 287.000000 221.000000 -0.225139 243.000000 0.117557 267.000000 -0.215281 273.000000 -0.196613 14.000000 -0.206490 105.000000 0.354608 141.000000 -0.055595
156499.000000 2.116354 271.000000 274.000000 207.000000 -0.112288 237.000000 0.199876 256.000000 -0.169182 260.000000 -0.167239 15.000000 -0.206641 99.000000 0.203639 134.000000 -0.100891
156773.000000 2.069594 274.000000 280.000000 207.000000 -0.161723 242.000000 0.233463 263.000000 -0.013181 266.000000 -0.170266 11.000000 -0.168024 102.000000 0.280988 131.000000 -0.029561
157340.000000 2.165142 287.000000 277.000000 199.000000 -0.046313 239.000000 0.250880 260.000000 -0.005987 262.000000 -0.059874 12.000000 -0.258963 103.000000 0.170866 139.000000 -0.088729
157896.000000 2.183275 279.000000 275.000000 214.000000 -0.084062 239.000000 0.280577 256.000000 -0.104470 262.000000 -0.147134 13.000000 -0.173402 102.000000 0.153368 129.000000 -0.058715
158171.000000 2.208007 275.000000 263.000000 202.000000 -0.072773 228.000000 0.283920 245.000000 -0.127602 249.000000 -0.141176 14.000000 -0.156350 101.000000 0.094951 117.000000 -0.135785
158691.000000 2.214843 257.000000 247.000000 190.000000 -0.090735 211.000000 0.214940 227.000000 -0.164324 232.000000 -0.165610 17.000000 -0.251535 85.000000 0.098683 116.000000 -0.058526
158938.000000 2.117838 247.000000 264.000000 201.000000 -0.119063 222.000000 0.176502 246.000000 -0.175143 250.000000 -0.182775 15.000000 -0.222208 96.000000 0.180268 130.000000 -0.101522
159202.000000 2.041537 264.000000 282.000000 207.000000 -0.055343 240.000000 0.228041 254.000000 -0.094373 262.000000 -0.179954 14.000000 -0.280782 103.000000 0.222666 148.000000 -0.127162
159484.000000 2.236550 282.000000 301.000000 235.000000 -0.093448 257.000000 0.230063 281.000000 -0.149984 285.000000 -0.164890 15.000000 -0.183512 97.000000 0.169686 147.000000 -0.182919
159785.000000 2.196164 301.000000 337.000000 262.000000 -0.103037 295.000000 0.225333 318.000000 -0.135593 322.000000 -0.154308 13.000000 -0.199071 102.000000 0.335330 144.000000 -0.078509
160122.000000 2.246552 337.000000 360.000000 282.000000 -0.097213 322.000000 0.245326 342.000000 -0.104343 342.000000 -0.104343 15.000000 -0.195126 95.000000 0.294040 134.000000 -0.060289
160482.000000 2.288197 360.000000 593.000000 536.000000 -0.056331 557.000000 0.300457 567.000000 0.152511 581.000000 -0.145670 15.000000 -0.232587 269.000000 1.265866 329.000000 -0.041514
161075.000000 2.359972 593.000000 341.000000 286.000000 -0.195472 306.000000 0.400326 322.000000 -0.148090 327.000000 -0.156334 12.000000 -0.146501 167.000000 0.702166 179.000000 -0.025971
161416.000000 2.399183 341.000000 334.000000 277.000000 -0.132727 297.000000 0.362539 313.000000 -0.127320 318.000000 -0.117069 13.000000 -0.212808 109.000000 0.326974 144.000000 -0.132552
161750.000000 2.382320 334.000000 326.000000 250.000000 -0.137602 285.000000 0.281239 294.000000 0.076144 304.000000 -0.102774 13.000000 -0.240721 109.000000 0.327571 139.000000 -0.152553
162076.000000 2.259294 326.000000 349.000000 282.000000 -0.100907 314.000000 0.268183 330.000000 -0.048776 335.000000 -0.112585 14.000000 -0.213542 104.000000 0.446226 150.000000 -0.129179
162425.000000 2.351460 349.000000 354.000000 299.000000 -0.109056 317.000000 0.229001 336.000000 -0.119402 340.000000 -0.153933 14.000000 -0.222914 103.000000 0.337757 138.000000 -0.077671
162779.000000 2.300519 354.000000 177.000000 39.000000 -0.277239 107.000000 0.298386 135.000000 -0.201708 162.000000 -0.055971 14.000000 -0.218556 96.000000 0.416819 135.000000 -0.201708
163369.000000 2.173650 413.000000 339.000000 240.000000 -0.162601 304.000000 0.191238 308.000000 0.025330 319.000000 -0.227570 15.000000 -0.170456 107.000000 0.298748 147.000000 -0.015595
163708.000000 2.225423 339.000000 361.000000 301.000000 -0.022619 324.000000 0.384936 341.000000 -0.059953 347.000000 -0.087774 18.000000 -0.222258 108.000000 0.355733 148.000000 -0.076913
164415.000000 2.433043 346.000000 321.000000 256.000000 -0.203119 283.000000 0.308149 298.000000 -0.183263 301.000000 -0.134737 12.000000 -0.208870 99.000000 0.347458 138.000000 -0.144796
164736.000000 2.332113 321.000000 326.000000 269.000000 -0.082191 287.000000 0.290380 308.000000 -0.147976 312.000000 -0.148227 13.000000 -0.138404 95.000000 0.349435 136.000000 -0.083618
166100.000000 2.418463 346.000000 320.000000 256.000000 -0.125894 279.000000 0.276802 300.000000 -0.150847 303.000000 -0.121521 12.000000 -0.247931 105.000000 0.295435 147.000000 -0.064124
166725.000000 2.407554 305.000000 304.000000 235.000000 -0.120532 266.000000 0.243635 277.000000 -0.053638 284.000000 -0.124233 14.000000 -0.214342 100.000000 0.285162 131.000000 -0.090479
167029.000000 2.323086 304.000000 332.000000 262.000000 -0.115142 297.000000 0.295345 307.000000 0.017744 311.000000 -0.150032 15.000000 -0.191475 94.000000 0.325659 136.000000 -0.058321
167361.000000 2.290156 332.000000 335.000000 272.000000 -0.153981 297.000000 0.263166 316.000000 -0.163103 321.000000 -0.194609 17.000000 -0.222571 104.000000 0.352240 137.000000 -0.093826
167696.000000 2.360126 335.000000 344.000000 279.000000 -0.120206 309.000000 0.242130 327.000000 -0.102651 329.000000 -0.122886 14.000000 -0.219198 106.000000 0.360189 146.000000 -0.117145
168040.000000 2.311613 344.000000 361.000000 299.000000 -0.122318 320.000000 0.287541 339.000000 -0.166159 343.000000 -0.159576 14.000000 -0.238403 106.000000 0.390266 151.000000 -0.086003
168401.000000 2.383885 361.000000 369.000000 308.000000 -0.098528 330.000000 0.295594 352.000000 -0.147354 356.000000 -0.156648 15.000000 -0.209186 109.000000 0.359326 151.000000 -0.089657
168770.000000 2.343698 369.000000 341.000000 283.000000 -0.157087 304.000000 0.312912 324.000000 -0.147604 327.000000 -0.126429 11.000000 -0.234250 99.000000 0.401393 148.000000 -0.081743
169111.000000 2.348635 341.000000 327.000000 238.000000 -0.157151 287.000000 0.247585 297.000000 0.016331 307.000000 -0.177682 14.000000 -0.223386 95.000000 0.407460 135.000000 -0.069454
169757.000000 2.304281 319.000000 335.000000 271.000000 -0.111881 296.000000 0.267414 315.000000 -0.193651 320.000000 -0.167961 14.000000 -0.258745 96.000000 0.402409 142.000000 -0.088361
170466.000000 2.351979 374.000000 359.000000 290.000000 -0.160862 318.000000 0.194626 340.000000 -0.179465 346.000000 -0.179669 12.000000 -0.184636 108.000000 0.387953 143.000000 -0.079539
171158.000000 2.450049 333.000000 326.000000 264.000000 -0.142758 288.000000 0.237210 305.000000 -0.133684 307.000000 -0.169155 12.000000 -0.189559 95.000000 0.412299 140.000000 -0.110946
171484.000000 2.396724 326.000000 346.000000 291.000000 -0.084624 307.000000 0.307491 328.000000 -0.124734 332.000000 -0.154043 12.000000 -0.231081 97.000000 0.403916 135.000000 -0.102701
171830.000000 2.347071 346.000000 370.000000 312.000000 -0.129529 330.000000 0.278683 349.000000 -0.137695 354.000000 -0.135908 13.000000 -0.215030 101.000000 0.393055 142.000000 -0.077098
172200.000000 2.363417 370.000000 363.000000 299.000000 -0.141784 321.000000 0.207651 341.000000 -0.163338 344.000000 -0.202930 15.000000 -0.201818 102.000000 0.439342 147.000000 -0.089792
172563.000000 2.409407 363.000000 346.000000 275.000000 -0.103854 307.000000 0.269860 327.000000 -0.139544 331.000000 -0.169592 14.000000 -0.283758 106.000000 0.458376 151.000000 -0.126546
172909.000000 2.353777 346.000000 349.000000 291.000000 -0.118982 310.000000 0.314671 329.000000 -0.132525 335.000000 -0.139092 14.000000 -0.235393 101.000000 0.467758 152.000000 -0.136769
173258.000000 2.364889 349.000000 341.000000 271.000000 -0.177901 303.000000 0.244011 315.000000 -0.124815 322.000000 -0.165112 13.000000 -0.260817 99.000000 0.452335 137.000000 -0.065015
173599.000000 2.340314 341.000000 320.000000 251.000000 -0.114202 282.000000 0.347425 303.000000 -0.110693 308.000000 -0.129236 14.000000 -0.342948 96.000000 0.511694 137.000000 -0.050967
173919.000000 2.251565 320.000000 315.000000 253.000000 -0.202270 280.000000 0.286226 296.000000 -0.248950 298.000000 -0.263636 11.000000 -0.278890 99.000000 0.433843 142.000000 -0.160532
174234.000000 2.339923 315.000000 324.000000 248.000000 -0.192477 282.000000 0.284013 304.000000 -0.119639 310.000000 -0.166864 14.000000 -0.295218 102.000000 0.513077 147.000000 -0.190454
174888.000000 2.408980 330.000000 299.000000 237.000000 -0.168733 258.000000 0.235641 281.000000 -0.186600 285.000000 -0.169703 13.000000 -0.386052 108.000000 0.470801 112.000000 0.358340
175187.000000 2.442163 299.000000 303.000000 234.000000 -0.167773 265.000000 0.278826 285.000000 -0.195610 289.000000 -0.164794 12.000000 -0.347775 104.000000 0.390064 153.000000 -0.238853
175490.000000 2.320064 303.000000 292.000000 230.000000 -0.310281 251.000000 0.191003 274.000000 -0.198057 278.000000 -0.223277 12.000000 -0.326317 99.000000 0.553821 144.000000 -0.169530
176070.000000 2.355488 288.000000 313.000000 249.000000 -0.165078 277.000000 0.319186 296.000000 -0.152806 298.000000 -0.163371 13.000000 -0.268337 102.000000 0.431019 155.000000 -0.202946
176383.000000 2.403823 313.000000 317.000000 260.000000 -0.265548 276.000000 0.190924 296.000000 -0.212083 301.000000 -0.244262 14.000000 -0.267383 102.000000 0.429861 156.000000 -0.114794
176700.000000 2.418527 317.000000 316.000000 251.000000 -0.129375 272.000000 0.266098 295.000000 -0.145077 304.000000 -0.260108 13.000000 -0.364357 99.000000 0.529997 155.000000 -0.118608
177016.000000 2.259954 316.000000 314.000000 247.000000 -0.118196 272.000000 0.219925 298.000000 -0.159667 299.000000 -0.174181 13.000000 -0.333965 99.000000 0.450376 159.000000 -0.158195
177330.000000 2.338655 314.000000 287.000000 221.000000 -0.146817 246.000000 0.184609 267.000000 -0.176285 270.000000 -0.160094 13.000000 -0.265435 102.000000 0.498827 136.000000 -0.085767
177617.000000 2.297978 287.000000 271.000000 218.000000 -0.204953 235.000000 0.101160 251.000000 -0.239844 255.000000 -0.225315 16.000000 -0.288482 103.000000 0.426332 149.000000 -0.184825
177888.000000 2.111143 271.000000 298.000000 242.000000 -0.241457 261.000000 0.095002 279.000000 -0.234890 284.000000 -0.210080 14.000000 -0.333387 95.000000 0.462914 142.000000 -0.166035
178186.000000 2.287978 298.000000 309.000000 244.000000 -0.175169 272.000000 0.226413 289.000000 -0.140171 294.000000 -0.189841 12.000000 -0.334309 94.000000 0.518591 142.000000 -0.115816
178495.000000 2.306739 309.000000 338.000000 267.000000 -0.154483 295.000000 0.255751 317.000000 -0.142776 323.000000 -0.140284 13.000000 -0.239578 102.000000 0.472538 138.000000 -0.047916
179502.000000 2.346759 324.000000 308.000000 244.000000 -0.183763 271.000000 0.261017 288.000000 -0.131052 291.000000 -0.139421 14.000000 -0.300908 108.000000 0.463979 155.000000 -0.173041
179810.000000 2.276380 308.000000 312.000000 239.000000 -0.148604 275.000000 0.317726 281.000000 0.185452 288.000000 -0.091631 13.000000 -0.254671 95.000000 0.457792 138.000000 -0.117568
180122.000000 2.265031 312.000000 320.000000 246.000000 -0.198857 281.000000 0.207932 300.000000 -0.164624 303.000000 -0.189373 16.000000 -0.209640 95.000000 0.515051 138.000000 -0.116140
180442.000000 2.212335 320.000000 339.000000 263.000000 -0.168921 297.000000 0.229904 318.000000 -0.194717 322.000000 -0.169325 14.000000 -0.247869 100.000000 0.469137 147.000000 -0.108072
180781.000000 2.217539 339.000000 361.000000 278.000000 -0.126267 318.000000 0.264701 342.000000 -0.152774 347.000000 -0.188055 15.000000 -0.241474 108.000000 0.522619 155.000000 -0.125764
181501.000000 2.183421 359.000000 330.000000 271.000000 -0.142116 294.000000 0.159924 313.000000 -0.146882 316.000000 -0.142651 13.000000 -0.202568 103.000000 0.367489 149.000000 -0.149702
181831.000000 1.963008 330.000000 315.000000 254.000000 -0.147161 281.000000 0.178341 296.000000 -0.130719 300.000000 -0.098462 13.000000 -0.293764 101.000000 0.365316 142.000000 -0.165045
182146.000000 1.825486 315.000000 319.000000 249.000000 -0.122488 284.000000 0.221695 296.000000 -0.094905 305.000000 -0.153118 14.000000 -0.187021 97.000000 0.452417 142.000000 -0.103100
182784.000000 1.654135 319.000000 320.000000 249.000000 -0.129310 282.000000 0.172462 303.000000 -0.101567 307.000000 -0.075705 14.000000 -0.208418 103.000000 0.403781 142.000000 -0.110562
183104.000000 1.527588 320.000000 331.000000 261.000000 -0.122915 293.000000 0.175440 308.000000 -0.090908 318.000000 -0.057146 13.000000 -0.158885 107.000000 0.380820 150.000000 -0.102062
183435.000000 1.388434 331.000000 343.000000 259.000000 -0.140079 304.000000 0.188261 323.000000 -0.070924 329.000000 -0.060940 13.000000 -0.149968 107.000000 0.347790 152.000000 -0.108003
184117.000000 1.332113 339.000000 314.000000 250.000000 -0.134621 276.000000 0.151243 295.000000 -0.064181 300.000000 -0.030357 14.000000 -0.149250 102.000000 0.364559 151.000000 -0.064860
184431.000000 1.224892 314.000000 321.000000 244.000000 -0.116098 286.000000 0.149215 303.000000 -0.057509 307.000000 -0.056475 13.000000 -0.124168 94.000000 0.342628 136.000000 -0.047873
185091.000000 1.089075 339.000000 362.000000 289.000000 -0.103715 322.000000 0.139309 332.000000 -0.004328 339.000000 -0.054124 18.000000 -0.135911 100.000000 0.280387 146.000000 -0.031898
185453.000000 1.119453 362.000000 353.000000 261.000000 -0.074310 314.000000 0.192211 323.000000 0.013527 330.000000 -0.062805 17.000000 -0.136079 105.000000 0.278675 155.000000 -0.099257
185806.000000 1.144907 353.000000 342.000000 288.000000 -0.072431 308.000000 0.164685 323.000000 -0.052714 329.000000 0.011878 13.000000 -0.080546 100.000000 0.226571 144.000000 -0.082236
186148.000000 1.030859 342.000000 346.000000 285.000000 -0.058213 309.000000 0.170437 325.000000 0.000029 334.000000 0.036220 13.000000 -0.121962 93.000000 0.244626 137.000000 -0.060923
187148.000000 1.094624 326.000000 360.000000 286.000000 -0.111005 323.000000 0.087163 333.000000 -0.067023 340.000000 -0.068668 14.000000 -0.094281 108.000000 0.350923 153.000000 -0.058056
187508.000000 1.054671 360.000000 343.000000 273.000000 -0.129622 305.000000 0.107069 322.000000 -0.061928 328.000000 -0.044922 14.000000 -0.109418 107.000000 0.309436 152.000000 -0.100155
187851.000000 1.001459 343.000000 358.000000 263.000000 -0.099969 316.000000 0.178304 337.000000 -0.006773 342.000000 0.039418 14.000000 -0.056424 107.000000 0.305411 146.000000 -0.070010
188209.000000 1.040420 358.000000 341.000000 279.000000 -0.130033 306.000000 0.107209 322.000000 -0.042131 327.000000 -0.007992 18.000000 -0.094409 103.000000 0.302271 148.000000 -0.089918
188871.000000 1.075422 321.000000 327.000000 263.000000 -0.115030 287.000000 0.121067 307.000000 -0.073808 313.000000 -0.041598 12.000000 -0.059436 96.000000 0.326316 138.000000 -0.051240
189514.000000 1.024512 316.000000 321.000000 247.000000 -0.138509 280.000000 0.127653 295.000000 -0.085594 306.000000 -0.061644 19.000000 -0.184690 105.000000 0.340262 159.000000 -0.082995
190481.000000 1.057321 329.000000 306.000000 235.000000 -0.185237 267.000000 0.075985 284.000000 -0.066130 293.000000 -0.053855 11.000000 -0.137898 99.000000 0.416101 152.000000 -0.133304
190787.000000 1.060470 306.000000 319.000000 244.000000 -0.148326 285.000000 0.113383 301.000000 -0.072664 304.000000 -0.058197 13.000000 -0.148715 93.000000 0.434144 149.000000 -0.128145
191451.000000 1.175313 345.000000 364.000000 297.000000 -0.072261 323.000000 0.134716 339.000000 -0.059265 350.000000 -0.029578 11.000000 -0.063214 107.000000 0.397526 155.000000 -0.057611
192181.000000 1.167150 366.000000 368.000000 310.000000 -0.106633 331.000000 0.111770 342.000000 -0.035801 356.000000 -0.038071 10.000000 -0.070030 104.000000 0.435037 154.000000 -0.069885
192549.000000 1.150081 368.000000 355.000000 281.000000 -0.086673 317.000000 0.101445 329.000000 -0.042207 341.000000 -0.051456 12.000000 -0.078351 107.000000 0.419094 153.000000 -0.076535
192904.000000 1.193449 355.000000 328.000000 253.000000 -0.157696 292.000000 0.112506 308.000000 -0.085176 313.000000 -0.089814 13.000000 -0.160266 100.000000 0.425215 144.000000 -0.078060
193232.000000 1.227852 328.000000 334.000000 269.000000 -0.128902 294.000000 0.127337 311.000000 -0.076096 320.000000 -0.062649 14.000000 -0.145047 102.000000 0.394293 145.000000 -0.076712
193566.000000 1.237320 334.000000 346.000000 266.000000 -0.103932 302.000000 0.129514 323.000000 -0.087898 332.000000 -0.027115 12.000000 -0.102964 104.000000 0.384619 151.000000 -0.064427
193912.000000 1.215909 346.000000 344.000000 239.000000 -0.147636 304.000000 0.120109 322.000000 -0.057163 328.000000 -0.033918 14.000000 -0.116957 107.000000 0.393498 155.000000 -0.074048
194606.000000 1.248902 350.000000 350.000000 291.000000 -0.095171 312.000000 0.139500 327.000000 -0.076972 337.000000 -0.039450 12.000000 -0.091223 108.000000 0.394251 153.000000 -0.080154
194956.000000 1.288920 350.000000 325.000000 255.000000 -0.156642 292.000000 0.091303 306.000000 -0.080500 311.000000 -0.056002 12.000000 -0.114326 101.000000 0.386750 145.000000 -0.084817
195281.000000 1.256787 325.000000 323.000000 231.000000 -0.141164 285.000000 0.105907 287.000000 0.085280 299.000000 -0.092369 12.000000 -0.155923 93.000000 0.406713 142.000000 -0.067863
195604.000000 1.229247 323.000000 359.000000 238.000000 -0.128209 317.000000 0.152289 339.000000 -0.074060 343.000000 -0.078465 16.000000 -0.128624 101.000000 0.411441 145.000000 -0.075985
196323.000000 1.325376 360.000000 363.000000 235.000000 -0.153246 318.000000 0.107447 339.000000 -0.104278 348.000000 -0.053307 14.000000 -0.153417 107.000000 0.411065 153.000000 -0.083344
197050.000000 1.278028 364.000000 349.000000 242.000000 -0.168274 310.000000 0.097086 333.000000 -0.085831 333.000000 -0.085831 12.000000 -0.081703 101.000000 0.378561 152.000000 -0.071930
197399.000000 1.276519 349.000000 336.000000 257.000000 -0.138712 297.000000 0.143339 318.000000 -0.099436 322.000000 -0.063652 12.000000 -0.173419 99.000000 0.463334 146.000000 -0.073421
197735.000000 1.330408 336.000000 334.000000 272.000000 -0.086692 297.000000 0.164501 313.000000 -0.089105 321.000000 -0.043290 12.000000 -0.142413 99.000000 0.402491 152.000000 -0.075691
198069.000000 1.385142 334.000000 343.000000 264.000000 -0.110624 305.000000 0.115803 317.000000 -0.057348 330.000000 -0.065954 13.000000 -0.146272 108.000000 0.364827 152.000000 -0.089797
198412.000000 1.393248 343.000000 351.000000 289.000000 -0.110154 310.000000 0.129939 333.000000 -0.100627 337.000000 -0.100469 13.000000 -0.178210 107.000000 0.405922 154.000000 -0.060946
198763.000000 1.426536 351.000000 372.000000 309.000000 -0.066655 331.000000 0.205523 347.000000 -0.075497 358.000000 -0.097678 13.000000 -0.132539 109.000000 0.398696 153.000000 -0.052940
199135.000000 1.560452 372.000000 349.000000 290.000000 -0.116569 310.000000 0.099450 331.000000 -0.107240 334.000000 -0.132774 14.000000 -0.128765 103.000000 0.390956 149.000000 -0.089757
199484.000000 1.567350 349.000000 319.000000 254.000000 -0.122599 282.000000 0.137998 300.000000 -0.104465 304.000000 -0.128933 13.000000 -0.190642 97.000000 0.477230 139.000000 -0.070529
199803.000000 1.601550 319.000000 335.000000 252.000000 -0.116647 293.000000 0.178542 317.000000 -0.109436 317.000000 -0.109436 13.000000 -0.193308 97.000000 0.401594 139.000000 -0.100145
201216.000000 2.029858 359.000000 332.000000 274.000000 -0.139627 295.000000 0.199935 311.000000 -0.144434 315.000000 -0.118774 14.000000 -0.158968 104.000000 0.367660 149.000000 -0.113136
201548.000000 2.074347 332.000000 311.000000 246.000000 -0.104577 271.000000 0.221364 291.000000 -0.105187 294.000000 -0.090908 14.000000 -0.220090 97.000000 0.343856 139.000000 -0.107975
202167.000000 2.138434 308.000000 313.000000 252.000000 -0.103602 274.000000 0.213200 292.000000 -0.144998 294.000000 -0.124732 16.000000 -0.201440 101.000000 0.315552 139.000000 -0.060891
203388.000000 2.110726 304.000000 295.000000 194.000000 -0.038478 260.000000 0.188697 263.000000 0.050673 274.000000 -0.128151 13.000000 -0.234947 98.000000 0.250521 139.000000 -0.077254
203971.000000 2.093543 288.000000 294.000000 229.000000 -0.096271 255.000000 0.242852 274.000000 -0.102994 280.000000 -0.162823 13.000000 -0.214671 92.000000 0.223559 140.000000 -0.072992
204917.000000 2.089422 339.000000 377.000000 309.000000 -0.104548 340.000000 0.243746 359.000000 -0.086160 361.000000 -0.110564 15.000000 -0.185578 106.000000 0.242098 147.000000 -0.071383
205294.000000 2.162992 377.000000 372.000000 313.000000 -0.132977 334.000000 0.170142 352.000000 -0.116675 357.000000 -0.122852 14.000000 -0.142369 101.000000 0.287041 147.000000 -0.093335
205666.000000 2.105267 372.000000 344.000000 281.000000 -0.097806 305.000000 0.248822 334.000000 -0.206349 334.000000 -0.206349 16.000000 -0.177492 95.000000 0.349896 136.000000 -0.077452
206010.000000 2.085062 344.000000 350.000000 291.000000 -0.086643 310.000000 0.303891 331.000000 -0.134198 333.000000 -0.077380 11.000000 -0.216880 93.000000 0.400941 143.000000 -0.091784
206703.000000 2.101928 343.000000 364.000000 303.000000 -0.117616 321.000000 0.205363 335.000000 -0.085920 351.000000 -0.183868 17.000000 -0.218118 103.000000 0.487592 152.000000 -0.113806
207067.000000 2.114767 364.000000 394.000000 333.000000 -0.068073 352.000000 0.264013 373.000000 -0.113103 379.000000 -0.122210 14.000000 -0.229467 105.000000 0.452600 152.000000 -0.140472
207461.000000 2.154405 394.000000 371.000000 296.000000 -0.166582 329.000000 0.213904 344.000000 -0.109953 354.000000 -0.106895 12.000000 -0.264153 101.000000 0.481818 152.000000 -0.102382
208182.000000 2.095030 350.000000 349.000000 290.000000 -0.092415 309.000000 0.225750 330.000000 -0.165236 335.000000 -0.144405 13.000000 -0.237745 99.000000 0.464970 149.000000 -0.089994
208889.000000 2.088354 358.000000 361.000000 296.000000 -0.115520 318.000000 0.228494 328.000000 0.048306 347.000000 -0.117806 15.000000 -0.209186 105.000000 0.471032 109.000000 0.421502
209250.000000 2.085769 361.000000 364.000000 257.000000 -0.159800 322.000000 0.220154 348.000000 -0.131616 348.000000 -0.131616 12.000000 -0.313791 107.000000 0.421156 152.000000 -0.139219
209614.000000 2.107618 364.000000 357.000000 297.000000 -0.140346 317.000000 0.207382 338.000000 -0.166098 344.000000 -0.184765 13.000000 -0.232414 106.000000 0.427304 153.000000 -0.116850
210305.000000 2.028764 334.000000 337.000000 282.000000 -0.147212 299.000000 0.211331 318.000000 -0.123291 323.000000 -0.101317 12.000000 -0.301504 100.000000 0.413727 143.000000 -0.079606
210642.000000 2.093730 337.000000 347.000000 281.000000 -0.092833 307.000000 0.208655 328.000000 -0.131096 328.000000 -0.131096 12.000000 -0.229373 95.000000 0.422870 140.000000 -0.079827
210989.000000 2.090503 347.000000 365.000000 304.000000 -0.078305 322.000000 0.213105 347.000000 -0.120704 347.000000 -0.120704 7.000000 -0.608306 106.000000 0.455849 151.000000 -0.131865
212080.000000 2.110924 365.000000 341.000000 281.000000 -0.110798 302.000000 0.169610 321.000000 -0.127631 325.000000 -0.112082 13.000000 -0.263402 103.000000 0.459172 144.000000 -0.129312
212421.000000 2.048168 341.000000 335.000000 258.000000 -0.123499 295.000000 0.229825 314.000000 -0.130205 320.000000 -0.143778 12.000000 -0.260013 96.000000 0.460971 139.000000 -0.097040
213115.000000 2.111097 359.000000 359.000000 290.000000 -0.125360 315.000000 0.208840 331.000000 -0.114717 342.000000 -0.170955 12.000000 -0.262556 105.000000 0.483920 152.000000 -0.082896
213828.000000 2.093321 354.000000 357.000000 299.000000 -0.102303 315.000000 0.261819 338.000000 -0.106191 342.000000 -0.160141 13.000000 -0.229000 101.000000 0.455499 146.000000 -0.107321
214524.000000 1.888811 339.000000 293.000000 232.000000 -0.170422 259.000000 0.149798 273.000000 -0.198447 277.000000 -0.192367 12.000000 -0.299795 99.000000 0.455564 146.000000 -0.131394
214817.000000 1.741177 293.000000 314.000000 241.000000 -0.244781 276.000000 0.140158 286.000000 -0.062382 292.000000 -0.168715 16.000000 -0.263841 95.000000 0.482430 135.000000 -0.120170
215131.000000 2.041615 314.000000 347.000000 285.000000 -0.117132 303.000000 0.188167 317.000000 -0.072053 329.000000 -0.195501 15.000000 -0.187851 100.000000 0.437147 145.000000 -0.093182
215842.000000 2.149168 364.000000 363.000000 297.000000 -0.170283 319.000000 0.191645 342.000000 -0.150424 346.000000 -0.167180 17.000000 -0.195550 107.000000 0.588809 152.000000 -0.140391
218136.000000 2.082630 323.000000 328.000000 270.000000 -0.179721 291.000000 0.208382 311.000000 -0.135910 312.000000 -0.161083 16.000000 -0.243449 107.000000 0.433968 145.000000 -0.138808
218793.000000 2.186913 329.000000 330.000000 256.000000 -0.181847 291.000000 0.205360 300.000000 -0.021973 309.000000 -0.168260 15.000000 -0.219779 97.000000 0.454951 133.000000 -0.049644
219450.000000 2.049609 327.000000 340.000000 268.000000 -0.131441 298.000000 0.194453 319.000000 -0.192147 323.000000 -0.150673 12.000000 -0.280798 101.000000 0.452869 146.000000 -0.110550
220877.000000 2.138371 359.000000 348.000000 288.000000 -0.132207 310.000000 0.148780 326.000000 -0.145735 330.000000 -0.134153 14.000000 -0.226598 97.000000 0.496723 144.000000 -0.104015
221225.000000 2.187526 348.000000 372.000000 301.000000 -0.120911 334.000000 0.129026 352.000000 -0.118762 357.000000 -0.139123 17.000000 -0.199105 103.000000 0.500379 150.000000 -0.121252
221597.000000 2.235705 372.000000 394.000000 317.000000 -0.071469 352.000000 0.141068 374.000000 -0.176896 375.000000 -0.167147 15.000000 -0.189217 101.000000 0.525502 151.000000 -0.110644
222392.000000 2.156568 401.000000 381.000000 315.000000 -0.112056 341.000000 0.141267 362.000000 -0.083763 366.000000 -0.088590 12.000000 -0.282429 108.000000 0.503464 147.000000 -0.146374
222773.000000 2.257100 381.000000 366.000000 290.000000 -0.129329 325.000000 0.115389 346.000000 -0.158621 351.000000 -0.148401 13.000000 -0.231019 107.000000 0.510050 139.000000 -0.079479
223497.000000 2.176884 358.000000 347.000000 263.000000 -0.121490 307.000000 0.111928 315.000000 0.036428 325.000000 -0.119199 15.000000 -0.207348 98.000000 0.546000 147.000000 -0.093812
224204.000000 2.112541 360.000000 360.000000 278.000000 -0.107339 316.000000 0.223979 338.000000 -0.131585 341.000000 -0.145458 14.000000 -0.256470 104.000000 0.479923 155.000000 -0.092586
224898.000000 1.832851 334.000000 332.000000 268.000000 -0.117571 292.000000 0.200299 311.000000 -0.080750 317.000000 -0.053620 17.000000 -0.206679 108.000000 0.433214 151.000000 -0.117663
225549.000000 1.569613 319.000000 308.000000 239.000000 -0.072255 273.000000 0.263106 283.000000 0.046069 295.000000 -0.001251 14.000000 -0.155152 98.000000 0.427192 153.000000 -0.174375
225857.000000 1.469673 308.000000 318.000000 259.000000 -0.167935 282.000000 0.160500 298.000000 -0.063058 301.000000 -0.033262 13.000000 -0.054433 97.000000 0.359308 147.000000 -0.143419
226821.000000 1.202365 324.000000 309.000000 228.000000 -0.153421 273.000000 0.139432 289.000000 -0.052118 295.000000 -0.034499 14.000000 -0.044923 98.000000 0.302971 158.000000 -0.160081
227130.000000 1.221834 309.000000 290.000000 219.000000 -0.128260 252.000000 0.053009 262.000000 -0.055095 269.000000 -0.101709 12.000000 -0.103182 96.000000 0.378854 147.000000 -0.083966
227420.000000 1.096976 290.000000 298.000000 207.000000 -0.085248 261.000000 0.188591 279.000000 0.023763 284.000000 0.027602 17.000000 -0.209797 99.000000 0.313662 149.000000 -0.109078
228014.000000 1.028085 296.000000 324.000000 247.000000 -0.201439 285.000000 0.061884 301.000000 -0.133650 311.000000 -0.070075 16.000000 -0.112244 105.000000 0.386397 150.000000 -0.048322
228338.000000 1.065615 324.000000 339.000000 259.000000 -0.132144 302.000000 0.107966 318.000000 -0.082096 322.000000 -0.047740 14.000000 -0.062332 106.000000 0.367682 156.000000 -0.039327
228677.000000 1.011993 339.000000 329.000000 247.000000 -0.111710 288.000000 0.122020 315.000000 0.004498 323.000000 0.513542 17.000000 -0.159952 108.000000 0.295350 156.000000 -0.024477
229332.000000 0.978997 326.000000 337.000000 261.000000 -0.159369 300.000000 0.174345 319.000000 0.019093 323.000000 0.068357 15.000000 -0.093824 101.000000 0.328197 153.000000 -0.085359
229669.000000 1.090344 337.000000 318.000000 227.000000 -0.091850 281.000000 0.187301 297.000000 -0.045143 306.000000 -0.011618 14.000000 -0.052916 100.000000 0.266932 141.000000 -0.050135
229987.000000 0.952786 318.000000 300.000000 236.000000 -0.149548 263.000000 0.096519 279.000000 -0.059294 288.000000 -0.004324 13.000000 -0.122103 100.000000 0.234707 144.000000 -0.048647
230594.000000 1.017351 307.000000 332.000000 254.000000 -0.121755 291.000000 0.108404 311.000000 -0.018588 316.000000 0.011380 13.000000 -0.017820 111.000000 0.273479 156.000000 -0.088215
230926.000000 1.026835 332.000000 340.000000 275.000000 -0.106348 302.000000 0.128148 322.000000 -0.039078 326.000000 0.015217 15.000000 -0.042286 109.000000 0.251631 151.000000 -0.038558
231266.000000 0.992692 340.000000 345.000000 282.000000 -0.084891 309.000000 0.177931 325.000000 -0.019969 331.000000 0.011049 12.000000 -0.020004 100.000000 0.229655 146.000000 -0.035248
231944.000000 1.040676 333.000000 302.000000 235.000000 -0.154016 267.000000 0.064902 281.000000 -0.052763 287.000000 -0.024941 13.000000 -0.107146 94.000000 0.249846 145.000000 -0.071923
232246.000000 0.992834 302.000000 319.000000 252.000000 -0.107927 278.000000 0.119331 299.000000 -0.051453 303.000000 -0.006092 15.000000 -0.054015 98.000000 0.294336 141.000000 -0.055033
232565.000000 1.087200 319.000000 345.000000 268.000000 -0.135128 307.000000 0.120042 322.000000 -0.051635 332.000000 0.019261 14.000000 -0.044197 108.000000 0.227449 151.000000 -0.021217
232910.000000 1.120785 345.000000 350.000000 281.000000 -0.135657 310.000000 0.078889 329.000000 -0.084480 336.000000 -0.038899 12.000000 -0.023366 107.000000 0.198575 150.000000 -0.047445
233596.000000 1.082210 336.000000 325.000000 253.000000 -0.084718 289.000000 0.150815 307.000000 -0.018527 312.000000 0.001944 12.000000 -0.055707 97.000000 0.227525 142.000000 -0.028070
233921.000000 1.113197 325.000000 322.000000 264.000000 -0.094355 283.000000 0.153121 302.000000 -0.042803 308.000000 0.003998 13.000000 -0.041082 97.000000 0.236280 138.000000 -0.030601
234243.000000 1.157946 322.000000 326.000000 254.000000 -0.124918 291.000000 0.124390 306.000000 -0.058760 311.000000 -0.047914 12.000000 -0.073825 98.000000 0.227979 142.000000 -0.055911
234569.000000 1.269701 326.000000 323.000000 253.000000 -0.094027 282.000000 0.136034 299.000000 -0.086333 309.000000 -0.045879 17.000000 -0.134640 96.000000 0.248809 136.000000 -0.071973
235577.000000 1.256001 348.000000 357.000000 294.000000 -0.124391 317.000000 0.104105 335.000000 -0.121568 343.000000 -0.055376 15.000000 -0.106286 105.000000 0.285677 150.000000 -0.006866
235934.000000 1.305064 357.000000 334.000000 265.000000 -0.130486 297.000000 0.169497 313.000000 -0.101835 319.000000 -0.071678 13.000000 -0.147680 100.000000 0.295218 140.000000 -0.033920
236268.000000 1.309091 334.000000 326.000000 268.000000 -0.122038 288.000000 0.115263 304.000000 -0.101351 314.000000 -0.053419 13.000000 -0.135895 96.000000 0.323605 135.000000 0.001991
236594.000000 1.235125 326.000000 316.000000 244.000000 -0.158323 278.000000 0.099108 296.000000 -0.126144 299.000000 -0.136834 11.000000 -0.164516 100.000000 0.297400 150.000000 -0.109056
237582.000000 1.385782 345.000000 352.000000 281.000000 -0.125687 311.000000 0.131711 331.000000 -0.120389 338.000000 -0.095376 12.000000 -0.131975 108.000000 0.343135 145.000000 -0.001376
238245.000000 1.278810 311.000000 321.000000 250.000000 -0.110707 284.000000 0.138700 301.000000 -0.076268 305.000000 -0.075610 14.000000 -0.174702 98.000000 0.326804 137.000000 -0.095422
239256.000000 1.553918 359.000000 361.000000 271.000000 -0.161551 319.000000 0.130515 338.000000 -0.116194 345.000000 -0.139752 16.000000 -0.170234 102.000000 0.427654 150.000000 -0.023915
239617.000000 1.572474 361.000000 343.000000 279.000000 -0.174688 304.000000 0.156032 313.000000 -0.026633 323.000000 -0.145270 14.000000 -0.225519 107.000000 0.468325 154.000000 -0.033089
239960.000000 1.634604 343.000000 320.000000 262.000000 -0.147335 282.000000 0.138841 301.000000 -0.242146 305.000000 -0.146489 19.000000 -0.245019 106.000000 0.515785 141.000000 -0.004684
240863.000000 2.044642 288.000000 308.000000 237.000000 -0.207837 271.000000 0.148888 288.000000 -0.196582 292.000000 -0.226300 13.000000 -0.242506 97.000000 0.437195 128.000000 0.003824
241171.000000 1.982351 308.000000 344.000000 277.000000 -0.096631 305.000000 0.234171 323.000000 -0.155406 326.000000 -0.164888 13.000000 -0.244796 99.000000 0.429157 146.000000 -0.072692
242232.000000 2.111223 365.000000 366.000000 295.000000 -0.103669 328.000000 0.205469 346.000000 -0.158779 351.000000 -0.145597 14.000000 -0.191251 97.000000 0.433534 142.000000 -0.095385
242598.000000 2.145957 366.000000 363.000000 300.000000 -0.086726 325.000000 0.299091 344.000000 -0.141850 350.000000 -0.147837 12.000000 -0.215768 97.000000 0.422382 145.000000 -0.011393
242961.000000 1.973184 363.000000 344.000000 283.000000 -0.142536 303.000000 0.277933 324.000000 -0.172647 329.000000 -0.156050 13.000000 -0.242382 98.000000 0.358011 135.000000 -0.011398
243662.000000 1.988215 357.000000 360.000000 292.000000 -0.147819 317.000000 0.214610 334.000000 -0.138322 341.000000 -0.185987 13.000000 -0.264576 101.000000 0.443244 146.000000 -0.077022
244698.000000 2.100659 341.000000 333.000000 268.000000 -0.161535 294.000000 0.219861 309.000000 -0.190657 319.000000 -0.163087 15.000000 -0.228118 103.000000 0.402022 142.000000 -0.076219
246073.000000 2.133260 349.000000 342.000000 276.000000 -0.192431 305.000000 0.161253 321.000000 -0.235629 324.000000 -0.199986 13.000000 -0.276364 107.000000 0.474687 151.000000 -0.026504
247339.000000 2.259622 293.000000 299.000000 236.000000 -0.148306 263.000000 0.187995 279.000000 -0.223431 281.000000 -0.176926 12.000000 -0.184956 100.000000 0.436772 146.000000 -0.117664
248257.000000 2.255925 305.000000 307.000000 246.000000 -0.170814 270.000000 0.158560 286.000000 -0.212444 290.000000 -0.226331 15.000000 -0.218528 102.000000 0.412729 154.000000 -0.161989
248862.000000 2.364720 298.000000 300.000000 243.000000 -0.179731 266.000000 0.257574 281.000000 -0.167035 285.000000 -0.126204 14.000000 -0.255673 101.000000 0.363997 135.000000 -0.124246
249457.000000 2.384859 295.000000 286.000000 221.000000 -0.170908 246.000000 0.231315 268.000000 -0.111364 271.000000 -0.218590 14.000000 -0.341599 96.000000 0.435564 137.000000 -0.128213
249743.000000 2.316127 286.000000 301.000000 244.000000 -0.039093 264.000000 0.284168 273.000000 -0.024814 286.000000 -0.120988 14.000000 -0.247744 98.000000 0.303290 129.000000 -0.042604
250353.000000 2.158699 309.000000 300.000000 237.000000 -0.222225 261.000000 0.284983 281.000000 -0.218466 287.000000 -0.244423 13.000000 -0.319858 107.000000 0.363840 142.000000 -0.114765
250653.000000 2.123415 300.000000 307.000000 239.000000 -0.195284 268.000000 0.399559 285.000000 -0.056819 290.000000 -0.222760 12.000000 -0.357854 102.000000 0.340595 146.000000 -0.102275
251236.000000 2.172024 276.000000 283.000000 214.000000 -0.096457 243.000000 0.239219 264.000000 -0.228146 269.000000 -0.152284 11.000000 -0.395389 93.000000 0.350912 133.000000 -0.165236
251519.000000 2.197715 283.000000 294.000000 236.000000 -0.180860 259.000000 0.196944 270.000000 -0.196378 281.000000 -0.184388 11.000000 -0.229339 98.000000 0.415704 142.000000 -0.158069
251813.000000 2.233010 294.000000 306.000000 238.000000 -0.164825 267.000000 0.231429 284.000000 -0.166518 286.000000 -0.161345 12.000000 -0.308605 98.000000 0.448432 151.000000 -0.189641
252475.000000 2.317242 356.000000 354.000000 283.000000 -0.133776 312.000000 0.252932 334.000000 -0.151598 340.000000 -0.227335 12.000000 -0.208635 103.000000 0.510596 149.000000 -0.134245
252829.000000 2.381207 354.000000 333.000000 266.000000 -0.303150 294.000000 0.286803 313.000000 -0.097851 319.000000 -0.134623 13.000000 -0.236959 108.000000 0.457916 156.000000 -0.100595
253162.000000 2.232947 333.000000 310.000000 242.000000 -0.173918 274.000000 0.229859 279.000000 0.142275 286.000000 -0.048556 12.000000 -0.108950 97.000000 0.502666 153.000000 -0.099342
253472.000000 2.224531 310.000000 290.000000 232.000000 -0.181270 251.000000 0.191051 270.000000 -0.174828 273.000000 -0.179326 16.000000 -0.341456 96.000000 0.383479 141.000000 -0.226350
253762.000000 2.238497 290.000000 303.000000 240.000000 -0.164452 267.000000 0.234578 275.000000 -0.104560 278.000000 -0.155877 11.000000 -0.275061 101.000000 0.491114 147.000000 -0.107273
254996.000000 2.370863 326.000000 311.000000 255.000000 -0.286645 275.000000 0.210017 291.000000 -0.208681 297.000000 -0.093728 6.000000 -0.131849 102.000000 0.477212 150.000000 -0.094732
255307.000000 2.429045 311.000000 308.000000 248.000000 -0.234138 272.000000 0.193653 285.000000 -0.168072 290.000000 -0.182288 12.000000 -0.264700 86.000000 0.309499 125.000000 -0.081459
255919.000000 2.396737 304.000000 185.000000 81.000000 0.060031 111.000000 0.120925 144.000000 -0.261598 154.000000 -0.222804 15.000000 -0.212009 97.000000 0.410925 144.000000 -0.261598
257959.000000 2.365045 375.000000 180.000000 44.000000 -0.206646 108.000000 0.216145 134.000000 -0.174859 155.000000 -0.184011 16.000000 -0.225032 91.000000 0.345158 124.000000 -0.093714
258533.000000 2.358088 394.000000 183.000000 55.000000 -0.223071 111.000000 0.343495 150.000000 -0.212651 166.000000 -0.018088 13.000000 -0.269419 106.000000 0.321692 150.000000 -0.212651
259418.000000 2.372290 290.000000 182.000000 39.000000 -0.331692 110.000000 0.228337 143.000000 -0.229310 165.000000 -0.099576 12.000000 -0.340391 97.000000 0.364231 143.000000 -0.229310
259991.000000 2.311351 391.000000 176.000000 25.000000 -0.222316 106.000000 0.232417 137.000000 -0.173698 162.000000 -0.006771 7.000000 -0.432709 100.000000 0.309673 137.000000 -0.173698
260167.000000 0.973903 176.000000 429.000000 360.000000 -0.077113 393.000000 0.281680 401.000000 0.060379 408.000000 -0.073931 16.000000 -1.253933 98.000000 1.062914 137.000000 0.142676
260596.000000 2.309812 429.000000 292.000000 232.000000 -0.182099 250.000000 0.184876 271.000000 -0.220281 274.000000 -0.190876 16.000000 -0.192430 106.000000 0.299641 141.000000 -0.081988
260888.000000 2.336899 292.000000 292.000000 225.000000 -0.175032 253.000000 0.222523 272.000000 -0.167318 278.000000 -0.181988 14.000000 -0.281002 103.000000 0.355250 145.000000 -0.183445
261667.000000 1.001348 187.000000 379.000000 318.000000 -0.061157 345.000000 0.332274 361.000000 -0.057602 365.000000 -0.125877 23.000000 -1.143386 103.000000 1.148921 156.000000 0.091819
262314.000000 2.252260 268.000000 263.000000 206.000000 -0.082132 229.000000 0.185862 236.000000 -0.096488 243.000000 -0.166238 12.000000 -0.321629 98.000000 0.387148 134.000000 -0.137615
262577.000000 2.332084 263.000000 172.000000 44.000000 -0.264859 104.000000 0.158682 141.000000 -0.197933 161.000000 0.062522 14.000000 -0.274013 96.000000 0.259857 141.000000 -0.197933
262749.000000 0.926990 172.000000 606.000000 524.000000 -0.062635 569.000000 0.420656 576.000000 0.038555 584.000000 -0.046068 15.000000 -1.336739 167.000000 1.960374 240.000000 -1.094201
263355.000000 2.344121 606.000000 291.000000 228.000000 -0.076049 253.000000 0.205111 273.000000 -0.178998 274.000000 -0.183558 20.000000 -0.234578 97.000000 0.264153 139.000000 -0.045642
263646.000000 2.400455 291.000000 179.000000 67.000000 -0.168495 108.000000 0.158323 136.000000 -0.264560 163.000000 -0.144875 12.000000 -0.317208 91.000000 0.296475 136.000000 -0.264560
263825.000000 0.924467 179.000000 387.000000 325.000000 -0.136781 352.000000 0.233894 372.000000 -0.130119 372.000000 -0.130119 18.000000 -1.266395 99.000000 1.263529 174.000000 -0.077443
264759.000000 2.207479 373.000000 282.000000 214.000000 -0.156081 240.000000 0.178778 261.000000 -0.191865 265.000000 -0.153009 13.000000 -0.174449 102.000000 0.209235 133.000000 -0.094952
265041.000000 2.120661 282.000000 295.000000 230.000000 -0.137270 258.000000 0.206444 269.000000 -0.127318 280.000000 -0.163322 15.000000 -0.224623 102.000000 0.280849 141.000000 -0.191014
265336.000000 2.143637 295.000000 596.000000 538.000000 -0.090472 557.000000 0.241127 577.000000 -0.072603 582.000000 -0.075926 15.000000 -0.200705 289.000000 1.171145 347.000000 0.094792
265932.000000 1.823745 596.000000 279.000000 221.000000 -0.122847 242.000000 0.188815 260.000000 -0.209134 263.000000 -0.207818 12.000000 -0.251473 105.000000 0.256427 139.000000 0.004001
266211.000000 1.803828 279.000000 728.000000 650.000000 -0.048995 696.000000 0.225204 705.000000 -0.005079 712.000000 -0.037823 12.000000 -0.262520 343.000000 1.618037 378.000000 -0.630130
266939.000000 1.626864 728.000000 554.000000 488.000000 -0.084592 515.000000 0.206802 538.000000 -0.063262 541.000000 -0.084703 13.000000 -0.143919 261.000000 1.061304 380.000000 -0.282227
267761.000000 1.265769 268.000000 746.000000 674.000000 -0.063920 712.000000 0.189935 729.000000 0.019496 733.000000 0.017710 13.000000 -0.113290 365.000000 1.398966 404.000000 -0.677134
268507.000000 1.330483 746.000000 496.000000 387.000000 -0.238545 464.000000 0.149887 483.000000 0.007050 491.000000 0.550969 12.000000 -0.038435 245.000000 0.755830 352.000000 -0.258638
269003.000000 1.186739 496.000000 524.000000 220.000000 -0.074043 318.000000 0.162459 400.000000 -0.305484 505.000000 -0.088242 10.000000 0.038509 274.000000 0.928009 400.000000 -0.305484
270043.000000 1.129168 516.000000 504.000000 182.000000 -1.176144 303.000000 0.163890 369.000000 -0.331202 491.000000 -0.008747 13.000000 -0.070378 261.000000 1.007464 369.000000 -0.331202
270547.000000 1.078838 504.000000 480.000000 179.000000 -0.727133 288.000000 0.103483 345.000000 -0.197959 464.000000 -0.061473 12.000000 -0.063857 250.000000 0.826648 345.000000 -0.197959
271027.000000 0.977351 480.000000 488.000000 390.000000 -0.148009 453.000000 0.149249 467.000000 -0.006349 472.000000 0.009904 16.000000 -0.176285 164.000000 0.878997 187.000000 -0.252679
271515.000000 1.047492 488.000000 531.000000 463.000000 -0.038903 493.000000 0.177509 511.000000 0.031300 516.000000 0.039293 18.000000 -0.118402 173.000000 0.730046 209.000000 -0.133669
272046.000000 0.930925 531.000000 534.000000 465.000000 -0.042650 496.000000 0.175768 515.000000 0.020267 519.000000 0.028214 14.000000 -0.108620 173.000000 1.120267 197.000000 -0.167521
272749.000000 1.168384 169.000000 332.000000 262.000000 -0.059016 297.000000 0.163791 314.000000 0.046753 318.000000 0.023555 18.000000 -0.182230 153.000000 0.024746 213.000000 -0.066115
273242.000000 1.113482 161.000000 350.000000 287.000000 -0.053073 315.000000 0.152555 330.000000 -0.017507 337.000000 0.019375 18.000000 -0.254072 99.000000 0.062150 124.000000 -0.014919
273592.000000 1.073686 350.000000 174.000000 126.000000 0.016707 151.000000 0.110312 156.000000 0.187743 163.000000 0.450926 13.000000 -0.100735 102.000000 0.155438 126.000000 0.016707
274133.000000 1.073230 367.000000 179.000000 44.000000 -0.263385 108.000000 0.144785 137.000000 -0.021191 154.000000 0.073136 14.000000 -0.131785 102.000000 0.142481 137.000000 -0.021191
275191.000000 1.160128 341.000000 170.000000 126.000000 -0.035422 149.000000 0.169108 135.000000 0.011834 142.000000 0.075737 12.000000 -0.159904 100.000000 0.112712 130.000000 -0.013839
275361.000000 1.589028 170.000000 326.000000 272.000000 -0.010504 290.000000 0.207428 308.000000 0.050938 312.000000 0.011312 24.000000 -0.181348 163.000000 0.147221 184.000000 0.015308
275687.000000 1.295625 326.000000 517.000000 442.000000 -0.159878 480.000000 0.158713 495.000000 -0.042399 503.000000 0.008102 15.000000 -0.091867 270.000000 0.904919 380.000000 -0.301335
276204.000000 1.218778 517.000000 176.000000 132.000000 -0.035094 155.000000 0.215645 159.000000 0.398968 166.000000 0.967353 14.000000 -0.148135 101.000000 0.145957 132.000000 -0.035094
276380.000000 1.738121 176.000000 339.000000 260.000000 -0.032618 298.000000 0.181646 315.000000 -0.001801 323.000000 -0.004906 18.000000 -0.106395 176.000000 0.163792 245.000000 -0.063043
276719.000000 1.143495 339.000000 178.000000 122.000000 0.114059 157.000000 0.314247 130.000000 0.067069 137.000000 0.044404 13.000000 -0.150250 102.000000 0.320218 136.000000 0.038479
276897.000000 1.728760 178.000000 329.000000 265.000000 -0.048902 289.000000 0.193967 307.000000 -0.005878 311.000000 -0.033010 21.000000 -0.113467 164.000000 0.167162 230.000000 -0.018102
277226.000000 1.207851 329.000000 164.000000 35.000000 -0.262163 99.000000 0.320019 127.000000 0.074658 153.000000 0.893575 13.000000 -0.230989 93.000000 0.335913 127.000000 0.074658
277390.000000 1.828215 164.000000 330.000000 263.000000 -0.078997 295.000000 0.156301 311.000000 -0.047226 315.000000 -0.046489 18.000000 -0.144372 167.000000 0.125858 181.000000 0.063820
277883.000000 1.549046 163.000000 350.000000 276.000000 -0.023591 311.000000 0.206815 321.000000 0.081392 336.000000 0.016157 17.000000 -0.212285 167.000000 0.062616 213.000000 -0.113212
278233.000000 1.276942 350.000000 180.000000 113.000000 0.189155 159.000000 0.250910 122.000000 0.115159 129.000000 0.073419 12.000000 -0.126348 101.000000 0.210284 143.000000 0.042634
278770.000000 1.306725 357.000000 172.000000 40.000000 -0.266990 104.000000 0.260485 141.000000 -0.007289 150.000000 0.100046 17.000000 -0.204952 96.000000 0.267210 141.000000 -0.007289
278942.000000 1.539798 172.000000 328.000000 265.000000 -0.156143 295.000000 0.123575 307.000000 -0.083745 315.000000 -0.050580 20.000000 -0.197413 164.000000 0.135549 190.000000 0.028356
279270.000000 1.213745 328.000000 160.000000 41.000000 -0.290988 96.000000 0.230988 124.000000 0.018745 132.000000 0.018634 13.000000 -0.276287 89.000000 0.261991 94.000000 0.216269
279430.000000 1.627850 160.000000 310.000000 251.000000 -0.101789 271.000000 0.176707 291.000000 -0.081836 296.000000 -0.033576 22.000000 -0.072415 163.000000 0.060530 181.000000 0.011299
279740.000000 1.285595 310.000000 160.000000 34.000000 -0.243763 99.000000 0.272288 129.000000 -0.023855 147.000000 0.151051 12.000000 -0.194672 93.000000 0.266160 129.000000 -0.023855
279900.000000 1.045643 160.000000 328.000000 254.000000 -0.071861 293.000000 0.184205 310.000000 -0.032538 314.000000 -0.029937 22.000000 -0.224388 91.000000 0.213798 97.000000 0.126870
280228.000000 1.019153 328.000000 174.000000 32.000000 -0.227711 105.000000 0.252131 131.000000 0.083041 161.000000 0.722539 14.000000 -0.202790 98.000000 0.256816 131.000000 0.083041
280728.000000 0.861819 326.000000 173.000000 131.000000 0.159110 152.000000 0.384721 154.000000 0.512103 161.000000 1.035662 13.000000 -0.302978 95.000000 0.337104 135.000000 0.113342
280901.000000 1.772873 173.000000 323.000000 260.000000 -0.066282 288.000000 0.159876 293.000000 0.068670 297.000000 -0.041956 21.000000 0.056792 174.000000 0.184469 245.000000 -0.020828
281224.000000 0.978232 323.000000 165.000000 46.000000 -0.313851 102.000000 0.327350 128.000000 0.029009 135.000000 0.024433 15.000000 -0.330905 97.000000 0.344765 128.000000 0.029009
281389.000000 1.800436 165.000000 319.000000 237.000000 -0.080644 282.000000 0.250958 285.000000 0.202573 295.000000 -0.084120 21.000000 -0.012681 184.000000 0.101598 194.000000 -0.076866
281866.000000 1.042681 158.000000 338.000000 278.000000 -0.049245 300.000000 0.376963 317.000000 0.011807 322.000000 0.062262 16.000000 -0.460657 82.000000 0.462575 124.000000 -0.041565
282714.000000 1.498448 353.000000 171.000000 46.000000 -0.164531 103.000000 0.121049 106.000000 0.091739 113.000000 0.072555 15.000000 -0.172899 89.000000 0.168290 138.000000 -0.107680
283714.000000 1.507962 312.000000 158.000000 60.000000 -0.157569 98.000000 0.271898 121.000000 -0.063807 124.000000 -0.049560 17.000000 -0.257493 92.000000 0.289045 121.000000 -0.063807
283872.000000 1.914122 158.000000 311.000000 247.000000 -0.092305 273.000000 0.253430 292.000000 -0.071238 297.000000 -0.058495 23.000000 -0.143058 132.000000 0.029274 148.000000 -0.107589
284183.000000 1.526208 311.000000 170.000000 130.000000 -0.039231 149.000000 0.163137 141.000000 0.022949 148.000000 0.128263 13.000000 -0.257178 92.000000 0.182618 130.000000 -0.039231
284353.000000 1.906821 170.000000 338.000000 276.000000 -0.084261 297.000000 0.225660 317.000000 -0.109277 322.000000 -0.101017 17.000000 -0.319464 172.000000 0.143371 183.000000 -0.003808
284862.000000 1.902884 171.000000 338.000000 224.000000 -0.269875 299.000000 0.290139 313.000000 -0.061491 325.000000 -0.026319 23.000000 -0.309982 95.000000 0.224780 135.000000 -0.083166
285200.000000 1.829011 338.000000 165.000000 40.000000 -0.118857 100.000000 0.193245 121.000000 -0.011582 144.000000 -0.093150 13.000000 -0.210629 95.000000 0.194938 121.000000 -0.011582
285694.000000 1.877433 329.000000 154.000000 76.000000 0.017179 93.000000 0.156584 110.000000 0.004514 127.000000 -0.131004 14.000000 -0.271784 91.000000 0.196631 110.000000 0.004514
285848.000000 2.081692 154.000000 321.000000 257.000000 -0.118577 280.000000 0.264811 299.000000 -0.091395 301.000000 -0.102979 19.000000 -0.361084 153.000000 0.059371 158.000000 -0.055534
286331.000000 2.066443 162.000000 332.000000 271.000000 -0.150862 294.000000 0.252351 314.000000 -0.111254 315.000000 -0.126003 19.000000 -0.387774 162.000000 0.201453 172.000000 -0.076288
286663.000000 2.056459 332.000000 166.000000 54.000000 -0.272242 100.000000 0.205458 123.000000 -0.090358 147.000000 -0.117175 15.000000 -0.329576 97.000000 0.240927 123.000000 -0.090358
287882.000000 1.990391 161.000000 348.000000 280.000000 -0.092129 315.000000 0.290348 329.000000 -0.109873 331.000000 -0.150578 18.000000 -0.532868 88.000000 0.217569 117.000000 -0.015565
288230.000000 2.192227 348.000000 159.000000 51.000000 -0.190060 100.000000 0.202259 117.000000 -0.013916 138.000000 0.007088 15.000000 -0.241880 93.000000 0.249986 117.000000 -0.013916
288389.000000 2.108778 159.000000 356.000000 294.000000 -0.088258 319.000000 0.278811 337.000000 -0.070470 340.000000 -0.112665 18.000000 -0.402600 169.000000 0.064203 205.000000 -0.128655
289830.000000 2.293465 354.000000 166.000000 34.000000 -0.338120 100.000000 0.294170 130.000000 -0.118383 156.000000 0.995314 14.000000 -0.290832 94.000000 0.272571 130.000000 -0.118383
289996.000000 2.452806 166.000000 323.000000 257.000000 -0.117473 285.000000 0.217795 306.000000 -0.133430 306.000000 -0.133430 3.000000 2.160627 153.000000 0.105567 181.000000 -0.007288
290487.000000 2.573732 168.000000 330.000000 274.000000 -0.065597 297.000000 0.251144 304.000000 -0.048793 316.000000 -0.130516 16.000000 -0.261862 166.000000 0.158917 179.000000 0.065062
290817.000000 2.280407 330.000000 176.000000 51.000000 -0.338151 106.000000 0.143497 142.000000 -0.033321 164.000000 1.034610 12.000000 -0.343857 99.000000 0.222305 142.000000 -0.033321
290993.000000 2.440534 176.000000 338.000000 212.000000 0.073873 242.000000 0.543625 261.000000 -0.071439 318.000000 -0.307896 13.000000 -0.390237 159.000000 0.315407 171.000000 0.124247
291509.000000 2.368119 178.000000 335.000000 273.000000 -0.076877 295.000000 0.191994 317.000000 -0.153432 321.000000 -0.166129 19.000000 -0.165986 164.000000 0.166563 182.000000 0.082677
293365.000000 2.075547 362.000000 173.000000 45.000000 -0.271080 104.000000 0.180663 137.000000 -0.137051 154.000000 -0.005595 13.000000 -0.275549 95.000000 0.253624 137.000000 -0.137051
294443.000000 2.022899 347.000000 506.000000 452.000000 -0.185626 473.000000 0.226771 488.000000 -0.081364 491.000000 -0.103213 11.000000 -0.304610 259.000000 1.014801 304.000000 0.080554
295466.000000 2.040299 517.000000 200.000000 145.000000 -0.005971 179.000000 0.697948 159.000000 0.108652 166.000000 0.174891 15.000000 -0.222444 112.000000 0.153966 145.000000 -0.005971
296184.000000 2.223210 178.000000 350.000000 289.000000 -0.131915 318.000000 0.218242 333.000000 -0.138937 333.000000 -0.138937 16.000000 -0.309925 168.000000 0.190095 176.000000 0.159594
296534.000000 1.888180 350.000000 167.000000 39.000000 -0.330283 101.000000 0.258932 129.000000 -0.061350 142.000000 -0.010693 13.000000 -0.354437 90.000000 0.320611 129.000000 -0.061350
296701.000000 2.161457 167.000000 354.000000 296.000000 -0.117646 317.000000 0.236787 335.000000 -0.094123 338.000000 -0.099468 18.000000 -0.276459 151.000000 0.161870 159.000000 0.034471
297223.000000 1.481238 168.000000 389.000000 330.000000 -0.064810 354.000000 0.217086 369.000000 -0.114136 373.000000 -0.096033 19.000000 -0.577195 89.000000 0.443672 141.000000 0.000277
297789.000000 2.218891 177.000000 418.000000 352.000000 -0.031580 382.000000 0.295960 399.000000 -0.031438 401.000000 -0.001956 10.000000 -0.185890 166.000000 0.207073 209.000000 0.032375
298385.000000 2.308025 178.000000 408.000000 349.000000 -0.084277 369.000000 0.243985 391.000000 -0.090592 394.000000 -0.111471 17.000000 -0.405973 172.000000 0.172486 182.000000 0.049617
298793.000000 1.965909 408.000000 167.000000 45.000000 -0.178057 101.000000 0.247334 119.000000 -0.015142 146.000000 0.070704 13.000000 -0.285579 88.000000 0.323542 119.000000 -0.015142
299539.000000 2.190722 173.000000 457.000000 389.000000 -0.067633 421.000000 0.245189 444.000000 -0.108776 444.000000 -0.108776 18.000000 -0.251254 163.000000 0.248430 221.000000 -0.024552
299996.000000 2.129546 457.000000 183.000000 85.000000 0.137729 162.000000 0.218387 153.000000 -0.021768 160.000000 0.125347 3.000000 1.696694 102.000000 0.304766 147.000000 -0.055233
300786.000000 2.235782 176.000000 426.000000 361.000000 -0.082603 388.000000 0.211943 407.000000 -0.142396 413.000000 -0.130985 17.000000 -0.306726 169.000000 0.180191 209.000000 -0.018831
301387.000000 2.350394 175.000000 440.000000 380.000000 -0.050489 403.000000 0.248226 421.000000 -0.069125 425.000000 -0.081946 18.000000 -0.252082 168.000000 0.173134 209.000000 -0.007601
302009.000000 2.252932 182.000000 433.000000 359.000000 -0.070972 399.000000 0.260469 401.000000 0.218306 410.000000 -0.024295 17.000000 -0.370263 171.000000 0.182635 251.000000 -0.100263
302442.000000 2.044845 433.000000 190.000000 137.000000 -0.099122 169.000000 0.293622 168.000000 0.255001 175.000000 0.757964 18.000000 -0.225423 103.000000 0.240956 141.000000 -0.073056
304343.000000 2.329794 184.000000 440.000000 363.000000 -0.057804 400.000000 0.245598 407.000000 0.159469 416.000000 -0.070783 17.000000 -0.247022 170.000000 0.303167 250.000000 -0.052288
304967.000000 2.450519 184.000000 412.000000 339.000000 -0.094778 375.000000 0.314861 384.000000 0.080693 391.000000 -0.046000 22.000000 -0.416455 159.000000 0.314211 216.000000 0.062193
307931.000000 2.170362 180.000000 413.000000 339.000000 -0.071397 375.000000 0.260328 382.000000 0.033448 393.000000 -0.035250 15.000000 -0.195609 165.000000 0.184669 233.000000 -0.059657
309569.000000 1.409687 413.000000 173.000000 26.000000 -0.316111 105.000000 0.266163 136.000000 0.016634 158.000000 0.562135 16.000000 -0.307742 94.000000 0.385020 136.000000 0.016634
309742.000000 1.818842 173.000000 393.000000 340.000000 -0.035909 358.000000 0.194890 374.000000 -0.018025 377.000000 -0.008605 18.000000 -0.209324 165.000000 0.214053 251.000000 -0.047948
311497.000000 1.268506 184.000000 375.000000 310.000000 -0.138354 336.000000 0.206676 357.000000 0.052348 358.000000 0.042254 19.000000 -0.150444 168.000000 0.149981 239.000000 -0.061223
311872.000000 1.090689 375.000000 339.000000 193.000000 -0.939608 274.000000 0.867085 309.000000 0.340831 329.000000 0.874937 15.000000 -0.143920 101.000000 0.364390 128.000000 -0.138337
312638.000000 1.130738 427.000000 578.000000 491.000000 -0.067255 541.000000 0.166584 560.000000 -0.007914 565.000000 0.034970 14.000000 -0.130233 178.000000 0.934236 222.000000 -0.294526
313216.000000 0.967791 578.000000 182.000000 49.000000 -0.242054 111.000000 0.232708 135.000000 -0.000692 159.000000 0.116678 13.000000 -0.104263 100.000000 0.325075 135.000000 -0.000692
313398.000000 1.084045 182.000000 596.000000 243.000000 -0.547051 363.000000 0.166070 380.000000 0.081854 580.000000 0.029170 17.000000 -0.154385 183.000000 1.363588 243.000000 -0.547051
313994.000000 1.026804 596.000000 552.000000 484.000000 -0.066174 517.000000 0.196430 532.000000 -0.022927 537.000000 -0.008413 5.000000 0.461757 246.000000 0.518075 283.000000 0.140093
314546.000000 1.003671 552.000000 176.000000 124.000000 0.011833 155.000000 0.220359 149.000000 0.127993 156.000000 0.272977 15.000000 -0.143508 96.000000 0.235376 132.000000 0.028668
314722.000000 1.295738 176.000000 394.000000 324.000000 -0.094736 352.000000 0.129511 376.000000 0.003464 376.000000 0.003464 28.000000 -0.270013 166.000000 0.159800 175.000000 0.116821
315692.000000 0.958340 576.000000 529.000000 224.000000 -0.163636 318.000000 0.146078 385.000000 -0.227837 515.000000 0.029215 12.000000 -0.089685 276.000000 0.637286 308.000000 0.099855
316221.000000 0.959249 529.000000 170.000000 46.000000 -0.142008 102.000000 0.313540 136.000000 0.014655 142.000000 0.056693 14.000000 -0.177146 90.000000 0.391017 136.000000 0.014655
317315.000000 0.983197 384.000000 177.000000 33.000000 -0.213903 107.000000 0.253010 145.000000 -0.100578 161.000000 0.150816 12.000000 -0.154718 105.000000 0.293308 145.000000 -0.100578
318049.000000 0.928148 175.000000 387.000000 325.000000 -0.088007 355.000000 0.165974 365.000000 -0.025155 368.000000 -0.012067 18.000000 -0.293357 98.000000 0.191631 122.000000 0.020679
318436.000000 1.189720 387.000000 173.000000 27.000000 -0.282943 107.000000 0.223843 127.000000 0.001615 141.000000 0.034436 15.000000 -0.225310 95.000000 0.290410 127.000000 0.001615
318609.000000 1.556114 173.000000 389.000000 319.000000 -0.063651 348.000000 0.182054 374.000000 -0.039122 378.000000 0.019044 27.000000 -0.320657 167.000000 0.168314 202.000000 0.012684
319176.000000 1.395658 178.000000 407.000000 332.000000 -0.041491 368.000000 0.202005 390.000000 -0.004311 390.000000 -0.004311 26.000000 -0.303593 171.000000 0.163388 233.000000 -0.071869
319583.000000 1.164904 407.000000 582.000000 520.000000 -0.132730 549.000000 0.151597 566.000000 -0.072586 566.000000 -0.072586 14.000000 -0.131522 281.000000 1.003259 403.000000 -0.256412
320165.000000 1.333560 582.000000 178.000000 124.000000 0.041032 157.000000 0.354498 157.000000 0.354498 164.000000 0.833385 13.000000 -0.232523 95.000000 0.264793 127.000000 0.013994
320343.000000 1.929204 178.000000 347.000000 283.000000 -0.053763 312.000000 0.211096 329.000000 -0.025908 333.000000 -0.033463 16.000000 -0.085561 174.000000 0.174672 205.000000 0.059203
322885.000000 1.394437 554.000000 178.000000 132.000000 0.018012 157.000000 0.234611 157.000000 0.234611 164.000000 0.685472 12.000000 -0.201692 98.000000 0.274188 132.000000 0.018012
324616.000000 2.070268 266.000000 262.000000 204.000000 -0.141206 222.000000 0.265518 241.000000 -0.165016 245.000000 -0.113842 13.000000 -0.298886 95.000000 0.444986 139.000000 -0.125579
325910.000000 2.122432 287.000000 281.000000 220.000000 -0.160108 245.000000 0.213591 260.000000 -0.114107 265.000000 -0.093073 16.000000 -0.296850 99.000000 0.245547 137.000000 -0.182210
326191.000000 1.996330 281.000000 272.000000 145.000000 -0.223230 228.000000 0.289923 248.000000 -0.190125 256.000000 -0.091002 13.000000 -0.328935 93.000000 0.338057 145.000000 -0.223230
326463.000000 1.983888 272.000000 181.000000 63.000000 -0.168320 109.000000 0.093544 150.000000 -0.235108 168.000000 0.050957 13.000000 -0.233385 96.000000 0.321351 150.000000 -0.235108
326644.000000 0.923354 181.000000 382.000000 327.000000 -0.096882 346.000000 0.321457 364.000000 -0.064391 368.000000 -0.095393 22.000000 -1.087368 95.000000 1.098101 158.000000 0.015404
327026.000000 2.021833 382.000000 175.000000 57.000000 -0.229811 112.000000 0.210990 121.000000 -0.132380 152.000000 0.027088 11.000000 -0.274891 91.000000 0.401649 121.000000 -0.132380
327201.000000 2.169096 175.000000 378.000000 318.000000 -0.063683 342.000000 0.302698 359.000000 -0.044858 363.000000 -0.056128 18.000000 -0.337489 175.000000 0.137635 197.000000 0.000595
328438.000000 1.978763 280.000000 182.000000 31.000000 -0.303965 110.000000 0.058244 139.000000 -0.234059 170.000000 0.155754 13.000000 -0.292210 90.000000 0.375093 139.000000 -0.234059
330946.000000 2.191741 295.000000 295.000000 234.000000 -0.126349 258.000000 0.256737 276.000000 -0.106145 278.000000 -0.135361 17.000000 -0.270780 91.000000 0.359331 141.000000 -0.148131
333164.000000 2.193449 326.000000 352.000000 240.000000 -0.108634 313.000000 0.283325 318.000000 0.121552 330.000000 -0.137806 13.000000 -0.207571 97.000000 0.445439 140.000000 -0.082398
334854.000000 2.172714 338.000000 323.000000 258.000000 -0.151020 283.000000 0.342381 303.000000 -0.153027 306.000000 -0.168043 13.000000 -0.217929 100.000000 0.431750 145.000000 -0.174237
335177.000000 2.188008 323.000000 320.000000 262.000000 -0.155769 282.000000 0.287757 300.000000 -0.122446 303.000000 -0.136333 15.000000 -0.252463 100.000000 0.466753 145.000000 -0.113386
336107.000000 2.229670 310.000000 316.000000 240.000000 -0.158319 275.000000 0.210913 295.000000 -0.142458 298.000000 -0.142459 15.000000 -0.264437 95.000000 0.483872 139.000000 -0.139682
337067.000000 1.457540 316.000000 295.000000 236.000000 -0.213228 257.000000 0.172900 275.000000 -0.164185 278.000000 -0.175705 9.000000 -0.921284 94.000000 0.570391 142.000000 -0.174985
337655.000000 2.154263 293.000000 292.000000 233.000000 -0.210139 251.000000 0.187400 271.000000 -0.214781 272.000000 -0.214233 12.000000 -0.314249 90.000000 0.526065 140.000000 -0.182838
337947.000000 2.240907 292.000000 289.000000 221.000000 -0.181834 247.000000 0.185565 264.000000 -0.155769 274.000000 -0.201459 14.000000 -0.291602 92.000000 0.504589 138.000000 -0.169924
338874.000000 2.285249 322.000000 312.000000 216.000000 -0.084792 269.000000 0.265272 294.000000 -0.160749 297.000000 -0.161534 14.000000 -0.302337 99.000000 0.451724 136.000000 -0.097272
339186.000000 2.308636 312.000000 319.000000 243.000000 -0.126177 280.000000 0.286065 299.000000 -0.133982 305.000000 -0.139373 14.000000 -0.294954 101.000000 0.385795 142.000000 -0.126448
339505.000000 2.279406 319.000000 314.000000 255.000000 -0.146426 280.000000 0.240832 299.000000 -0.154276 301.000000 -0.164621 13.000000 -0.266645 99.000000 0.338200 138.000000 -0.126235
339819.000000 2.221538 314.000000 303.000000 237.000000 -0.144382 265.000000 0.281509 274.000000 0.071979 282.000000 -0.106547 14.000000 -0.278916 97.000000 0.379064 146.000000 -0.134432
340122.000000 2.273653 303.000000 315.000000 248.000000 -0.136611 277.000000 0.283278 289.000000 -0.072741 295.000000 -0.133462 16.000000 -0.204967 94.000000 0.356709 130.000000 -0.104308
340437.000000 2.364779 315.000000 344.000000 268.000000 -0.148917 303.000000 0.222447 325.000000 -0.124121 330.000000 -0.158322 14.000000 -0.175705 92.000000 0.366722 135.000000 -0.069770
341115.000000 2.191099 334.000000 342.000000 281.000000 -0.095501 300.000000 0.267791 323.000000 -0.154123 327.000000 -0.143967 14.000000 -0.211926 97.000000 0.321930 139.000000 -0.137960
341799.000000 2.154325 342.000000 311.000000 247.000000 -0.133023 273.000000 0.241775 294.000000 -0.109920 295.000000 -0.100030 13.000000 -0.279782 97.000000 0.378054 135.000000 -0.126289
342110.000000 2.121552 311.000000 321.000000 246.000000 -0.106001 281.000000 0.262523 292.000000 0.000877 300.000000 -0.130190 13.000000 -0.240438 92.000000 0.362993 133.000000 -0.120614
342773.000000 2.058463 342.000000 337.000000 277.000000 -0.105176 295.000000 0.239462 315.000000 -0.146384 318.000000 -0.134675 15.000000 -0.279215 95.000000 0.479501 150.000000 -0.078339
343110.000000 2.155109 337.000000 339.000000 230.000000 -0.126617 298.000000 0.250311 319.000000 -0.139782 321.000000 -0.134515 15.000000 -0.219045 100.000000 0.432873 148.000000 -0.135123
343449.000000 2.254280 339.000000 324.000000 262.000000 -0.115955 283.000000 0.273874 303.000000 -0.103618 306.000000 -0.113055 15.000000 -0.248761 98.000000 0.384375 147.000000 -0.128620
344088.000000 1.981599 315.000000 319.000000 258.000000 -0.145424 280.000000 0.198118 300.000000 -0.192193 305.000000 -0.199574 13.000000 -0.263024 97.000000 0.498009 138.000000 -0.112259
344704.000000 1.715484 297.000000 319.000000 253.000000 -0.130175 277.000000 0.201439 302.000000 -0.187882 303.000000 -0.183274 13.000000 -0.361288 96.000000 0.453382 141.000000 -0.150002
347169.000000 1.730485 269.000000 289.000000 220.000000 -0.134220 242.000000 0.121109 267.000000 -0.194607 272.000000 -0.183808 14.000000 -0.403794 103.000000 0.498904 153.000000 -0.208683
347753.000000 1.668978 295.000000 203.000000 51.000000 -0.287087 122.000000 0.110568 144.000000 -0.064810 180.000000 -0.030029 13.000000 -0.356445 100.000000 0.511772 144.000000 -0.064810
348514.000000 1.407663 397.000000 180.000000 35.000000 -0.190284 108.000000 0.404421 131.000000 0.037603 157.000000 0.067728 14.000000 -0.226835 96.000000 0.462634 131.000000 0.037603
349589.000000 1.965501 541.000000 183.000000 37.000000 -0.293622 110.000000 0.228808 137.000000 -0.045737 170.000000 0.100752 15.000000 -0.243057 102.000000 0.316849 137.000000 -0.045737
349772.000000 0.820534 183.000000 352.000000 281.000000 -0.107069 316.000000 0.253039 323.000000 0.063587 327.000000 -0.035566 18.000000 -1.064119 99.000000 0.798388 153.000000 0.047794
350124.000000 1.830749 352.000000 185.000000 44.000000 -0.166601 112.000000 0.190831 140.000000 -0.094216 156.000000 -0.031144 15.000000 -0.180346 94.000000 0.289044 140.000000 -0.094216
350904.000000 1.845233 246.000000 179.000000 37.000000 -0.221883 108.000000 0.117901 131.000000 -0.162898 158.000000 -0.125201 14.000000 -0.245032 94.000000 0.304000 131.000000 -0.162898
351083.000000 0.786383 179.000000 161.000000 26.000000 -0.716972 101.000000 0.791428 96.000000 0.778136 103.000000 0.748857 21.000000 -1.033257 95.000000 0.771036 135.000000 0.218278
352243.000000 1.457997 404.000000 272.000000 213.000000 -0.096173 232.000000 0.163779 254.000000 -0.164196 255.000000 -0.157692 12.000000 -0.155372 100.000000 0.173341 131.000000 -0.018996
353546.000000 1.128040 765.000000 610.000000 520.000000 -0.091836 577.000000 0.166911 579.000000 0.140124 587.000000 0.013306 20.000000 -0.172602 292.000000 0.636992 401.000000 -0.157058
354156.000000 1.017464 610.000000 592.000000 527.000000 -0.062429 557.000000 0.139701 574.000000 0.002086 577.000000 -0.010312 15.000000 -0.078885 287.000000 0.545286 411.000000 -0.199295
354748.000000 0.902732 592.000000 265.000000 133.000000 0.036286 168.000000 0.133182 208.000000 -0.082948 251.000000 -0.119688 15.000000 -0.125810 97.000000 0.235647 133.000000 0.036286
355013.000000 0.948023 265.000000 261.000000 199.000000 -0.075890 221.000000 0.100426 242.000000 -0.077299 247.000000 -0.034571 13.000000 -0.188794 90.000000 0.209793 129.000000 -0.139814
355810.000000 0.890109 272.000000 304.000000 241.000000 -0.093980 263.000000 0.107039 285.000000 -0.080312 291.000000 -0.058040 12.000000 -0.067791 97.000000 0.242429 154.000000 -0.132284
356114.000000 0.985297 304.000000 310.000000 239.000000 -0.135891 273.000000 0.105111 290.000000 -0.009671 296.000000 -0.011442 13.000000 -0.098291 100.000000 0.221431 154.000000 -0.107646
356424.000000 0.933448 310.000000 590.000000 523.000000 -0.115928 551.000000 0.146818 572.000000 -0.057084 576.000000 -0.003556 13.000000 -0.038857 293.000000 0.748496 337.000000 0.102616
357301.000000 0.891004 287.000000 272.000000 203.000000 -0.114906 238.000000 0.067099 254.000000 -0.035690 258.000000 -0.027603 11.000000 -0.121285 88.000000 0.288294 131.000000 -0.166628
