1569.000000 1.112883 351.000000 355.000000 269.000000 -0.124636 312.000000 -0.020971 331.000000 -0.107556 347.000000 0.539653 23.000000 0.026725 85.000000 0.102263 140.000000 -0.122361
1924.000000 1.018133 355.000000 357.000000 274.000000 -0.103728 319.000000 -0.025076 336.000000 -0.081785 336.000000 -0.081785 22.000000 -0.049514 91.000000 0.097179 135.000000 -0.130773
2642.000000 1.042900 361.000000 370.000000 275.000000 -0.074165 308.000000 0.023529 348.000000 -0.079467 358.000000 0.032243 21.000000 -0.022570 95.000000 0.119307 153.000000 -0.090508
3012.000000 0.975141 370.000000 369.000000 281.000000 -0.102884 309.000000 -0.020720 332.000000 -0.071203 349.000000 -0.059416 18.000000 -0.048011 95.000000 0.120849 148.000000 -0.119767
4463.000000 0.801680 350.000000 359.000000 283.000000 -0.095596 312.000000 0.005029 324.000000 -0.054486 349.000000 0.345033 19.000000 -0.110829 97.000000 0.057195 128.000000 -0.105629
5544.000000 0.956738 355.000000 358.000000 271.000000 -0.053623 300.000000 0.024028 310.000000 0.004391 338.000000 -0.042130 19.000000 0.018493 98.000000 0.128436 149.000000 -0.077661
6985.000000 0.850968 359.000000 359.000000 260.000000 -0.113717 298.000000 -0.004861 323.000000 -0.029421 330.000000 -0.085815 15.000000 0.031126 97.000000 0.111718 151.000000 -0.154656
9451.000000 0.888058 349.000000 346.000000 274.000000 -0.085348 295.000000 -0.037089 303.000000 -0.052747 327.000000 -0.080427 20.000000 -0.014513 91.000000 0.144549 158.000000 -0.144498
11577.000000 0.817255 353.000000 357.000000 265.000000 -0.081612 318.000000 0.007491 320.000000 -0.018044 331.000000 -0.050207 20.000000 -0.018341 92.000000 0.131552 154.000000 -0.086924
13022.000000 0.988280 366.000000 374.000000 297.000000 -0.053872 315.000000 0.021897 325.000000 -0.007834 353.000000 -0.044084 18.000000 -0.031925 99.000000 0.094825 134.000000 -0.082175
13396.000000 1.002134 374.000000 370.000000 289.000000 -0.058136 325.000000 0.026301 348.000000 -0.028209 350.000000 -0.033914 23.000000 -0.005528 98.000000 0.116964 173.000000 -0.121051
15637.000000 0.926697 368.000000 371.000000 309.000000 -0.071754 331.000000 -0.011159 354.000000 -0.048385 362.000000 0.371177 13.000000 0.114533 93.000000 0.168018 132.000000 -0.093143
21049.000000 0.952478 366.000000 372.000000 302.000000 -0.086128 331.000000 -0.008571 343.000000 -0.065985 351.000000 -0.076893 20.000000 -0.023511 92.000000 0.130625 162.000000 -0.072920
21779.000000 0.978589 358.000000 373.000000 282.000000 -0.079764 311.000000 0.001318 318.000000 -0.031739 351.000000 -0.114890 19.000000 -0.006018 96.000000 0.131797 144.000000 -0.073447
23603.000000 0.946442 362.000000 358.000000 234.000000 -0.134466 299.000000 0.005377 328.000000 -0.076867 336.000000 -0.054829 22.000000 -0.013183 94.000000 0.140122 210.000000 -0.176207
25716.000000 1.010579 353.000000 352.000000 281.000000 -0.097259 299.000000 0.004530 318.000000 -0.066911 329.000000 -0.121724 24.000000 -0.010736 83.000000 0.175893 144.000000 -0.098561
26068.000000 1.011425 352.000000 366.000000 291.000000 -0.079685 319.000000 0.010880 338.000000 -0.083683 345.000000 -0.053275 22.000000 -0.022072 105.000000 0.120837 146.000000 -0.081971
26434.000000 0.989797 366.000000 358.000000 275.000000 -0.049310 315.000000 0.022524 322.000000 -0.059419 334.000000 -0.061706 21.000000 -0.029703 100.000000 0.109620 157.000000 -0.102152
27145.000000 0.967368 353.000000 367.000000 294.000000 -0.077698 314.000000 0.000515 320.000000 -0.027038 348.000000 -0.048463 20.000000 -0.010785 87.000000 0.142391 147.000000 -0.089499
27874.000000 0.949577 362.000000 366.000000 271.000000 -0.089908 304.000000 -0.003731 310.000000 -0.042179 341.000000 -0.096189 21.000000 -0.025439 88.000000 0.140420 131.000000 -0.098109
29341.000000 0.951884 370.000000 375.000000 293.000000 -0.074010 312.000000 0.001051 322.000000 -0.014482 357.000000 -0.059546 13.000000 0.075364 98.000000 0.109975 148.000000 -0.091862
30088.000000 1.007633 372.000000 369.000000 290.000000 -0.076096 309.000000 -0.008810 317.000000 -0.039296 349.000000 -0.083966 21.000000 -0.009467 94.000000 0.126485 155.000000 -0.093982
30457.000000 0.896224 369.000000 374.000000 273.000000 -0.084716 314.000000 0.007809 343.000000 -0.105562 351.000000 -0.064404 22.000000 -0.049341 98.000000 0.129871 142.000000 -0.078255
34149.000000 0.836004 367.000000 371.000000 298.000000 -0.075281 319.000000 0.005828 325.000000 -0.017244 349.000000 -0.070379 21.000000 -0.028086 91.000000 0.129464 153.000000 -0.063475
35251.000000 0.977505 363.000000 373.000000 286.000000 -0.046115 313.000000 0.006567 320.000000 -0.008811 350.000000 -0.066790 21.000000 -0.008088 94.000000 0.173337 136.000000 -0.076171
37840.000000 0.952384 376.000000 369.000000 294.000000 -0.088933 326.000000 -0.005606 346.000000 -0.082016 352.000000 -0.023585 19.000000 -0.036441 88.000000 0.114294 156.000000 -0.074186
38209.000000 0.979390 369.000000 375.000000 296.000000 -0.088289 329.000000 -0.003827 348.000000 -0.094894 356.000000 -0.033405 21.000000 -0.034731 90.000000 0.111724 159.000000 -0.117652
38584.000000 0.952147 375.000000 372.000000 296.000000 -0.079924 314.000000 0.013118 340.000000 -0.041772 350.000000 -0.033321 22.000000 -0.008715 99.000000 0.118572 153.000000 -0.112674
39675.000000 0.894484 362.000000 355.000000 255.000000 -0.094560 293.000000 0.008998 324.000000 -0.095125 330.000000 -0.076348 19.000000 -0.004592 92.000000 0.101439 132.000000 -0.075884
42865.000000 0.912882 354.000000 347.000000 279.000000 -0.081899 307.000000 0.007619 322.000000 -0.061456 327.000000 -0.082569 18.000000 -0.014450 91.000000 0.102901 133.000000 -0.103404
48833.000000 0.979515 339.000000 342.000000 251.000000 -0.103746 281.000000 -0.001505 294.000000 -0.013482 322.000000 -0.060254 13.000000 0.094107 92.000000 0.112756 153.000000 -0.112460
49175.000000 0.970377 342.000000 344.000000 270.000000 -0.075280 302.000000 0.032506 317.000000 -0.069909 323.000000 -0.041084 19.000000 -0.019702 85.000000 0.121913 130.000000 -0.083351
53278.000000 0.975075 337.000000 344.000000 270.000000 -0.075798 295.000000 0.044718 317.000000 -0.066567 325.000000 -0.056912 19.000000 -0.024955 88.000000 0.135103 129.000000 -0.076893
53622.000000 0.906240 344.000000 361.000000 279.000000 -0.070834 307.000000 0.033164 315.000000 0.010859 353.000000 0.676631 21.000000 -0.020078 90.000000 0.120458 128.000000 -0.068592
56142.000000 0.945408 362.000000 351.000000 271.000000 -0.041220 298.000000 0.041492 306.000000 0.024220 330.000000 -0.015262 20.000000 -0.030235 91.000000 0.133086 142.000000 -0.081237
56842.000000 0.947839 349.000000 352.000000 274.000000 -0.077037 292.000000 0.035035 321.000000 -0.043243 329.000000 -0.029638 20.000000 -0.014402 87.000000 0.129864 152.000000 -0.154344
57194.000000 1.027181 352.000000 348.000000 238.000000 -0.112378 302.000000 0.028071 323.000000 -0.038654 328.000000 -0.028966 22.000000 -0.002178 88.000000 0.098532 135.000000 -0.109296
57542.000000 1.051958 348.000000 345.000000 272.000000 -0.115329 290.000000 -0.020862 317.000000 -0.095269 336.000000 0.499342 22.000000 0.006003 85.000000 0.093230 155.000000 -0.138353
58230.000000 0.955611 343.000000 349.000000 279.000000 -0.077364 309.000000 0.013777 319.000000 -0.085971 324.000000 -0.070643 24.000000 -0.013730 82.000000 0.100332 149.000000 -0.108853
59625.000000 0.896741 343.000000 349.000000 274.000000 -0.113527 308.000000 -0.016536 322.000000 -0.087883 331.000000 -0.044154 19.000000 -0.034496 92.000000 0.129426 121.000000 -0.040657
59974.000000 0.904076 349.000000 351.000000 269.000000 -0.033714 308.000000 0.020421 315.000000 -0.040818 326.000000 -0.077167 16.000000 -0.006345 89.000000 0.100741 138.000000 -0.063982
62383.000000 0.951159 343.000000 340.000000 261.000000 -0.064885 285.000000 -0.018332 313.000000 -0.094229 320.000000 -0.056832 19.000000 -0.007053 83.000000 0.133623 154.000000 -0.097619
64387.000000 0.885364 328.000000 329.000000 249.000000 -0.097225 275.000000 -0.018446 288.000000 -0.035893 303.000000 -0.091612 19.000000 -0.042270 84.000000 0.117188 154.000000 -0.075175
64716.000000 0.926167 329.000000 334.000000 239.000000 -0.090533 271.000000 0.010691 289.000000 -0.021049 312.000000 -0.059386 22.000000 -0.050839 92.000000 0.104578 133.000000 -0.094563
65390.000000 0.967184 340.000000 341.000000 260.000000 -0.040817 280.000000 0.032869 306.000000 -0.031805 316.000000 -0.059107 24.000000 -0.040386 88.000000 0.095552 134.000000 -0.113513
68142.000000 0.958560 345.000000 337.000000 188.000000 -0.193274 277.000000 0.031283 285.000000 0.003570 313.000000 -0.030754 22.000000 -0.028792 85.000000 0.135329 150.000000 -0.142303
68815.000000 0.979861 336.000000 353.000000 259.000000 -0.121741 288.000000 -0.017165 317.000000 -0.068120 327.000000 -0.064890 22.000000 -0.023683 85.000000 0.119231 127.000000 -0.087091
71279.000000 0.844013 367.000000 345.000000 267.000000 -0.082505 287.000000 -0.003856 293.000000 -0.030533 323.000000 -0.056161 20.000000 -0.018808 97.000000 0.128564 198.000000 -0.126132
71979.000000 0.813825 355.000000 372.000000 301.000000 -0.086472 331.000000 -0.003023 339.000000 -0.080059 345.000000 -0.066924 21.000000 -0.021615 91.000000 0.139623 131.000000 -0.067639
73452.000000 0.812382 374.000000 373.000000 280.000000 -0.109185 311.000000 -0.008337 338.000000 -0.078635 347.000000 -0.062223 24.000000 -0.024360 94.000000 0.131336 156.000000 -0.080547
76024.000000 0.783965 355.000000 367.000000 289.000000 -0.064199 307.000000 0.020235 316.000000 -0.014861 343.000000 -0.052024 13.000000 -0.001771 90.000000 0.102090 132.000000 -0.071749
77472.000000 0.863808 361.000000 351.000000 268.000000 -0.105488 300.000000 0.033354 323.000000 -0.034562 342.000000 0.516803 19.000000 -0.035425 91.000000 0.137272 124.000000 -0.095532
82000.000000 0.902558 345.000000 342.000000 260.000000 -0.090779 288.000000 0.020884 295.000000 -0.063976 324.000000 -0.030295 7.000000 0.474940 87.000000 0.128118 127.000000 -0.094171
82342.000000 0.905066 342.000000 348.000000 273.000000 -0.067523 309.000000 0.037145 314.000000 -0.051412 323.000000 -0.072761 24.000000 0.000188 86.000000 0.114875 134.000000 -0.130313
83390.000000 0.926083 350.000000 350.000000 264.000000 -0.060326 289.000000 -0.010342 294.000000 -0.091236 333.000000 -0.079751 23.000000 0.006712 99.000000 0.147865 143.000000 -0.102229
83740.000000 0.893386 350.000000 343.000000 260.000000 -0.126489 286.000000 -0.036380 297.000000 -0.082460 325.000000 -0.071769 19.000000 -0.065267 86.000000 0.140183 207.000000 -0.113166
84785.000000 0.942901 345.000000 354.000000 282.000000 -0.081939 312.000000 0.003857 322.000000 -0.049843 331.000000 -0.079137 14.000000 0.055628 93.000000 0.102057 132.000000 -0.050171
86170.000000 0.916363 336.000000 342.000000 268.000000 -0.094312 298.000000 -0.002180 305.000000 -0.035205 325.000000 -0.052948 19.000000 -0.034276 100.000000 0.134202 129.000000 -0.015659
87875.000000 0.933624 336.000000 342.000000 239.000000 -0.160515 294.000000 0.019107 304.000000 -0.008980 327.000000 0.033419 13.000000 0.078262 90.000000 0.116722 125.000000 -0.072335
88217.000000 1.084314 342.000000 347.000000 268.000000 -0.059027 304.000000 0.041474 314.000000 -0.045798 332.000000 -0.037100 20.000000 0.035535 72.000000 0.095944 79.000000 -0.009714
88564.000000 0.997867 347.000000 348.000000 274.000000 -0.091347 303.000000 0.006020 321.000000 -0.084324 328.000000 -0.059089 21.000000 -0.027667 88.000000 0.087708 142.000000 -0.093246
89267.000000 0.899626 355.000000 359.000000 279.000000 -0.106302 309.000000 0.010237 328.000000 -0.053430 334.000000 -0.074308 26.000000 -0.042662 90.000000 0.119090 96.000000 0.060296
90341.000000 0.860783 361.000000 368.000000 249.000000 -0.209514 307.000000 0.056223 317.000000 0.010548 359.000000 0.439750 19.000000 -0.036410 97.000000 0.141088 155.000000 -0.109450
91415.000000 0.815522 347.000000 357.000000 263.000000 -0.085627 296.000000 0.001678 323.000000 -0.052773 332.000000 -0.075061 17.000000 -0.039385 93.000000 0.124698 153.000000 -0.103578
93869.000000 0.900568 358.000000 351.000000 274.000000 -0.101690 303.000000 0.008042 313.000000 -0.013886 342.000000 0.452615 13.000000 0.083828 96.000000 0.161944 126.000000 -0.073483
94569.000000 0.964326 349.000000 352.000000 282.000000 -0.109482 312.000000 0.019139 330.000000 -0.070628 336.000000 -0.047948 16.000000 0.025924 89.000000 0.138730 102.000000 0.068371
94921.000000 0.917303 352.000000 359.000000 277.000000 -0.122337 307.000000 0.012163 331.000000 -0.059233 340.000000 -0.047916 17.000000 -0.031756 82.000000 0.125894 93.000000 0.084389
95280.000000 0.959199 359.000000 367.000000 292.000000 -0.091832 311.000000 0.015988 318.000000 -0.050532 358.000000 0.494576 12.000000 0.124813 96.000000 0.121666 146.000000 -0.086567
96362.000000 0.958169 354.000000 369.000000 290.000000 -0.120753 325.000000 -0.003478 334.000000 -0.050328 358.000000 0.334391 20.000000 -0.022272 89.000000 0.095626 128.000000 -0.072144
97464.000000 0.888497 364.000000 373.000000 316.000000 -0.127679 352.000000 -0.025533 343.000000 -0.085077 350.000000 -0.035109 19.000000 0.008400 93.000000 0.127429 141.000000 -0.070142
97837.000000 0.956644 373.000000 364.000000 289.000000 -0.114525 321.000000 0.007480 337.000000 -0.086702 355.000000 0.523342 23.000000 -0.077560 93.000000 0.218708 141.000000 0.013257
100394.000000 0.816193 363.000000 362.000000 286.000000 -0.078525 310.000000 -0.012603 331.000000 -0.084046 337.000000 -0.068309 19.000000 -0.045063 84.000000 0.129054 157.000000 -0.095032
100756.000000 0.790488 362.000000 366.000000 289.000000 -0.066443 321.000000 0.004122 339.000000 -0.087275 346.000000 -0.046788 22.000000 0.000081 92.000000 0.143876 155.000000 -0.089605
103729.000000 0.891377 370.000000 373.000000 287.000000 -0.070910 325.000000 0.015315 342.000000 -0.081707 350.000000 -0.044762 12.000000 0.193979 97.000000 0.156354 151.000000 -0.058196
104102.000000 0.868653 373.000000 372.000000 251.000000 -0.122948 327.000000 -0.009010 343.000000 -0.074732 350.000000 -0.034451 23.000000 -0.012316 95.000000 0.122358 181.000000 -0.071396
106292.000000 0.895031 356.000000 356.000000 264.000000 -0.082366 307.000000 -0.003306 314.000000 -0.032068 336.000000 -0.071113 22.000000 -0.004763 90.000000 0.120756 98.000000 0.081429
106648.000000 0.891869 356.000000 361.000000 287.000000 -0.067162 312.000000 0.002789 344.000000 -0.077150 352.000000 0.291502 21.000000 -0.007506 96.000000 0.116490 158.000000 -0.091625
107009.000000 0.890078 361.000000 359.000000 285.000000 -0.058337 313.000000 0.006320 331.000000 -0.086017 336.000000 -0.061675 18.000000 -0.050126 95.000000 0.117040 116.000000 -0.009101
108441.000000 0.760598 355.000000 354.000000 231.000000 -0.127414 296.000000 -0.003962 304.000000 -0.044919 345.000000 0.429704 20.000000 -0.000045 92.000000 0.154296 160.000000 -0.093261
109511.000000 0.815960 358.000000 354.000000 280.000000 -0.061663 306.000000 -0.014546 318.000000 -0.043699 335.000000 -0.064407 22.000000 -0.049430 92.000000 0.120631 129.000000 -0.055208
113154.000000 0.870473 366.000000 369.000000 288.000000 -0.056725 315.000000 -0.002275 320.000000 -0.044688 360.000000 0.358024 19.000000 -0.041191 98.000000 0.114931 131.000000 -0.074626
115359.000000 0.833812 363.000000 353.000000 279.000000 -0.093354 305.000000 -0.020753 311.000000 -0.063606 335.000000 -0.068478 11.000000 0.101180 101.000000 0.087523 140.000000 -0.091265
115712.000000 1.005002 353.000000 365.000000 281.000000 -0.054278 302.000000 0.065815 333.000000 -0.146173 338.000000 -0.166218 22.000000 -0.002942 96.000000 0.147780 155.000000 -0.069325
116426.000000 0.783904 349.000000 349.000000 276.000000 -0.096208 296.000000 -0.007163 316.000000 -0.069313 322.000000 -0.070568 21.000000 -0.053979 103.000000 0.126552 156.000000 -0.096454
117478.000000 0.889201 343.000000 347.000000 253.000000 -0.106099 299.000000 -0.007522 318.000000 -0.090498 325.000000 -0.056407 21.000000 -0.025770 95.000000 0.138393 148.000000 -0.086165
119233.000000 0.952588 359.000000 369.000000 285.000000 -0.063588 309.000000 -0.000781 316.000000 -0.029575 347.000000 -0.060974 13.000000 0.084687 94.000000 0.116920 140.000000 -0.091580
119602.000000 0.834450 369.000000 375.000000 283.000000 -0.114357 313.000000 -0.038432 320.000000 -0.046033 355.000000 -0.096692 23.000000 -0.032056 98.000000 0.121757 155.000000 -0.078030
119977.000000 0.940737 375.000000 367.000000 286.000000 -0.032507 324.000000 0.017121 334.000000 -0.045496 359.000000 0.561413 23.000000 0.010437 94.000000 0.132506 143.000000 -0.066959
121829.000000 0.905753 367.000000 368.000000 266.000000 -0.074463 308.000000 0.007322 334.000000 -0.051302 343.000000 -0.065771 19.000000 -0.010078 91.000000 0.100589 153.000000 -0.080102
122923.000000 0.947746 361.000000 365.000000 289.000000 -0.079180 317.000000 -0.001969 327.000000 -0.013820 346.000000 -0.045278 23.000000 -0.008256 92.000000 0.116415 157.000000 -0.116377
123645.000000 0.991803 357.000000 366.000000 261.000000 -0.118730 304.000000 -0.018872 311.000000 -0.056472 358.000000 0.642933 21.000000 -0.018542 100.000000 0.122594 146.000000 -0.088080
124744.000000 0.745030 361.000000 350.000000 255.000000 -0.374842 309.000000 -0.090032 325.000000 -0.099057 329.000000 -0.107506 13.000000 -0.031285 94.000000 0.384765 135.000000 0.244406
125451.000000 0.979591 357.000000 351.000000 276.000000 -0.093121 310.000000 -0.009482 326.000000 -0.095984 332.000000 -0.077818 18.000000 -0.013370 94.000000 0.143008 133.000000 -0.047150
125802.000000 0.880053 351.000000 359.000000 272.000000 -0.037788 297.000000 -0.008556 306.000000 -0.025765 336.000000 -0.056830 20.000000 -0.025463 92.000000 0.134693 134.000000 -0.049312
126161.000000 0.919443 359.000000 360.000000 272.000000 -0.065316 321.000000 -0.004201 327.000000 -0.092319 334.000000 -0.050530 21.000000 -0.004559 93.000000 0.114012 135.000000 -0.061696
126521.000000 0.850408 360.000000 359.000000 263.000000 -0.069483 298.000000 -0.013025 306.000000 -0.045910 335.000000 -0.049925 24.000000 -0.019985 95.000000 0.104361 152.000000 -0.069245
127623.000000 0.816848 369.000000 370.000000 275.000000 -0.058150 311.000000 -0.005015 320.000000 -0.037694 362.000000 0.548530 22.000000 -0.031832 98.000000 0.129552 141.000000 -0.061230
137120.000000 0.778214 357.000000 354.000000 272.000000 -0.105691 299.000000 -0.009717 324.000000 -0.060122 331.000000 -0.111423 19.000000 -0.081724 96.000000 0.115500 138.000000 -0.087996
137827.000000 0.894667 353.000000 349.000000 272.000000 -0.129342 300.000000 -0.039153 320.000000 -0.111626 326.000000 -0.070733 21.000000 -0.049268 88.000000 0.091314 126.000000 -0.097341
141003.000000 0.918642 347.000000 347.000000 268.000000 -0.108500 297.000000 0.012210 310.000000 -0.030736 320.000000 -0.079856 15.000000 -0.042269 91.000000 0.086268 148.000000 -0.100894
142356.000000 0.970188 327.000000 339.000000 260.000000 -0.080250 288.000000 0.051489 297.000000 0.019311 319.000000 -0.091160 20.000000 -0.027837 95.000000 0.085234 138.000000 -0.087662
142695.000000 0.914527 339.000000 328.000000 251.000000 -0.082883 284.000000 0.055112 302.000000 -0.084167 311.000000 -0.056015 18.000000 -0.037244 92.000000 0.097976 159.000000 -0.093042
143023.000000 0.915178 328.000000 318.000000 221.000000 -0.098523 269.000000 0.084013 278.000000 0.048026 287.000000 -0.072837 21.000000 -0.038618 88.000000 0.100290 180.000000 -0.134341
143972.000000 0.935610 309.000000 308.000000 212.000000 -0.129468 258.000000 0.054403 284.000000 -0.076630 289.000000 -0.057790 25.000000 -0.034140 88.000000 0.112960 158.000000 -0.164794
145529.000000 0.873168 317.000000 322.000000 243.000000 -0.136630 272.000000 0.043933 294.000000 -0.117586 310.000000 0.040594 22.000000 -0.057096 91.000000 0.088370 132.000000 -0.099387
146501.000000 0.941741 321.000000 325.000000 233.000000 -0.132821 275.000000 0.045456 290.000000 -0.032004 302.000000 -0.094341 18.000000 -0.040657 93.000000 0.100585 186.000000 -0.166710
147147.000000 0.926099 321.000000 322.000000 245.000000 -0.141032 278.000000 0.040391 299.000000 -0.059437 309.000000 0.090812 23.000000 -0.031599 94.000000 0.113011 186.000000 -0.132883
149049.000000 0.938045 314.000000 310.000000 240.000000 -0.202682 270.000000 -0.015313 286.000000 -0.092098 287.000000 -0.091722 20.000000 -0.008321 90.000000 0.174996 203.000000 -0.183104
149672.000000 0.929751 313.000000 319.000000 237.000000 -0.064953 268.000000 0.077697 296.000000 -0.057540 313.000000 0.684779 19.000000 -0.032774 91.000000 0.094953 128.000000 -0.043538
150638.000000 0.850629 325.000000 329.000000 241.000000 -0.088824 278.000000 0.055235 303.000000 -0.083152 304.000000 -0.077917 23.000000 -0.034042 97.000000 0.101316 145.000000 -0.067995
150967.000000 0.864983 329.000000 338.000000 244.000000 -0.101916 288.000000 0.051722 311.000000 -0.073231 313.000000 -0.087495 21.000000 -0.037725 93.000000 0.125994 134.000000 -0.083364
151989.000000 0.885187 339.000000 331.000000 245.000000 -0.072570 283.000000 0.042475 309.000000 -0.043233 310.000000 -0.053170 8.000000 0.414075 91.000000 0.080097 125.000000 -0.072163
152320.000000 0.883776 331.000000 341.000000 254.000000 -0.062078 279.000000 -0.001564 284.000000 -0.041344 332.000000 0.486442 23.000000 0.002663 85.000000 0.112782 157.000000 -0.072321
152993.000000 0.904516 332.000000 345.000000 260.000000 -0.107538 302.000000 0.007945 319.000000 -0.068748 326.000000 -0.047727 9.000000 0.405190 86.000000 0.100608 156.000000 -0.080379
154031.000000 0.895516 345.000000 345.000000 266.000000 -0.083524 295.000000 -0.001580 317.000000 -0.064139 325.000000 -0.064610 18.000000 -0.024215 92.000000 0.086258 131.000000 -0.070092
157105.000000 0.874002 335.000000 338.000000 264.000000 -0.097494 294.000000 -0.005409 305.000000 -0.057386 329.000000 0.357378 20.000000 -0.030420 91.000000 0.119433 129.000000 -0.064871
158483.000000 0.913332 345.000000 349.000000 261.000000 -0.072897 309.000000 0.011146 312.000000 -0.019638 324.000000 -0.042584 25.000000 -0.031166 93.000000 0.083725 125.000000 -0.093689
160970.000000 0.857446 354.000000 349.000000 260.000000 -0.079970 308.000000 0.018622 317.000000 -0.048729 333.000000 -0.023714 17.000000 -0.008747 91.000000 0.115529 153.000000 -0.104512
161657.000000 0.878244 338.000000 351.000000 266.000000 -0.081505 293.000000 0.007571 306.000000 -0.012695 343.000000 0.519941 20.000000 -0.019798 89.000000 0.098712 161.000000 -0.058846
162711.000000 0.884048 354.000000 355.000000 287.000000 -0.029559 310.000000 0.059499 316.000000 0.026662 344.000000 0.436005 20.000000 -0.003399 92.000000 0.097538 152.000000 -0.091378
167558.000000 0.932585 358.000000 347.000000 269.000000 -0.077415 287.000000 -0.003309 296.000000 -0.028810 325.000000 -0.042930 23.000000 -0.027513 83.000000 0.113664 129.000000 -0.084988
167905.000000 0.956336 347.000000 358.000000 283.000000 -0.008512 301.000000 0.070925 325.000000 -0.000613 331.000000 0.004527 24.000000 -0.001080 86.000000 0.102899 90.000000 0.058180
168966.000000 1.001430 349.000000 352.000000 271.000000 -0.073543 308.000000 -0.011224 315.000000 -0.038984 326.000000 -0.083218 25.000000 -0.020595 91.000000 0.089807 99.000000 0.063882
169318.000000 0.937065 352.000000 346.000000 275.000000 -0.108291 306.000000 0.012211 323.000000 -0.081517 329.000000 -0.048649 22.000000 -0.032320 89.000000 0.097671 153.000000 -0.112569
170023.000000 0.944057 359.000000 359.000000 267.000000 -0.056458 296.000000 0.021898 317.000000 -0.018632 331.000000 -0.048882 19.000000 -0.019719 92.000000 0.059186 133.000000 -0.084683
170382.000000 0.975159 359.000000 356.000000 279.000000 -0.062331 298.000000 0.023670 308.000000 0.002826 346.000000 0.331221 21.000000 -0.007758 82.000000 0.099856 161.000000 -0.126729
172495.000000 0.914376 341.000000 345.000000 268.000000 -0.055940 309.000000 0.051535 311.000000 0.007647 320.000000 -0.002808 20.000000 -0.030000 94.000000 0.110125 140.000000 -0.069109
175207.000000 0.927660 352.000000 346.000000 275.000000 -0.080628 303.000000 -0.010880 317.000000 -0.100224 326.000000 -0.050209 21.000000 -0.045601 94.000000 0.092489 128.000000 -0.086400
176953.000000 0.914266 340.000000 353.000000 276.000000 -0.095187 305.000000 0.000597 311.000000 -0.034544 334.000000 -0.069464 22.000000 -0.015311 90.000000 0.145497 140.000000 -0.086041
177647.000000 0.882006 341.000000 337.000000 280.000000 -0.053968 296.000000 -0.013607 312.000000 -0.080049 318.000000 -0.051006 19.000000 -0.029058 93.000000 0.145795 135.000000 -0.081236
180092.000000 0.936330 362.000000 366.000000 294.000000 -0.086062 325.000000 -0.003366 342.000000 -0.076565 343.000000 -0.071502 21.000000 -0.069909 98.000000 0.127701 141.000000 -0.069527
180825.000000 0.883748 367.000000 359.000000 268.000000 -0.076537 314.000000 -0.012791 333.000000 -0.084670 349.000000 0.413810 19.000000 -0.087571 95.000000 0.124274 130.000000 -0.073674
181914.000000 0.957741 361.000000 365.000000 273.000000 -0.096585 303.000000 -0.011789 311.000000 -0.056914 344.000000 -0.073577 13.000000 0.101757 90.000000 0.116303 152.000000 -0.110168
182279.000000 0.904401 365.000000 361.000000 265.000000 -0.050704 300.000000 -0.001362 317.000000 -0.049390 342.000000 -0.096473 20.000000 -0.022809 94.000000 0.104376 157.000000 -0.062290
184730.000000 0.888073 344.000000 342.000000 269.000000 -0.096115 299.000000 -0.013515 314.000000 -0.082294 333.000000 0.517893 21.000000 -0.016695 91.000000 0.124250 128.000000 -0.048934
186111.000000 0.949486 343.000000 350.000000 277.000000 -0.071376 309.000000 -0.005657 324.000000 -0.076563 331.000000 -0.069903 20.000000 -0.063882 92.000000 0.119907 133.000000 -0.077160
186461.000000 0.915773 350.000000 353.000000 269.000000 -0.094779 295.000000 -0.014046 322.000000 -0.076316 332.000000 -0.056757 21.000000 -0.048834 90.000000 0.119016 128.000000 -0.054965
187528.000000 0.910577 362.000000 359.000000 280.000000 -0.102176 308.000000 -0.020311 321.000000 -0.031411 340.000000 -0.072787 21.000000 -0.011460 92.000000 0.134569 138.000000 -0.067109
187887.000000 0.956023 359.000000 355.000000 279.000000 -0.088461 311.000000 -0.010953 329.000000 -0.097756 336.000000 -0.053478 22.000000 -0.018526 92.000000 0.138380 140.000000 -0.051559
191083.000000 0.872836 349.000000 359.000000 271.000000 -0.055891 297.000000 -0.002194 317.000000 -0.035814 338.000000 -0.069062 19.000000 -0.036330 93.000000 0.118549 126.000000 -0.058191
192153.000000 0.939354 354.000000 352.000000 261.000000 -0.086194 296.000000 0.022914 302.000000 -0.035613 330.000000 0.010471 22.000000 -0.007007 54.000000 0.074924 64.000000 0.059111
193590.000000 0.847431 367.000000 355.000000 270.000000 -0.066600 300.000000 0.003887 323.000000 -0.080186 332.000000 -0.068995 20.000000 -0.036269 95.000000 0.099949 156.000000 -0.093218
194299.000000 0.850531 354.000000 368.000000 318.000000 0.005274 347.000000 0.014746 337.000000 -0.020679 344.000000 -0.015428 19.000000 -0.063154 95.000000 0.100154 151.000000 -0.062269
195723.000000 0.990519 354.000000 353.000000 277.000000 -0.048369 302.000000 0.020265 323.000000 -0.063732 331.000000 -0.032525 23.000000 -0.019423 86.000000 0.122578 147.000000 -0.064186
196076.000000 0.891599 353.000000 364.000000 289.000000 -0.066110 310.000000 -0.013272 319.000000 -0.045704 344.000000 -0.068744 20.000000 -0.017053 94.000000 0.097547 128.000000 -0.070995
196440.000000 0.839768 364.000000 364.000000 290.000000 -0.084025 318.000000 0.016570 336.000000 -0.058806 343.000000 -0.013366 20.000000 -0.055189 89.000000 0.096110 151.000000 -0.076187
198636.000000 0.936428 364.000000 365.000000 293.000000 -0.078918 319.000000 0.003402 343.000000 -0.037965 353.000000 0.093399 20.000000 -0.007636 91.000000 0.093868 139.000000 -0.066957
199001.000000 0.885170 365.000000 364.000000 289.000000 -0.055876 316.000000 0.021520 334.000000 -0.073792 343.000000 -0.075548 9.000000 0.258887 87.000000 0.095714 92.000000 0.065901
199365.000000 0.907336 364.000000 368.000000 293.000000 -0.095437 323.000000 0.028649 341.000000 -0.060177 348.000000 -0.016745 19.000000 -0.067238 96.000000 0.105400 151.000000 -0.091910
200456.000000 0.898537 361.000000 369.000000 291.000000 -0.057054 325.000000 -0.000188 334.000000 -0.051302 352.000000 -0.037981 20.000000 -0.041054 97.000000 0.121334 141.000000 -0.067916
200825.000000 0.836910 369.000000 368.000000 296.000000 -0.075674 327.000000 -0.001395 342.000000 -0.049922 346.000000 -0.065643 18.000000 -0.050846 88.000000 0.107232 130.000000 -0.060328
201551.000000 0.887995 358.000000 366.000000 294.000000 -0.077806 310.000000 -0.004312 339.000000 -0.084909 357.000000 0.464040 22.000000 -0.003024 95.000000 0.113656 143.000000 -0.063713
202623.000000 0.809181 354.000000 358.000000 290.000000 -0.057617 318.000000 0.000155 326.000000 -0.065613 335.000000 -0.061790 19.000000 -0.023388 102.000000 0.120064 150.000000 -0.067635
203339.000000 0.828481 358.000000 368.000000 286.000000 -0.076585 313.000000 -0.004045 341.000000 -0.081129 349.000000 -0.057335 22.000000 -0.013794 96.000000 0.124351 146.000000 -0.081168
205176.000000 0.879406 367.000000 362.000000 209.000000 -0.059998 276.000000 0.064840 289.000000 0.036987 347.000000 -0.117130 20.000000 -0.071031 96.000000 0.127079 137.000000 -0.077785
207725.000000 0.920390 356.000000 362.000000 290.000000 -0.077696 308.000000 -0.007134 333.000000 -0.058527 337.000000 -0.088934 21.000000 -0.023246 95.000000 0.107395 146.000000 -0.091219
208817.000000 0.928655 369.000000 364.000000 288.000000 -0.070155 320.000000 -0.005031 337.000000 -0.068921 337.000000 -0.068921 18.000000 -0.018558 93.000000 0.151496 130.000000 -0.042157
209546.000000 0.821394 365.000000 379.000000 297.000000 -0.070623 324.000000 0.006178 334.000000 -0.038288 360.000000 -0.037745 23.000000 -0.038778 96.000000 0.106936 142.000000 -0.062579
214859.000000 0.813823 383.000000 376.000000 295.000000 -0.051489 318.000000 -0.006115 326.000000 -0.023906 368.000000 0.560576 25.000000 -0.117661 103.000000 0.051445 134.000000 -0.100080
215604.000000 0.860973 369.000000 376.000000 298.000000 -0.038371 318.000000 0.002413 342.000000 -0.070865 353.000000 -0.059596 19.000000 0.008276 89.000000 0.117606 146.000000 -0.120542
217423.000000 0.788495 357.000000 361.000000 274.000000 -0.056644 301.000000 0.014687 319.000000 -0.021380 331.000000 -0.072290 22.000000 -0.033262 97.000000 0.120624 134.000000 -0.064974
218901.000000 0.814422 372.000000 384.000000 298.000000 -0.053732 323.000000 0.005170 348.000000 -0.034859 358.000000 -0.057978 22.000000 -0.042054 96.000000 0.104962 98.000000 0.090668
219660.000000 0.800802 375.000000 371.000000 297.000000 -0.051100 320.000000 0.002082 326.000000 -0.035613 359.000000 0.058185 23.000000 -0.033665 95.000000 0.120756 146.000000 -0.079916
220031.000000 0.812808 371.000000 379.000000 290.000000 -0.053305 320.000000 0.004124 347.000000 -0.033387 354.000000 -0.059767 12.000000 0.108404 94.000000 0.111505 146.000000 -0.095306
220789.000000 0.758399 379.000000 384.000000 308.000000 -0.046334 334.000000 -0.004058 356.000000 -0.056379 361.000000 -0.083010 19.000000 -0.029849 92.000000 0.127192 135.000000 -0.085486
221173.000000 0.889498 384.000000 371.000000 290.000000 -0.076456 309.000000 0.004732 315.000000 -0.032697 349.000000 -0.059168 21.000000 -0.024324 94.000000 0.130147 132.000000 -0.066361
221918.000000 0.799056 374.000000 383.000000 311.000000 -0.051268 332.000000 0.035911 355.000000 -0.040596 361.000000 -0.070768 19.000000 -0.039644 91.000000 0.114953 143.000000 -0.076887
222301.000000 0.904202 383.000000 380.000000 302.000000 -0.077193 321.000000 -0.014199 328.000000 -0.033385 359.000000 -0.052729 20.000000 -0.022943 94.000000 0.118708 141.000000 -0.077831
223431.000000 0.866643 376.000000 383.000000 310.000000 -0.042005 331.000000 0.007041 339.000000 -0.028069 361.000000 -0.086394 20.000000 -0.045562 103.000000 0.111041 145.000000 -0.094198
223814.000000 0.813134 383.000000 382.000000 270.000000 -0.090802 320.000000 0.005063 330.000000 -0.009061 363.000000 -0.068526 19.000000 -0.058403 94.000000 0.124497 143.000000 -0.063142
224929.000000 0.806284 364.000000 378.000000 301.000000 -0.040534 323.000000 0.007570 331.000000 -0.021614 358.000000 -0.049550 12.000000 0.114860 106.000000 0.122952 137.000000 -0.093305
225668.000000 0.896491 361.000000 362.000000 276.000000 -0.062134 304.000000 -0.007242 331.000000 -0.071865 343.000000 -0.047817 26.000000 -0.013257 99.000000 0.109146 141.000000 -0.110306
226398.000000 0.780484 368.000000 360.000000 286.000000 -0.049987 318.000000 0.005893 335.000000 -0.067256 342.000000 -0.023259 20.000000 -0.040240 104.000000 0.101614 133.000000 -0.074540
226758.000000 0.935971 360.000000 370.000000 282.000000 -0.061034 330.000000 -0.013683 339.000000 -0.071536 347.000000 -0.073604 22.000000 -0.032793 102.000000 0.120074 146.000000 -0.104411
227128.000000 0.751775 370.000000 373.000000 296.000000 -0.044547 321.000000 0.004594 330.000000 -0.022507 352.000000 -0.079184 20.000000 -0.025220 95.000000 0.099289 145.000000 -0.077628
229726.000000 0.856080 364.000000 368.000000 273.000000 -0.087602 307.000000 0.002572 324.000000 -0.032569 351.000000 -0.028397 22.000000 -0.038323 101.000000 0.133330 149.000000 -0.051984
230094.000000 0.803248 368.000000 378.000000 287.000000 -0.050109 319.000000 0.013309 328.000000 -0.011770 359.000000 -0.048320 18.000000 -0.077962 104.000000 0.115279 142.000000 -0.060742
230838.000000 0.914059 366.000000 373.000000 274.000000 -0.050593 309.000000 0.006883 315.000000 -0.025546 352.000000 -0.074527 20.000000 -0.031052 94.000000 0.116105 141.000000 -0.075403
231583.000000 0.889544 372.000000 368.000000 292.000000 -0.060819 319.000000 0.026879 342.000000 -0.056050 348.000000 -0.054733 18.000000 -0.053040 105.000000 0.122307 158.000000 -0.099060
231951.000000 0.970673 368.000000 370.000000 295.000000 -0.053416 314.000000 0.009750 320.000000 -0.008495 352.000000 -0.026880 20.000000 -0.046082 98.000000 0.106942 152.000000 -0.128650
232321.000000 0.903027 370.000000 367.000000 295.000000 -0.051126 317.000000 0.012681 323.000000 -0.021066 348.000000 -0.060343 22.000000 -0.043242 88.000000 0.119987 94.000000 0.091130
233414.000000 1.016179 368.000000 355.000000 285.000000 -0.079920 314.000000 0.018668 332.000000 -0.055190 334.000000 -0.065659 23.000000 -0.012461 98.000000 0.106518 151.000000 -0.119526
233769.000000 1.030221 355.000000 366.000000 289.000000 -0.053512 310.000000 0.018105 318.000000 -0.000328 344.000000 -0.060718 21.000000 -0.017111 94.000000 0.092622 140.000000 -0.090389
235593.000000 0.883307 359.000000 359.000000 269.000000 -0.082944 298.000000 0.005817 318.000000 -0.031363 339.000000 -0.072589 19.000000 -0.032038 93.000000 0.136695 153.000000 -0.087268
236682.000000 0.819046 363.000000 361.000000 280.000000 -0.064430 312.000000 0.005222 317.000000 -0.032161 337.000000 -0.064172 15.000000 -0.002852 98.000000 0.121632 161.000000 -0.090341
237043.000000 0.886408 361.000000 364.000000 280.000000 -0.063202 312.000000 0.002459 330.000000 -0.105048 339.000000 -0.080188 13.000000 0.080846 96.000000 0.138669 149.000000 -0.092610
237407.000000 0.861255 364.000000 364.000000 290.000000 -0.084798 320.000000 -0.007602 341.000000 -0.093387 341.000000 -0.093387 22.000000 -0.030377 91.000000 0.109858 150.000000 -0.085801
239231.000000 0.927570 372.000000 375.000000 302.000000 -0.082429 333.000000 -0.009155 350.000000 -0.095171 356.000000 -0.065735 19.000000 -0.066330 104.000000 0.146832 150.000000 -0.073698
241107.000000 0.880595 375.000000 369.000000 285.000000 -0.041772 318.000000 0.049641 326.000000 0.001366 348.000000 -0.066298 19.000000 -0.042401 89.000000 0.122723 154.000000 -0.080937
241476.000000 0.994657 369.000000 374.000000 293.000000 -0.083198 322.000000 0.009495 345.000000 -0.084391 351.000000 -0.101427 23.000000 -0.030610 93.000000 0.122673 146.000000 -0.113025
243339.000000 0.934012 375.000000 369.000000 281.000000 -0.088163 319.000000 0.013248 327.000000 -0.023463 337.000000 -0.093636 22.000000 -0.044450 106.000000 0.138856 147.000000 -0.103024
244084.000000 0.870456 376.000000 369.000000 295.000000 -0.046895 317.000000 0.026399 338.000000 -0.084874 345.000000 -0.062162 18.000000 -0.062382 91.000000 0.117587 158.000000 -0.110234
245927.000000 0.871001 362.000000 355.000000 296.000000 -0.029214 313.000000 0.012087 329.000000 -0.070218 329.000000 -0.070218 19.000000 -0.085361 97.000000 0.129557 151.000000 -0.096848
247013.000000 0.833617 359.000000 347.000000 269.000000 -0.065312 295.000000 0.015644 317.000000 -0.079792 326.000000 -0.073757 20.000000 -0.044327 103.000000 0.119942 155.000000 -0.072869
247360.000000 0.933308 347.000000 363.000000 288.000000 -0.079529 310.000000 -0.000563 319.000000 -0.023824 355.000000 0.455956 20.000000 -0.062446 104.000000 0.107035 152.000000 -0.081712
248442.000000 0.930393 357.000000 364.000000 277.000000 -0.094762 306.000000 -0.014197 317.000000 -0.043681 343.000000 -0.083587 19.000000 -0.051021 106.000000 0.118254 151.000000 -0.076150
249884.000000 0.846613 363.000000 354.000000 277.000000 -0.068744 306.000000 0.017665 314.000000 -0.035439 335.000000 -0.046852 20.000000 -0.050048 102.000000 0.131742 150.000000 -0.060699
250238.000000 1.048007 354.000000 361.000000 284.000000 -0.067197 301.000000 -0.005111 329.000000 -0.115829 338.000000 -0.103634 21.000000 -0.023182 96.000000 0.113486 125.000000 -0.078415
250964.000000 0.889263 365.000000 363.000000 283.000000 -0.053276 319.000000 0.008948 337.000000 -0.099499 344.000000 -0.052416 21.000000 -0.054939 102.000000 0.106123 155.000000 -0.105355
251327.000000 0.807584 363.000000 373.000000 286.000000 -0.098480 318.000000 -0.016347 340.000000 -0.079057 346.000000 -0.097333 19.000000 -0.060814 100.000000 0.125927 152.000000 -0.076836
252782.000000 0.865283 366.000000 362.000000 268.000000 -0.064704 302.000000 0.014261 330.000000 -0.070862 339.000000 -0.055408 19.000000 -0.052085 98.000000 0.132662 151.000000 -0.102479
253496.000000 0.885817 352.000000 360.000000 245.000000 -0.076097 309.000000 0.008463 332.000000 -0.062867 337.000000 -0.088210 20.000000 -0.039825 105.000000 0.109721 149.000000 -0.109084
254212.000000 0.988419 356.000000 362.000000 271.000000 -0.063058 300.000000 0.018637 332.000000 -0.094686 341.000000 -0.086188 19.000000 -0.023166 97.000000 0.133584 147.000000 -0.093678
254933.000000 0.957571 359.000000 359.000000 269.000000 -0.062693 300.000000 0.037773 310.000000 0.008429 340.000000 -0.037919 20.000000 -0.029590 97.000000 0.109200 153.000000 -0.128655
256008.000000 0.867929 355.000000 359.000000 286.000000 -0.063714 317.000000 0.007242 334.000000 -0.090440 342.000000 -0.051365 18.000000 -0.034011 91.000000 0.113360 157.000000 -0.117885
258919.000000 0.923763 380.000000 373.000000 281.000000 -0.083572 313.000000 -0.000268 321.000000 -0.040205 354.000000 -0.080190 23.000000 -0.044859 96.000000 0.113401 134.000000 -0.055182
259292.000000 0.888088 373.000000 354.000000 280.000000 -0.065174 312.000000 -0.008276 331.000000 -0.089715 346.000000 0.514141 19.000000 -0.070720 95.000000 0.127616 138.000000 -0.085809
259646.000000 0.924062 354.000000 369.000000 276.000000 -0.065121 330.000000 -0.001644 346.000000 -0.065548 356.000000 0.027509 19.000000 -0.030707 104.000000 0.091257 147.000000 -0.108476
260381.000000 0.896332 366.000000 371.000000 297.000000 -0.067478 318.000000 0.000516 325.000000 -0.028418 351.000000 -0.069674 16.000000 -0.049089 88.000000 0.122874 146.000000 -0.098152
261475.000000 0.931397 352.000000 370.000000 292.000000 -0.048778 326.000000 0.002992 342.000000 -0.081223 361.000000 0.522024 21.000000 -0.028871 86.000000 0.112745 144.000000 -0.104083
262570.000000 0.959860 359.000000 373.000000 273.000000 -0.072975 312.000000 -0.009356 334.000000 -0.032574 346.000000 -0.095631 21.000000 -0.027598 84.000000 0.120198 134.000000 -0.061934
263685.000000 0.965704 374.000000 385.000000 314.000000 -0.044763 339.000000 0.040297 358.000000 -0.042089 365.000000 -0.010552 24.000000 -0.016629 95.000000 0.133091 147.000000 -0.077555
264806.000000 0.943495 361.000000 376.000000 303.000000 -0.077037 323.000000 -0.000658 350.000000 -0.085485 357.000000 -0.046849 8.000000 0.516958 94.000000 0.132177 146.000000 -0.117704
265182.000000 0.891582 376.000000 373.000000 304.000000 -0.049356 329.000000 0.004451 348.000000 -0.082714 355.000000 -0.053153 20.000000 -0.012713 100.000000 0.130970 151.000000 -0.075511
265555.000000 0.798166 373.000000 362.000000 285.000000 -0.090263 303.000000 -0.004560 334.000000 -0.100139 344.000000 -0.078917 18.000000 -0.024325 90.000000 0.108950 155.000000 -0.129313
265917.000000 0.840489 362.000000 363.000000 273.000000 -0.066694 304.000000 0.018088 309.000000 -0.005407 342.000000 -0.055643 21.000000 -0.058351 99.000000 0.127259 143.000000 -0.092760
268523.000000 0.975155 370.000000 368.000000 293.000000 -0.081567 325.000000 -0.005455 343.000000 -0.089406 347.000000 -0.075080 23.000000 -0.048181 99.000000 0.112701 139.000000 -0.108414
268891.000000 0.926927 368.000000 375.000000 299.000000 -0.087822 318.000000 -0.006930 327.000000 -0.045550 355.000000 -0.069801 21.000000 -0.043734 91.000000 0.113418 130.000000 -0.089468
270765.000000 0.768197 368.000000 368.000000 290.000000 -0.076692 317.000000 0.062872 343.000000 -0.070500 345.000000 -0.085923 20.000000 -0.062348 103.000000 0.108500 154.000000 -0.106131
272203.000000 0.930033 359.000000 360.000000 288.000000 -0.055798 309.000000 0.084015 333.000000 -0.070858 341.000000 -0.081531 21.000000 -0.025265 94.000000 0.096868 150.000000 -0.120306
272931.000000 0.952867 368.000000 368.000000 291.000000 -0.051504 315.000000 0.074874 342.000000 -0.101132 348.000000 -0.067308 25.000000 -0.056440 99.000000 0.103118 145.000000 -0.072574
274767.000000 0.947303 368.000000 367.000000 289.000000 -0.053605 316.000000 0.081224 341.000000 -0.064667 347.000000 -0.059873 18.000000 -0.042540 85.000000 0.143570 154.000000 -0.143840
275493.000000 0.936595 359.000000 361.000000 216.000000 -0.122066 308.000000 0.111865 334.000000 -0.043136 337.000000 -0.063057 19.000000 -0.046821 91.000000 0.119460 100.000000 0.101810
277966.000000 0.944969 339.000000 355.000000 279.000000 -0.093104 309.000000 0.057099 325.000000 -0.098200 329.000000 -0.108342 20.000000 -0.041238 92.000000 0.121051 138.000000 -0.067085
279383.000000 0.923511 359.000000 356.000000 272.000000 -0.038305 309.000000 0.085691 320.000000 -0.028415 325.000000 -0.089575 20.000000 -0.054418 92.000000 0.102664 158.000000 -0.097653
281161.000000 0.915596 349.000000 348.000000 274.000000 -0.069575 297.000000 0.057147 323.000000 -0.092850 326.000000 -0.102615 18.000000 -0.069512 94.000000 0.139663 147.000000 -0.094526
281860.000000 0.896615 351.000000 357.000000 276.000000 -0.120800 306.000000 0.010394 327.000000 -0.122457 332.000000 -0.095748 21.000000 -0.036551 101.000000 0.142661 132.000000 -0.083278
283959.000000 0.905908 355.000000 366.000000 290.000000 -0.093981 309.000000 -0.017165 332.000000 -0.054467 342.000000 -0.058574 18.000000 -0.059186 91.000000 0.111053 136.000000 -0.094873
284688.000000 0.899042 363.000000 365.000000 222.000000 -0.085294 239.000000 -0.053996 288.000000 -0.171896 352.000000 -0.024045 24.000000 -0.024559 98.000000 0.130200 130.000000 -0.025523
285053.000000 0.823100 365.000000 367.000000 296.000000 -0.079701 319.000000 -0.019446 327.000000 -0.052519 349.000000 -0.113603 12.000000 0.026016 103.000000 0.147606 138.000000 -0.018601
285420.000000 0.876944 367.000000 355.000000 258.000000 -0.081111 293.000000 -0.015847 324.000000 -0.089797 334.000000 -0.081332 21.000000 -0.058355 96.000000 0.103863 148.000000 -0.094760
286136.000000 0.897541 361.000000 365.000000 275.000000 -0.080952 304.000000 0.022495 334.000000 -0.080906 341.000000 -0.057366 20.000000 -0.077868 101.000000 0.103813 133.000000 -0.068520
289347.000000 0.855076 359.000000 355.000000 282.000000 -0.072805 299.000000 0.000819 308.000000 -0.049026 332.000000 -0.094749 24.000000 -0.026158 95.000000 0.125146 148.000000 -0.085139
293697.000000 0.892743 367.000000 363.000000 278.000000 -0.082165 308.000000 -0.000362 319.000000 -0.011944 354.000000 0.421519 25.000000 -0.051394 94.000000 0.101110 99.000000 0.080844
298051.000000 0.855546 361.000000 365.000000 293.000000 -0.067760 313.000000 0.014155 320.000000 -0.028696 347.000000 -0.047520 21.000000 -0.058635 97.000000 0.120895 150.000000 -0.101117
298784.000000 0.879407 368.000000 368.000000 293.000000 -0.089062 312.000000 -0.001976 320.000000 -0.021192 350.000000 -0.062067 20.000000 -0.068182 97.000000 0.127147 151.000000 -0.082747
299152.000000 0.893846 368.000000 358.000000 276.000000 -0.051662 304.000000 0.029809 316.000000 -0.005424 342.000000 -0.038383 19.000000 -0.039698 88.000000 0.115288 153.000000 -0.101866
299881.000000 0.844769 371.000000 362.000000 289.000000 -0.048433 320.000000 0.006034 339.000000 -0.090688 345.000000 -0.060844 21.000000 -0.058583 103.000000 0.112469 143.000000 -0.073930
300614.000000 1.011271 371.000000 363.000000 294.000000 -0.059108 319.000000 0.019764 329.000000 -0.027117 347.000000 -0.052587 21.000000 -0.026690 92.000000 0.117966 145.000000 -0.119955
300977.000000 1.033621 363.000000 361.000000 287.000000 -0.088450 319.000000 0.026423 331.000000 -0.049532 337.000000 -0.081712 23.000000 -0.051378 101.000000 0.110636 152.000000 -0.078922
301338.000000 1.039104 361.000000 373.000000 298.000000 -0.062399 315.000000 0.025282 322.000000 -0.008434 355.000000 -0.037903 22.000000 -0.050363 100.000000 0.045138 152.000000 -0.141191
301711.000000 1.111128 373.000000 362.000000 286.000000 -0.099213 303.000000 -0.017945 312.000000 -0.047257 340.000000 -0.066161 22.000000 -0.038933 100.000000 0.133288 135.000000 -0.062795
303137.000000 0.924924 350.000000 351.000000 272.000000 -0.077194 294.000000 -0.019028 305.000000 -0.042789 332.000000 -0.053446 21.000000 -0.069840 101.000000 0.111739 133.000000 -0.070702
303488.000000 0.972415 351.000000 350.000000 269.000000 -0.073491 301.000000 -0.002052 324.000000 -0.072886 330.000000 -0.057589 23.000000 -0.065221 100.000000 0.108944 149.000000 -0.074097
303838.000000 0.988149 350.000000 350.000000 255.000000 -0.082289 289.000000 0.001818 300.000000 -0.014843 328.000000 -0.043134 22.000000 -0.044185 98.000000 0.102694 129.000000 -0.083061
305592.000000 0.978420 349.000000 352.000000 239.000000 -0.101972 290.000000 -0.003382 298.000000 -0.015795 328.000000 -0.080235 12.000000 0.148483 97.000000 0.142060 151.000000 -0.072591
306654.000000 0.886662 358.000000 354.000000 258.000000 -0.074076 307.000000 0.023570 334.000000 -0.053215 348.000000 0.751675 22.000000 -0.049140 105.000000 0.112439 154.000000 -0.094612
308079.000000 0.955316 351.000000 353.000000 280.000000 -0.068810 301.000000 -0.004060 309.000000 -0.021131 335.000000 -0.048806 9.000000 0.334092 95.000000 0.132555 134.000000 -0.092565
308432.000000 0.920252 353.000000 369.000000 265.000000 -0.103993 306.000000 0.012979 333.000000 -0.032024 342.000000 -0.066444 17.000000 -0.049375 90.000000 0.129755 157.000000 -0.088844
309531.000000 0.830596 363.000000 371.000000 293.000000 -0.058525 311.000000 0.009157 323.000000 -0.018666 350.000000 -0.048464 21.000000 -0.069466 98.000000 0.124551 151.000000 -0.100142
310630.000000 0.940190 363.000000 376.000000 295.000000 -0.045011 318.000000 0.007229 340.000000 -0.048433 362.000000 -0.018717 21.000000 -0.036600 101.000000 0.118583 148.000000 -0.092360
312106.000000 0.830428 365.000000 362.000000 289.000000 -0.057133 318.000000 0.036019 336.000000 -0.031693 343.000000 -0.014170 19.000000 -0.041358 92.000000 0.106479 153.000000 -0.091096
312834.000000 0.960067 366.000000 368.000000 294.000000 -0.063354 324.000000 0.029155 342.000000 -0.053555 349.000000 -0.034338 22.000000 -0.018855 96.000000 0.097859 134.000000 -0.086978
313202.000000 0.931036 368.000000 371.000000 269.000000 -0.071125 316.000000 0.017633 323.000000 -0.015690 354.000000 -0.050412 20.000000 -0.034670 89.000000 0.100666 177.000000 -0.104748
318325.000000 0.926534 359.000000 369.000000 283.000000 -0.054783 308.000000 0.004497 331.000000 -0.024767 343.000000 -0.074000 20.000000 -0.044731 94.000000 0.108767 134.000000 -0.078192
318694.000000 0.959811 369.000000 381.000000 306.000000 -0.089653 335.000000 0.007854 347.000000 -0.040735 363.000000 -0.047600 23.000000 -0.044579 98.000000 0.098406 138.000000 -0.093291
319075.000000 0.976930 381.000000 374.000000 272.000000 -0.094375 314.000000 0.015315 324.000000 -0.019449 365.000000 0.468108 20.000000 -0.049419 98.000000 0.123606 134.000000 -0.066575
320574.000000 0.992118 372.000000 367.000000 226.000000 -0.112821 306.000000 0.000894 311.000000 -0.032162 346.000000 -0.071331 22.000000 -0.030829 87.000000 0.091364 137.000000 -0.093016
321310.000000 0.937289 369.000000 366.000000 292.000000 -0.054108 314.000000 0.011550 336.000000 -0.069480 341.000000 -0.065891 22.000000 -0.050564 97.000000 0.118554 177.000000 -0.114858
322396.000000 0.959297 352.000000 350.000000 264.000000 -0.070676 297.000000 0.004655 304.000000 -0.037665 327.000000 -0.094121 22.000000 -0.025531 91.000000 0.119515 147.000000 -0.112878
323116.000000 0.936958 370.000000 359.000000 274.000000 -0.074871 309.000000 -0.009686 319.000000 -0.030535 338.000000 -0.088121 22.000000 -0.025549 92.000000 0.124665 166.000000 -0.067276
324546.000000 0.957244 358.000000 355.000000 235.000000 -0.069451 261.000000 0.129467 287.000000 -0.184686 346.000000 0.541911 14.000000 0.046444 90.000000 0.139665 132.000000 -0.107543
325613.000000 0.971567 355.000000 357.000000 277.000000 -0.100346 309.000000 0.009497 328.000000 -0.099421 335.000000 -0.060534 22.000000 -0.021240 94.000000 0.111993 132.000000 -0.083716
325970.000000 0.997823 357.000000 361.000000 290.000000 -0.072147 312.000000 0.005141 318.000000 -0.032492 344.000000 -0.053387 24.000000 -0.035312 96.000000 0.120222 151.000000 -0.118781
326693.000000 0.979828 362.000000 365.000000 289.000000 -0.069199 310.000000 -0.013007 320.000000 -0.048024 345.000000 -0.069466 20.000000 -0.028810 82.000000 0.113540 143.000000 -0.101167
328143.000000 0.911569 366.000000 357.000000 284.000000 -0.082163 302.000000 0.002617 308.000000 -0.035109 338.000000 -0.053075 19.000000 -0.073023 99.000000 0.114550 130.000000 -0.062348
329912.000000 0.889404 351.000000 356.000000 282.000000 -0.065046 310.000000 0.038261 327.000000 -0.093320 333.000000 -0.058917 20.000000 -0.034262 105.000000 0.113188 154.000000 -0.084886
331682.000000 0.929108 357.000000 359.000000 271.000000 -0.092617 307.000000 0.005800 312.000000 -0.029451 338.000000 -0.070702 20.000000 -0.079732 99.000000 0.172872 130.000000 -0.053064
333119.000000 1.016349 354.000000 351.000000 271.000000 -0.041409 308.000000 0.031469 329.000000 -0.078594 334.000000 -0.048844 22.000000 -0.026022 92.000000 0.094023 145.000000 -0.130081
333470.000000 1.030421 351.000000 361.000000 288.000000 -0.109246 317.000000 -0.025547 324.000000 -0.055014 343.000000 -0.046568 18.000000 -0.043275 91.000000 0.084798 128.000000 -0.090569
333831.000000 1.023747 361.000000 371.000000 299.000000 -0.095767 327.000000 -0.002884 336.000000 -0.091002 344.000000 -0.083492 20.000000 -0.023841 88.000000 0.121239 95.000000 0.099452
334562.000000 0.895186 360.000000 357.000000 285.000000 -0.082508 307.000000 0.016239 326.000000 -0.080451 333.000000 -0.069103 18.000000 -0.042590 89.000000 0.128310 131.000000 -0.074063
335286.000000 0.941648 367.000000 367.000000 293.000000 -0.073492 314.000000 -0.011549 336.000000 -0.096644 342.000000 -0.093462 24.000000 -0.034435 87.000000 0.117912 157.000000 -0.088314
335653.000000 0.885458 367.000000 352.000000 276.000000 -0.101912 308.000000 0.040422 320.000000 -0.022839 345.000000 0.747084 21.000000 -0.031363 97.000000 0.124106 134.000000 -0.070123
337438.000000 0.900706 360.000000 355.000000 281.000000 -0.072038 313.000000 0.015864 330.000000 -0.075439 337.000000 -0.032837 22.000000 -0.006899 83.000000 0.096189 145.000000 -0.104260
341637.000000 0.905893 350.000000 357.000000 244.000000 -0.062523 315.000000 0.005609 317.000000 -0.019814 324.000000 -0.050866 19.000000 -0.064435 99.000000 0.117573 136.000000 -0.078185
342693.000000 0.905107 344.000000 353.000000 272.000000 -0.090189 303.000000 -0.003310 322.000000 -0.087039 330.000000 -0.070064 19.000000 -0.059610 101.000000 0.102566 145.000000 -0.087481
343046.000000 0.966458 353.000000 361.000000 279.000000 -0.085075 300.000000 -0.000907 326.000000 -0.067585 336.000000 -0.053808 19.000000 -0.053382 98.000000 0.118672 136.000000 -0.103536
343767.000000 0.964231 360.000000 362.000000 287.000000 -0.051599 311.000000 0.007321 319.000000 -0.026928 343.000000 -0.060925 23.000000 -0.031205 95.000000 0.124375 130.000000 -0.099374
345561.000000 0.813322 351.000000 345.000000 272.000000 -0.064012 292.000000 0.019969 303.000000 -0.007115 324.000000 -0.085940 12.000000 0.098261 102.000000 0.116795 141.000000 -0.075843
346926.000000 0.954796 333.000000 333.000000 256.000000 -0.117445 286.000000 -0.007869 308.000000 -0.094451 322.000000 0.587180 22.000000 -0.006507 95.000000 0.104309 133.000000 -0.112509
347589.000000 0.920566 330.000000 351.000000 277.000000 -0.084013 307.000000 0.011114 318.000000 -0.061538 326.000000 -0.072777 21.000000 -0.050738 90.000000 0.086304 122.000000 -0.133675
348621.000000 0.836866 342.000000 343.000000 247.000000 -0.060579 283.000000 0.022619 310.000000 -0.085218 320.000000 -0.068022 18.000000 -0.043446 91.000000 0.109991 139.000000 -0.061064
348964.000000 0.839643 343.000000 356.000000 278.000000 -0.032745 300.000000 0.013150 307.000000 -0.018998 346.000000 0.428540 20.000000 -0.060174 96.000000 0.104603 128.000000 -0.074874
350047.000000 0.829183 367.000000 372.000000 273.000000 -0.037854 310.000000 0.006189 319.000000 -0.014125 348.000000 -0.055708 20.000000 -0.050892 96.000000 0.116967 133.000000 -0.054323
351171.000000 0.904809 371.000000 379.000000 304.000000 -0.059420 327.000000 -0.000014 347.000000 -0.092664 355.000000 -0.094153 18.000000 -0.047586 87.000000 0.109881 153.000000 -0.109982
351550.000000 0.922772 379.000000 378.000000 301.000000 -0.087647 333.000000 0.004092 344.000000 -0.057396 369.000000 0.397778 20.000000 -0.051723 92.000000 0.139820 139.000000 -0.066137
351928.000000 0.968075 378.000000 385.000000 308.000000 -0.087570 341.000000 0.010549 358.000000 -0.074829 365.000000 -0.074358 21.000000 -0.068100 89.000000 0.107110 143.000000 -0.088440
353479.000000 0.918400 393.000000 387.000000 310.000000 -0.055176 336.000000 0.015563 358.000000 -0.065547 365.000000 -0.054169 14.000000 0.034922 97.000000 0.109692 145.000000 -0.084388
356121.000000 0.879670 364.000000 368.000000 292.000000 -0.044713 313.000000 0.025770 319.000000 -0.015829 346.000000 -0.040938 20.000000 -0.035441 98.000000 0.037069 141.000000 -0.135724
359487.000000 0.856238 365.000000 385.000000 298.000000 -0.057622 332.000000 0.015766 344.000000 -0.009987 366.000000 -0.051364 22.000000 -0.046052 92.000000 0.105095 135.000000 -0.091300
360994.000000 0.856145 374.000000 377.000000 226.000000 -0.088042 314.000000 -0.013009 346.000000 -0.117912 355.000000 -0.098022 8.000000 0.387634 98.000000 0.129131 151.000000 -0.095542
362508.000000 0.830185 374.000000 378.000000 306.000000 -0.097867 337.000000 0.012809 356.000000 -0.078384 359.000000 -0.057726 23.000000 -0.045897 101.000000 0.161198 139.000000 -0.038239
366195.000000 0.775304 367.000000 357.000000 283.000000 -0.058167 300.000000 0.015141 326.000000 -0.045452 335.000000 -0.045436 20.000000 -0.074838 98.000000 0.143111 138.000000 -0.084097
366926.000000 0.728230 374.000000 371.000000 296.000000 -0.069309 327.000000 0.006598 337.000000 -0.045298 351.000000 -0.045832 24.000000 -0.035393 98.000000 0.121873 153.000000 -0.093047
368047.000000 0.797273 376.000000 368.000000 279.000000 -0.095532 306.000000 0.058746 335.000000 -0.031803 345.000000 -0.048134 19.000000 -0.040109 94.000000 0.152221 133.000000 -0.091850
368789.000000 0.819201 374.000000 360.000000 272.000000 -0.101599 301.000000 0.029733 312.000000 0.022897 336.000000 -0.012416 21.000000 -0.055155 96.000000 0.110709 137.000000 -0.083445
369149.000000 0.860707 360.000000 364.000000 293.000000 -0.074091 315.000000 0.004093 332.000000 -0.030892 341.000000 -0.050234 24.000000 -0.008055 85.000000 0.100626 136.000000 -0.126876
369513.000000 0.855688 364.000000 367.000000 287.000000 -0.065471 324.000000 0.004919 340.000000 -0.086756 350.000000 -0.050550 19.000000 -0.046743 92.000000 0.103620 96.000000 0.059388
369880.000000 0.788104 367.000000 356.000000 284.000000 -0.085265 305.000000 -0.005846 333.000000 -0.065863 348.000000 0.362115 19.000000 -0.072160 93.000000 0.129299 101.000000 0.113765
370236.000000 0.786129 356.000000 366.000000 286.000000 -0.055658 322.000000 0.012179 337.000000 -0.084497 344.000000 -0.067395 21.000000 -0.060687 95.000000 0.111743 146.000000 -0.107213
370966.000000 0.797725 364.000000 358.000000 262.000000 -0.053196 298.000000 0.014422 313.000000 -0.051927 339.000000 -0.075799 19.000000 -0.047857 92.000000 0.153651 150.000000 -0.053059
371324.000000 0.786990 358.000000 360.000000 290.000000 -0.072867 323.000000 0.019123 337.000000 -0.033793 337.000000 -0.033793 8.000000 0.306927 99.000000 0.128508 132.000000 -0.024096
371684.000000 0.807898 360.000000 371.000000 274.000000 -0.045707 311.000000 0.018606 315.000000 -0.063856 354.000000 -0.047882 21.000000 -0.032793 108.000000 0.185576 147.000000 -0.112196
372416.000000 0.803935 361.000000 357.000000 282.000000 -0.067085 303.000000 0.017649 325.000000 -0.058697 332.000000 -0.079168 8.000000 0.288948 99.000000 0.139133 132.000000 -0.029737
373847.000000 0.813900 360.000000 355.000000 281.000000 -0.102365 313.000000 0.013797 329.000000 -0.104258 336.000000 -0.053709 20.000000 -0.057148 99.000000 0.124424 133.000000 -0.076172
374202.000000 0.793281 355.000000 354.000000 282.000000 -0.061066 303.000000 0.025331 326.000000 -0.061737 334.000000 -0.086298 22.000000 -0.044259 91.000000 0.091786 131.000000 -0.095580
375640.000000 0.725108 356.000000 359.000000 280.000000 -0.074624 318.000000 0.026959 327.000000 -0.064185 351.000000 0.172585 19.000000 -0.030123 90.000000 0.103748 151.000000 -0.092839
376352.000000 0.753512 353.000000 356.000000 281.000000 -0.052289 305.000000 0.016597 330.000000 -0.078291 338.000000 -0.045377 20.000000 -0.089077 90.000000 0.111500 139.000000 -0.058680
377428.000000 0.753777 355.000000 362.000000 269.000000 -0.069059 295.000000 0.016490 308.000000 0.009485 338.000000 -0.097160 23.000000 -0.007714 94.000000 0.111910 135.000000 -0.086400
378514.000000 0.812946 360.000000 358.000000 280.000000 -0.057083 305.000000 0.004184 318.000000 -0.030015 340.000000 -0.051503 17.000000 -0.032429 94.000000 0.129598 153.000000 -0.079387
378872.000000 0.828684 358.000000 365.000000 282.000000 -0.045141 317.000000 0.034140 335.000000 -0.101768 343.000000 -0.071268 22.000000 -0.035780 91.000000 0.099600 99.000000 0.076293
379954.000000 0.823483 360.000000 356.000000 283.000000 -0.064091 307.000000 -0.001551 313.000000 -0.018367 336.000000 -0.072131 18.000000 -0.050246 100.000000 0.097167 137.000000 -0.076093
380310.000000 0.799797 356.000000 355.000000 269.000000 -0.074309 296.000000 0.014845 319.000000 -0.030514 327.000000 -0.077286 20.000000 -0.031926 91.000000 0.103358 130.000000 -0.062040
381381.000000 0.849644 355.000000 356.000000 287.000000 -0.070955 317.000000 0.009549 330.000000 -0.047348 338.000000 -0.048367 19.000000 -0.042081 89.000000 0.104447 99.000000 0.075420
381737.000000 0.809454 356.000000 362.000000 288.000000 -0.060530 321.000000 0.008591 338.000000 -0.058993 343.000000 -0.059682 19.000000 -0.045533 94.000000 0.112883 148.000000 -0.106498
383187.000000 0.790234 370.000000 366.000000 289.000000 -0.062788 312.000000 -0.010219 322.000000 -0.030283 349.000000 -0.053482 21.000000 -0.024483 97.000000 0.125634 158.000000 -0.072789
383553.000000 0.774482 366.000000 365.000000 274.000000 -0.093337 306.000000 0.003919 314.000000 -0.030753 346.000000 -0.037589 20.000000 -0.016064 92.000000 0.125039 150.000000 -0.068149
387475.000000 0.728149 372.000000 376.000000 303.000000 -0.064877 323.000000 0.018962 345.000000 -0.056302 352.000000 -0.058259 19.000000 -0.082633 94.000000 0.105936 153.000000 -0.073842
387851.000000 0.846712 376.000000 374.000000 292.000000 -0.069375 320.000000 -0.001049 328.000000 -0.041692 352.000000 -0.086082 20.000000 -0.025186 91.000000 0.119047 133.000000 -0.090651
389335.000000 0.741976 377.000000 362.000000 288.000000 -0.051956 312.000000 0.030850 321.000000 0.007950 343.000000 -0.055233 19.000000 -0.053386 97.000000 0.127886 154.000000 -0.081543
391131.000000 0.679965 353.000000 357.000000 286.000000 -0.050771 306.000000 0.013165 327.000000 -0.072556 332.000000 -0.068199 18.000000 -0.058795 100.000000 0.132178 141.000000 -0.052072
391488.000000 0.683336 357.000000 357.000000 267.000000 -0.079467 297.000000 0.026724 302.000000 -0.010782 337.000000 -0.071946 20.000000 -0.021835 92.000000 0.133339 155.000000 -0.074450
392915.000000 0.682113 355.000000 360.000000 273.000000 -0.034042 299.000000 0.011879 324.000000 -0.030893 337.000000 -0.050675 19.000000 -0.050316 96.000000 0.122725 144.000000 -0.060897
393275.000000 0.791427 360.000000 363.000000 263.000000 -0.056900 299.000000 0.015985 308.000000 -0.018779 336.000000 -0.046612 18.000000 -0.045450 97.000000 0.119974 143.000000 -0.077359
395453.000000 0.798070 369.000000 366.000000 279.000000 -0.051550 306.000000 0.018025 336.000000 -0.079325 344.000000 -0.059937 19.000000 -0.043324 101.000000 0.116290 147.000000 -0.087302
400202.000000 0.893369 361.000000 372.000000 300.000000 -0.068476 322.000000 0.002949 348.000000 -0.074078 349.000000 -0.073842 20.000000 -0.045390 95.000000 0.137945 145.000000 -0.059098
401664.000000 0.880159 361.000000 362.000000 212.000000 -0.040944 254.000000 0.019485 294.000000 -0.073021 344.000000 -0.130673 25.000000 -0.000873 97.000000 0.157076 142.000000 -0.050031
402397.000000 0.783058 371.000000 370.000000 290.000000 -0.113372 325.000000 -0.042869 335.000000 -0.075392 351.000000 -0.051583 20.000000 -0.048149 96.000000 0.146424 153.000000 -0.079948
404933.000000 0.712601 366.000000 367.000000 293.000000 -0.064122 312.000000 0.010646 320.000000 -0.003479 348.000000 -0.040706 20.000000 -0.064013 95.000000 0.137430 150.000000 -0.086180
405300.000000 0.810142 367.000000 371.000000 297.000000 -0.068151 328.000000 0.014295 349.000000 -0.067127 353.000000 -0.042410 21.000000 -0.040499 100.000000 0.121116 160.000000 -0.085040
406396.000000 0.769529 358.000000 359.000000 277.000000 -0.035627 300.000000 0.029436 306.000000 -0.012601 338.000000 -0.041689 23.000000 -0.014073 97.000000 0.139773 151.000000 -0.089370
407843.000000 0.719668 363.000000 359.000000 288.000000 -0.079371 306.000000 -0.002349 330.000000 -0.054872 335.000000 -0.069293 17.000000 -0.040645 101.000000 0.117571 140.000000 -0.048355
416783.000000 0.804497 384.000000 374.000000 300.000000 -0.060562 323.000000 0.010141 332.000000 -0.004498 355.000000 -0.076287 22.000000 -0.036017 94.000000 0.138252 145.000000 -0.074776
417157.000000 0.775089 374.000000 381.000000 299.000000 -0.049152 325.000000 0.020691 330.000000 0.012086 359.000000 -0.043275 19.000000 -0.061368 96.000000 0.120240 140.000000 -0.042602
417538.000000 0.836048 381.000000 383.000000 301.000000 -0.035764 324.000000 0.019956 329.000000 -0.001877 363.000000 -0.046991 23.000000 -0.032668 108.000000 0.108929 147.000000 -0.062482
419412.000000 0.790440 371.000000 374.000000 293.000000 -0.049407 323.000000 0.018838 343.000000 -0.084827 351.000000 -0.069937 20.000000 -0.059138 95.000000 0.125299 144.000000 -0.057573
419786.000000 0.811269 374.000000 368.000000 275.000000 -0.039404 307.000000 0.001221 320.000000 -0.021992 346.000000 -0.060785 22.000000 -0.024856 96.000000 0.103331 148.000000 -0.085497
420516.000000 0.813574 362.000000 373.000000 297.000000 -0.065173 324.000000 0.005829 340.000000 -0.053545 350.000000 -0.063875 21.000000 -0.070344 99.000000 0.122227 148.000000 -0.091036
424979.000000 0.867194 370.000000 375.000000 295.000000 -0.067351 317.000000 0.000783 326.000000 -0.014358 354.000000 -0.057412 18.000000 -0.050800 101.000000 0.128051 147.000000 -0.062428
425733.000000 0.688571 379.000000 373.000000 301.000000 -0.062368 332.000000 0.010437 351.000000 -0.070784 355.000000 -0.041974 22.000000 -0.055912 101.000000 0.127112 139.000000 -0.056886
426106.000000 0.796161 373.000000 376.000000 299.000000 -0.066271 317.000000 0.011926 326.000000 -0.036615 356.000000 -0.060582 21.000000 -0.048747 101.000000 0.142473 159.000000 -0.073784
427607.000000 0.724844 372.000000 374.000000 300.000000 -0.057867 318.000000 0.007289 327.000000 -0.016894 356.000000 -0.048052 18.000000 -0.063465 90.000000 0.132267 152.000000 -0.054702
431358.000000 0.748713 368.000000 380.000000 299.000000 -0.058621 337.000000 -0.000191 340.000000 -0.017133 353.000000 -0.094376 19.000000 -0.077130 96.000000 0.121841 152.000000 -0.105062
433981.000000 0.876022 369.000000 367.000000 314.000000 -0.175189 345.000000 -0.118808 339.000000 -0.167916 346.000000 -0.128777 19.000000 -0.064151 104.000000 0.204186 148.000000 0.024217
435481.000000 0.786913 377.000000 382.000000 289.000000 -0.080172 319.000000 0.012679 348.000000 -0.082541 356.000000 -0.065206 22.000000 -0.053446 101.000000 0.108844 136.000000 -0.076942
436248.000000 0.769356 385.000000 384.000000 273.000000 -0.048888 323.000000 0.012744 338.000000 -0.026864 365.000000 -0.078999 22.000000 -0.042239 97.000000 0.119819 160.000000 -0.088146
438147.000000 0.814939 384.000000 379.000000 284.000000 -0.062856 319.000000 -0.007212 327.000000 -0.033027 356.000000 -0.055531 21.000000 -0.037648 104.000000 0.135075 154.000000 -0.084192
438526.000000 0.791177 379.000000 380.000000 304.000000 -0.066539 325.000000 0.002743 333.000000 -0.026597 371.000000 0.398105 23.000000 -0.013700 97.000000 0.148962 141.000000 -0.067576
445574.000000 0.778652 364.000000 356.000000 281.000000 -0.063025 300.000000 0.019214 311.000000 -0.012744 348.000000 0.430378 18.000000 -0.067023 98.000000 0.130277 128.000000 -0.059236
445930.000000 0.729297 356.000000 360.000000 287.000000 -0.097069 304.000000 0.005266 314.000000 -0.035877 340.000000 -0.063293 16.000000 -0.052318 100.000000 0.135444 142.000000 -0.098566
446998.000000 0.763435 359.000000 368.000000 275.000000 -0.083122 308.000000 0.011787 316.000000 0.007227 344.000000 -0.047285 5.000000 0.523215 101.000000 0.140485 175.000000 -0.081146
451314.000000 0.783247 361.000000 352.000000 266.000000 -0.078512 300.000000 -0.008622 319.000000 -0.090547 325.000000 -0.066928 20.000000 -0.024839 94.000000 0.140323 139.000000 -0.068769
454619.000000 0.686365 372.000000 369.000000 294.000000 -0.048150 319.000000 0.021741 329.000000 -0.005076 352.000000 -0.070407 17.000000 -0.049891 92.000000 0.131674 150.000000 -0.073048
455734.000000 0.677602 374.000000 377.000000 304.000000 -0.082039 323.000000 0.009312 330.000000 -0.015282 359.000000 -0.039655 18.000000 -0.061676 93.000000 0.128261 150.000000 -0.097748
457616.000000 0.703131 373.000000 367.000000 295.000000 -0.058949 315.000000 0.018293 340.000000 -0.063917 350.000000 -0.050188 23.000000 -0.043970 97.000000 0.143004 149.000000 -0.068268
457983.000000 0.808950 367.000000 369.000000 295.000000 -0.063134 329.000000 0.001129 344.000000 -0.063998 349.000000 -0.073370 16.000000 -0.040880 91.000000 0.120802 131.000000 -0.056470
460610.000000 0.804828 377.000000 380.000000 302.000000 -0.061533 320.000000 0.018308 327.000000 -0.000061 363.000000 -0.051534 21.000000 -0.011941 93.000000 0.120338 152.000000 -0.072268
463212.000000 0.791393 362.000000 372.000000 281.000000 -0.071426 323.000000 0.003463 335.000000 -0.017101 348.000000 -0.070627 20.000000 -0.060269 97.000000 0.121082 147.000000 -0.057666
466124.000000 0.900019 361.000000 370.000000 296.000000 -0.065643 317.000000 -0.001475 340.000000 -0.088010 346.000000 -0.092680 18.000000 -0.046062 91.000000 0.138923 151.000000 -0.076497
466865.000000 0.887479 371.000000 367.000000 279.000000 -0.062192 308.000000 0.045223 313.000000 -0.003162 348.000000 -0.033604 21.000000 -0.026504 93.000000 0.140182 134.000000 -0.118043
467967.000000 0.902319 362.000000 366.000000 277.000000 -0.070876 311.000000 0.011896 338.000000 -0.076394 346.000000 -0.051425 13.000000 0.040190 99.000000 0.141388 147.000000 -0.084793
469070.000000 0.837229 364.000000 363.000000 236.000000 -0.096064 313.000000 0.013182 318.000000 -0.023965 345.000000 -0.053151 20.000000 -0.078510 97.000000 0.131128 144.000000 -0.065793
474091.000000 0.883117 350.000000 368.000000 281.000000 -0.062920 307.000000 0.027771 317.000000 -0.021024 349.000000 -0.055910 14.000000 -0.002636 97.000000 0.119730 136.000000 -0.091684
475192.000000 0.832633 364.000000 379.000000 301.000000 -0.046928 317.000000 0.012022 335.000000 -0.017584 371.000000 0.458980 22.000000 -0.064009 98.000000 0.122986 149.000000 -0.094984
476333.000000 0.904560 377.000000 382.000000 303.000000 -0.065175 325.000000 0.011518 353.000000 -0.087131 362.000000 -0.060784 19.000000 -0.068168 98.000000 0.129056 135.000000 -0.079330
477096.000000 0.839297 381.000000 387.000000 311.000000 -0.059875 333.000000 0.015641 342.000000 -0.014891 366.000000 -0.065501 21.000000 -0.045896 91.000000 0.127846 149.000000 -0.082826
477873.000000 0.842951 390.000000 380.000000 296.000000 -0.054970 336.000000 0.020721 354.000000 -0.066818 361.000000 -0.028730 21.000000 -0.045589 95.000000 0.123878 127.000000 -0.065157
478253.000000 0.927680 380.000000 393.000000 304.000000 -0.064779 327.000000 0.009233 356.000000 -0.071424 367.000000 -0.078825 21.000000 -0.039109 99.000000 0.133666 139.000000 -0.119644
479041.000000 0.837101 395.000000 384.000000 303.000000 -0.048476 330.000000 0.029531 353.000000 -0.074667 360.000000 -0.065639 21.000000 -0.035550 103.000000 0.123099 135.000000 -0.072426
482466.000000 0.830891 381.000000 372.000000 291.000000 -0.030418 315.000000 0.009894 323.000000 -0.022094 362.000000 0.496866 26.000000 -0.052023 99.000000 0.148505 143.000000 -0.081216
483964.000000 0.852365 376.000000 372.000000 287.000000 -0.050482 319.000000 0.007854 339.000000 -0.074483 355.000000 -0.036019 24.000000 -0.051868 102.000000 0.121655 151.000000 -0.090040
486233.000000 0.819842 380.000000 383.000000 293.000000 -0.061192 322.000000 0.006314 331.000000 0.003149 359.000000 -0.090551 19.000000 -0.022382 90.000000 0.124947 98.000000 0.089914
487003.000000 0.755394 387.000000 366.000000 278.000000 -0.100629 306.000000 -0.012993 312.000000 -0.051159 358.000000 0.436384 16.000000 -0.058527 101.000000 0.139761 147.000000 -0.064083
487369.000000 0.825050 366.000000 376.000000 294.000000 -0.072508 312.000000 0.012963 343.000000 -0.079857 351.000000 -0.082334 19.000000 -0.056081 95.000000 0.118318 141.000000 -0.075657
487745.000000 0.774029 376.000000 379.000000 299.000000 -0.027258 323.000000 0.023744 328.000000 -0.008153 369.000000 0.394841 22.000000 -0.034750 103.000000 0.117352 152.000000 -0.069631
489963.000000 0.778766 371.000000 364.000000 288.000000 -0.076910 311.000000 0.011849 322.000000 0.005268 344.000000 -0.063262 21.000000 -0.021394 95.000000 0.114351 132.000000 -0.035292
491429.000000 0.813149 370.000000 371.000000 286.000000 -0.044400 309.000000 0.014251 318.000000 -0.006832 351.000000 -0.079795 22.000000 -0.009748 105.000000 0.127918 132.000000 -0.053717
491800.000000 0.780219 371.000000 382.000000 305.000000 -0.054797 324.000000 0.014434 332.000000 -0.035111 359.000000 -0.069966 20.000000 -0.076928 106.000000 0.103790 147.000000 -0.081435
492559.000000 0.811442 377.000000 374.000000 315.000000 -0.034890 332.000000 0.005768 348.000000 -0.083713 354.000000 -0.049824 28.000000 -0.049375 107.000000 0.123757 148.000000 -0.091072
494054.000000 0.796455 379.000000 366.000000 283.000000 -0.075045 314.000000 0.006380 323.000000 -0.016016 354.000000 0.094831 19.000000 -0.079247 100.000000 0.115601 143.000000 -0.086815
494793.000000 0.771629 373.000000 381.000000 292.000000 -0.062899 319.000000 0.007806 344.000000 -0.006694 361.000000 -0.065941 20.000000 -0.040249 93.000000 0.108563 148.000000 -0.071052
496295.000000 0.757885 377.000000 372.000000 296.000000 -0.025688 318.000000 0.026852 340.000000 -0.059574 345.000000 -0.051171 21.000000 -0.037901 105.000000 0.093508 175.000000 -0.083138
497406.000000 0.748924 367.000000 357.000000 280.000000 -0.048668 301.000000 0.021945 310.000000 0.011535 337.000000 -0.027699 24.000000 -0.038930 107.000000 0.114050 147.000000 -0.059263
498125.000000 0.761148 362.000000 359.000000 280.000000 -0.035831 303.000000 0.034921 316.000000 -0.003434 339.000000 -0.047288 20.000000 -0.073758 97.000000 0.110600 140.000000 -0.101441
498484.000000 0.795641 359.000000 369.000000 292.000000 -0.040284 315.000000 0.057112 327.000000 -0.006068 350.000000 -0.045159 20.000000 -0.069799 98.000000 0.108317 139.000000 -0.120018
498853.000000 0.774419 369.000000 374.000000 296.000000 -0.047114 317.000000 0.052415 347.000000 -0.092458 364.000000 0.400487 19.000000 -0.044418 92.000000 0.111855 143.000000 -0.068818
500349.000000 0.840906 374.000000 365.000000 284.000000 -0.065076 323.000000 0.000691 338.000000 -0.072536 344.000000 -0.066642 21.000000 -0.031129 95.000000 0.127059 101.000000 0.098564
501476.000000 0.778824 382.000000 380.000000 302.000000 -0.051488 326.000000 0.020236 336.000000 -0.010124 360.000000 -0.054564 19.000000 -0.068288 95.000000 0.122438 148.000000 -0.094278
502996.000000 0.832320 379.000000 388.000000 258.000000 -0.079496 329.000000 -0.020235 338.000000 -0.036222 365.000000 -0.095654 8.000000 0.421395 101.000000 0.121936 146.000000 -0.078269
503766.000000 0.840268 382.000000 384.000000 299.000000 -0.097321 329.000000 0.009546 348.000000 -0.055908 358.000000 -0.080986 20.000000 -0.045531 89.000000 0.142172 149.000000 -0.065963
504533.000000 0.906273 383.000000 388.000000 313.000000 -0.065641 342.000000 -0.000939 364.000000 -0.074828 369.000000 -0.076647 21.000000 -0.072006 101.000000 0.107444 140.000000 -0.084979
506438.000000 0.869212 378.000000 382.000000 303.000000 -0.076081 322.000000 0.000502 350.000000 -0.084074 357.000000 -0.074888 19.000000 -0.032617 104.000000 0.117296 149.000000 -0.078002
507203.000000 0.928998 383.000000 376.000000 277.000000 -0.056490 335.000000 0.010544 351.000000 -0.067526 357.000000 -0.051413 21.000000 -0.049828 97.000000 0.114270 137.000000 -0.096103
508709.000000 0.860879 371.000000 379.000000 302.000000 -0.082836 330.000000 0.003685 348.000000 -0.103414 358.000000 -0.074826 25.000000 -0.047070 104.000000 0.115922 142.000000 -0.087891
509472.000000 0.828732 384.000000 383.000000 307.000000 -0.083980 324.000000 0.004233 334.000000 -0.016505 363.000000 -0.054575 21.000000 -0.065518 96.000000 0.119624 136.000000 -0.112387
509855.000000 0.846818 383.000000 388.000000 294.000000 -0.094058 325.000000 -0.003917 332.000000 -0.048885 367.000000 -0.089968 21.000000 -0.038810 87.000000 0.102583 138.000000 -0.084288
510243.000000 0.821115 388.000000 382.000000 299.000000 -0.072792 322.000000 0.017177 348.000000 -0.039468 357.000000 -0.041348 18.000000 -0.029669 95.000000 0.136998 151.000000 -0.073091
511749.000000 0.848805 370.000000 378.000000 298.000000 -0.106176 316.000000 0.019295 346.000000 -0.107805 355.000000 -0.082067 22.000000 -0.069185 99.000000 0.099783 134.000000 -0.078308
515518.000000 0.735862 372.000000 360.000000 281.000000 -0.066000 304.000000 0.016238 314.000000 -0.008324 338.000000 -0.059454 16.000000 -0.067960 100.000000 0.135068 150.000000 -0.069854
517341.000000 0.793714 368.000000 369.000000 283.000000 -0.047020 320.000000 0.056367 348.000000 -0.077254 351.000000 -0.076659 18.000000 -0.056004 103.000000 0.095202 140.000000 -0.067575
517710.000000 0.874940 369.000000 349.000000 293.000000 0.019455 312.000000 0.085519 320.000000 -0.020469 323.000000 -0.003274 21.000000 0.001021 95.000000 0.235940 198.000000 -0.374622
518431.000000 0.896429 372.000000 369.000000 287.000000 -0.076397 323.000000 -0.000235 334.000000 -0.064812 349.000000 -0.068466 21.000000 -0.033496 95.000000 0.128680 136.000000 -0.086353
519168.000000 0.813745 368.000000 378.000000 289.000000 -0.092320 317.000000 -0.011066 324.000000 -0.048151 369.000000 0.431411 18.000000 -0.016332 91.000000 0.127641 141.000000 -0.062641
519921.000000 0.772179 375.000000 379.000000 292.000000 -0.074655 323.000000 0.014592 331.000000 -0.036537 356.000000 -0.040422 18.000000 -0.066737 94.000000 0.108622 154.000000 -0.069232
521389.000000 0.735013 346.000000 353.000000 271.000000 -0.048218 297.000000 0.085107 328.000000 -0.070627 332.000000 -0.069780 21.000000 -0.067869 102.000000 0.107820 139.000000 -0.074610
526249.000000 0.810970 377.000000 377.000000 294.000000 -0.070704 320.000000 -0.005501 328.000000 -0.056003 367.000000 0.390169 21.000000 -0.020625 92.000000 0.135171 138.000000 -0.066290
527361.000000 0.784765 368.000000 376.000000 281.000000 -0.059135 314.000000 0.024030 321.000000 0.004953 357.000000 -0.055676 20.000000 -0.049262 98.000000 0.114866 145.000000 -0.073386
528100.000000 0.801377 363.000000 355.000000 241.000000 -0.093727 296.000000 0.082461 325.000000 -0.098073 332.000000 -0.068275 16.000000 -0.052744 90.000000 0.119833 137.000000 -0.067959
531345.000000 0.647729 329.000000 337.000000 263.000000 -0.032837 291.000000 0.157759 314.000000 -0.021661 319.000000 -0.040313 26.000000 -0.138620 98.000000 0.111255 106.000000 0.021537
533644.000000 0.695659 332.000000 330.000000 250.000000 -0.061770 272.000000 0.063826 303.000000 -0.097739 309.000000 -0.088366 14.000000 -0.098416 93.000000 0.057083 130.000000 -0.078118
534976.000000 0.795655 331.000000 329.000000 244.000000 -0.073864 283.000000 0.055636 307.000000 -0.046259 315.000000 0.022583 10.000000 0.242191 94.000000 0.088148 136.000000 -0.108639
535975.000000 0.818397 333.000000 333.000000 251.000000 -0.067717 285.000000 0.041783 311.000000 -0.073058 316.000000 -0.046803 10.000000 0.304368 90.000000 0.079619 131.000000 -0.113688
537319.000000 0.837540 335.000000 339.000000 265.000000 -0.080786 295.000000 0.002101 315.000000 -0.076927 325.000000 0.025848 12.000000 -0.009547 79.000000 0.077599 121.000000 -0.100787
538340.000000 0.861988 347.000000 355.000000 271.000000 -0.025188 309.000000 0.028311 325.000000 -0.076815 331.000000 -0.046941 18.000000 -0.032229 92.000000 0.084530 145.000000 -0.091961
538695.000000 0.874375 355.000000 344.000000 271.000000 -0.072429 303.000000 0.021629 315.000000 -0.076788 320.000000 -0.078419 20.000000 -0.061819 83.000000 0.066322 144.000000 -0.091519
539039.000000 0.888524 344.000000 340.000000 251.000000 -0.079688 280.000000 0.012963 287.000000 -0.020172 331.000000 0.312448 23.000000 -0.056760 90.000000 0.085656 129.000000 -0.099388
539379.000000 0.870504 340.000000 355.000000 281.000000 -0.059625 300.000000 0.020472 308.000000 0.003136 346.000000 0.493121 10.000000 0.293765 96.000000 0.080476 137.000000 -0.114465
540077.000000 0.837586 343.000000 338.000000 267.000000 -0.061617 287.000000 0.030889 295.000000 -0.001400 326.000000 0.080512 11.000000 0.206269 96.000000 0.064869 142.000000 -0.077183
540415.000000 0.834165 338.000000 348.000000 261.000000 -0.043552 308.000000 0.030239 325.000000 -0.053682 331.000000 -0.038448 14.000000 -0.012012 92.000000 0.085841 147.000000 -0.116839
541465.000000 0.826979 351.000000 351.000000 267.000000 -0.042728 291.000000 0.009703 319.000000 -0.051252 328.000000 -0.041799 19.000000 -0.052819 99.000000 0.067381 134.000000 -0.084996
541816.000000 0.865743 351.000000 353.000000 278.000000 -0.065862 312.000000 0.024765 328.000000 -0.065641 344.000000 0.458354 22.000000 -0.035792 96.000000 0.067176 132.000000 -0.110627
542879.000000 0.835938 364.000000 358.000000 288.000000 -0.059862 318.000000 0.016597 337.000000 -0.055207 348.000000 0.151109 18.000000 -0.032179 89.000000 0.081275 119.000000 -0.079574
543593.000000 0.910376 356.000000 359.000000 262.000000 -0.074246 313.000000 -0.002274 332.000000 -0.069625 346.000000 0.058763 21.000000 -0.025893 95.000000 0.093694 133.000000 -0.074736
543952.000000 0.886789 359.000000 357.000000 284.000000 -0.080750 314.000000 0.020191 331.000000 -0.078697 338.000000 -0.041533 14.000000 -0.004133 86.000000 0.073429 133.000000 -0.093297
545034.000000 0.913886 357.000000 352.000000 252.000000 -0.044469 290.000000 0.029698 301.000000 0.010012 339.000000 0.065282 22.000000 -0.040108 98.000000 0.075530 149.000000 -0.121571
545741.000000 0.941252 355.000000 350.000000 272.000000 -0.057664 289.000000 0.023748 298.000000 0.004517 341.000000 0.578571 20.000000 -0.066288 87.000000 0.075125 91.000000 0.038229
546441.000000 0.897372 350.000000 351.000000 272.000000 -0.053935 309.000000 0.012743 326.000000 -0.059371 331.000000 -0.055077 19.000000 -0.036156 93.000000 0.075366 130.000000 -0.096767
547140.000000 0.842806 348.000000 354.000000 275.000000 -0.096929 311.000000 -0.001050 326.000000 -0.037852 332.000000 -0.034481 18.000000 -0.036868 93.000000 0.097570 139.000000 -0.065850
547846.000000 0.891819 352.000000 345.000000 159.000000 -0.103243 211.000000 -0.127962 273.000000 -0.203840 336.000000 0.202899 28.000000 -0.092865 87.000000 0.092385 98.000000 0.009218
548191.000000 0.583292 345.000000 347.000000 257.000000 -0.047900 289.000000 0.066895 312.000000 0.001380 319.000000 -0.041818 23.000000 -0.017287 96.000000 0.110612 130.000000 -0.080471
552550.000000 0.758729 317.000000 324.000000 244.000000 -0.066753 272.000000 0.066868 289.000000 -0.062711 298.000000 -0.043416 19.000000 -0.077919 77.000000 0.082160 96.000000 0.054797
553511.000000 0.649627 316.000000 323.000000 246.000000 -0.070171 271.000000 0.078763 296.000000 -0.058836 302.000000 -0.079148 19.000000 -0.013884 84.000000 0.144230 127.000000 -0.081035
554456.000000 0.756085 307.000000 314.000000 225.000000 -0.141421 267.000000 0.076899 289.000000 -0.065813 291.000000 -0.063854 19.000000 -0.067851 87.000000 0.060125 126.000000 -0.140326
555088.000000 0.703702 318.000000 305.000000 229.000000 -0.101892 251.000000 0.060082 284.000000 -0.096066 284.000000 -0.096066 8.000000 0.291334 91.000000 0.071898 121.000000 -0.109042
555393.000000 0.726068 305.000000 303.000000 223.000000 -0.125218 255.000000 0.088557 275.000000 -0.038308 281.000000 -0.057305 19.000000 -0.138289 88.000000 0.068906 121.000000 -0.056611
556006.000000 0.833636 310.000000 304.000000 227.000000 -0.160282 254.000000 0.026881 279.000000 -0.131506 284.000000 -0.147761 8.000000 0.440736 85.000000 0.164469 124.000000 -0.043072
556917.000000 0.720580 305.000000 297.000000 117.000000 0.096445 181.000000 -0.126268 214.000000 -0.248527 270.000000 -0.283573 18.000000 -0.030251 81.000000 0.261882 87.000000 0.113356
557214.000000 0.480377 297.000000 293.000000 197.000000 0.037461 246.000000 0.431819 263.000000 0.134218 269.000000 0.163074 20.000000 -0.090110 94.000000 0.175581 136.000000 0.034594
557796.000000 0.698747 289.000000 578.000000 336.000000 -0.157914 368.000000 0.232556 401.000000 -0.232945 557.000000 -0.013286 18.000000 0.105550 294.000000 0.470251 317.000000 -0.181991
558374.000000 0.781403 578.000000 277.000000 210.000000 -0.019202 228.000000 0.110613 258.000000 -0.082303 262.000000 -0.055861 18.000000 0.009617 83.000000 0.106075 125.000000 -0.043931
558651.000000 0.602226 277.000000 281.000000 204.000000 -0.088306 235.000000 0.075847 256.000000 -0.172226 259.000000 -0.100157 19.000000 -0.101380 85.000000 0.137162 113.000000 -0.048526
558932.000000 0.613180 281.000000 277.000000 115.000000 0.196397 175.000000 0.107715 213.000000 -0.195455 255.000000 -0.313823 17.000000 -0.028531 117.000000 0.238466 213.000000 -0.195455
559209.000000 0.305313 277.000000 274.000000 188.000000 -0.099327 223.000000 0.073839 247.000000 -0.084483 256.000000 -0.038481 19.000000 -0.210610 88.000000 0.050281 121.000000 -0.107824
559483.000000 0.667396 274.000000 275.000000 191.000000 0.021849 234.000000 0.109575 250.000000 -0.076867 262.000000 -0.004922 17.000000 -0.016787 88.000000 0.127871 115.000000 -0.037381
559758.000000 0.504561 275.000000 278.000000 171.000000 -0.122174 227.000000 0.152170 239.000000 0.082951 261.000000 0.031099 13.000000 -0.086174 82.000000 0.077463 147.000000 -0.114369
560036.000000 0.675530 278.000000 271.000000 193.000000 -0.130359 221.000000 0.080974 247.000000 -0.082838 249.000000 -0.088731 19.000000 0.009542 20.000000 0.009479 37.000000 -0.038250
560307.000000 0.684513 271.000000 275.000000 187.000000 -0.114235 224.000000 0.097773 247.000000 -0.064798 251.000000 -0.053465 21.000000 -0.013872 87.000000 0.109044 135.000000 -0.064343
560582.000000 0.642291 275.000000 276.000000 180.000000 -0.092194 225.000000 0.089937 249.000000 -0.096897 266.000000 0.238918 18.000000 -0.038023 78.000000 0.079659 124.000000 -0.103836
560858.000000 0.618918 276.000000 279.000000 209.000000 -0.124720 233.000000 0.084293 249.000000 -0.093386 252.000000 -0.062148 19.000000 -0.037741 39.000000 0.071023 49.000000 0.058155
561137.000000 0.707884 279.000000 274.000000 198.000000 -0.090564 240.000000 0.066051 253.000000 -0.092240 258.000000 -0.059873 21.000000 -0.004983 74.000000 0.098139 121.000000 -0.089072
561411.000000 0.658969 274.000000 277.000000 199.000000 -0.139812 227.000000 0.146832 251.000000 -0.048480 269.000000 0.409295 6.000000 0.425488 88.000000 0.118088 125.000000 -0.139340
561957.000000 0.675719 269.000000 280.000000 198.000000 -0.077771 234.000000 0.069799 256.000000 -0.071679 256.000000 -0.071679 10.000000 0.238901 89.000000 0.091787 123.000000 -0.124403
562511.000000 0.951334 274.000000 278.000000 122.000000 -0.528496 232.000000 0.055673 247.000000 -0.064938 270.000000 0.441865 13.000000 0.160723 27.000000 0.274595 45.000000 0.241726
562789.000000 0.902554 278.000000 282.000000 210.000000 -0.248103 233.000000 0.021364 243.000000 -0.045454 260.000000 -0.133588 18.000000 0.113588 51.000000 0.236159 145.000000 -0.273355
563349.000000 0.943902 278.000000 280.000000 203.000000 -0.106867 236.000000 0.069481 255.000000 -0.108118 271.000000 0.362446 20.000000 0.066458 68.000000 0.143700 77.000000 0.067397
563629.000000 0.766492 280.000000 277.000000 200.000000 -0.157509 226.000000 0.048699 254.000000 -0.033980 257.000000 -0.037694 19.000000 -0.094274 86.000000 0.075629 154.000000 -0.147557
564189.000000 0.445440 283.000000 273.000000 191.000000 0.033857 227.000000 0.408074 249.000000 0.149186 256.000000 0.464875 22.000000 -0.474859 94.000000 0.165047 132.000000 -0.117523
565562.000000 0.709114 272.000000 267.000000 197.000000 -0.147475 220.000000 0.035254 239.000000 -0.108146 247.000000 -0.063725 18.000000 -0.049880 65.000000 0.000974 71.000000 -0.024513
565829.000000 0.818686 267.000000 271.000000 193.000000 -0.060846 219.000000 0.065454 242.000000 -0.079828 248.000000 -0.103839 19.000000 0.094562 81.000000 0.142444 163.000000 -0.082130
566100.000000 0.659530 271.000000 268.000000 195.000000 -0.094635 220.000000 0.086445 248.000000 -0.081047 260.000000 0.289688 19.000000 -0.028369 90.000000 0.103590 118.000000 -0.094501
566368.000000 0.645942 268.000000 265.000000 180.000000 -0.096941 217.000000 0.087635 231.000000 -0.037507 240.000000 -0.044105 18.000000 -0.045607 74.000000 0.094079 129.000000 -0.075734
566894.000000 0.783589 261.000000 273.000000 188.000000 -0.196063 229.000000 0.089893 248.000000 -0.070404 255.000000 0.005033 19.000000 0.051366 30.000000 0.136413 54.000000 0.130016
567167.000000 0.742527 273.000000 265.000000 195.000000 -0.107773 221.000000 0.045976 240.000000 -0.132974 240.000000 -0.132974 18.000000 0.012839 70.000000 0.104279 118.000000 -0.086586
567701.000000 0.795455 269.000000 265.000000 194.000000 -0.109295 219.000000 0.069372 239.000000 -0.109042 246.000000 -0.078163 19.000000 0.022869 39.000000 0.081773 51.000000 0.027321
568239.000000 0.668524 273.000000 270.000000 193.000000 -0.059419 219.000000 0.112306 244.000000 -0.031548 248.000000 -0.044477 20.000000 -0.048028 63.000000 0.041629 111.000000 -0.192368
568785.000000 0.657054 276.000000 278.000000 188.000000 -0.104636 228.000000 0.114955 252.000000 -0.041330 253.000000 -0.043776 18.000000 -0.026754 83.000000 0.141535 147.000000 -0.145469
569063.000000 0.702542 278.000000 283.000000 203.000000 -0.145894 235.000000 0.042794 259.000000 -0.108852 264.000000 -0.110340 19.000000 -0.045138 80.000000 0.034911 122.000000 -0.147084
569895.000000 0.544672 274.000000 282.000000 202.000000 -0.020157 231.000000 0.160613 254.000000 -0.013085 261.000000 -0.033414 19.000000 -0.113321 160.000000 0.057679 202.000000 -0.020157
570177.000000 0.660817 282.000000 283.000000 212.000000 -0.099234 232.000000 0.044402 255.000000 -0.062899 263.000000 -0.046880 18.000000 -0.033494 84.000000 0.058350 126.000000 -0.135219
570460.000000 0.683921 283.000000 284.000000 205.000000 -0.087836 234.000000 0.091351 258.000000 -0.056097 262.000000 -0.104499 16.000000 -0.033652 76.000000 0.105404 86.000000 0.007709
570744.000000 0.641002 284.000000 278.000000 206.000000 -0.065831 227.000000 0.074859 252.000000 -0.055519 269.000000 0.224873 21.000000 -0.065392 80.000000 0.069673 109.000000 -0.077194
571022.000000 0.633696 278.000000 291.000000 211.000000 -0.098574 251.000000 0.066569 273.000000 -0.076802 285.000000 0.380721 18.000000 -0.026537 91.000000 0.059125 135.000000 -0.086144
571313.000000 0.645923 291.000000 286.000000 126.000000 0.205205 172.000000 0.141255 215.000000 -0.144137 270.000000 -0.329545 16.000000 -0.021130 136.000000 0.231349 215.000000 -0.144137
571599.000000 0.356207 286.000000 285.000000 199.000000 -0.059108 234.000000 0.060893 250.000000 -0.026647 260.000000 -0.052367 18.000000 -0.290972 82.000000 -0.022226 106.000000 -0.091474
571884.000000 0.760187 285.000000 294.000000 220.000000 -0.167023 241.000000 -0.038810 268.000000 -0.109655 275.000000 -0.069419 21.000000 -0.018292 106.000000 0.131849 122.000000 0.091409
572466.000000 0.773961 288.000000 283.000000 153.000000 -0.181160 230.000000 0.095831 260.000000 -0.020722 267.000000 0.029449 19.000000 0.011330 26.000000 0.033884 42.000000 -0.004093
572749.000000 0.773007 283.000000 285.000000 198.000000 -0.109452 237.000000 0.101398 259.000000 -0.018902 263.000000 -0.017586 17.000000 -0.009706 46.000000 0.130093 57.000000 0.125110
573034.000000 0.714123 285.000000 292.000000 197.000000 -0.098213 240.000000 0.109356 263.000000 -0.030157 272.000000 -0.049421 22.000000 0.009436 59.000000 0.046649 70.000000 0.039641
573326.000000 0.664687 292.000000 278.000000 201.000000 -0.091236 226.000000 0.067228 251.000000 -0.099200 259.000000 -0.063118 15.000000 -0.030063 68.000000 0.045673 79.000000 0.020250
573604.000000 0.795960 278.000000 281.000000 200.000000 -0.110690 235.000000 0.068952 259.000000 -0.111753 261.000000 -0.112756 19.000000 -0.027491 77.000000 0.071160 117.000000 -0.050851
574163.000000 0.854110 278.000000 274.000000 188.000000 -0.176017 226.000000 0.016506 247.000000 -0.181472 253.000000 -0.190798 24.000000 0.111491 33.000000 0.173825 55.000000 0.132615
574437.000000 0.789810 274.000000 277.000000 199.000000 -0.118825 228.000000 0.080249 257.000000 -0.077696 258.000000 -0.068354 18.000000 -0.117492 69.000000 0.080137 108.000000 -0.082211
574714.000000 0.762413 277.000000 276.000000 162.000000 -0.090358 227.000000 0.127874 253.000000 -0.036830 268.000000 0.304077 20.000000 0.003825 72.000000 0.122503 109.000000 0.000403
574990.000000 0.603967 276.000000 278.000000 184.000000 -0.103342 228.000000 0.109369 257.000000 -0.066365 257.000000 -0.066365 7.000000 0.244517 84.000000 0.032841 113.000000 -0.129198
575268.000000 0.684279 278.000000 273.000000 189.000000 -0.039512 226.000000 0.109880 238.000000 0.043440 243.000000 -0.024992 18.000000 -0.049214 70.000000 0.028040 113.000000 -0.200287
575815.000000 0.610345 274.000000 272.000000 193.000000 -0.099595 219.000000 0.114277 245.000000 -0.028356 262.000000 0.308873 16.000000 0.017068 39.000000 0.037236 47.000000 -0.013516
576087.000000 0.665519 272.000000 282.000000 204.000000 -0.075959 235.000000 0.102582 258.000000 -0.080612 262.000000 -0.083558 18.000000 -0.064481 68.000000 0.038104 76.000000 0.004232
576369.000000 0.630175 282.000000 279.000000 209.000000 -0.065307 231.000000 0.101398 258.000000 -0.069260 262.000000 -0.051141 19.000000 -0.012538 79.000000 0.029721 115.000000 -0.070452
576925.000000 0.665062 277.000000 279.000000 206.000000 -0.097726 229.000000 0.078355 255.000000 -0.084437 262.000000 -0.067775 21.000000 -0.027512 70.000000 0.050142 75.000000 -0.011142
577764.000000 0.629733 279.000000 280.000000 205.000000 -0.048636 229.000000 0.110239 235.000000 0.039518 262.000000 -0.019291 20.000000 -0.050941 59.000000 0.069354 111.000000 -0.102182
578331.000000 0.580910 287.000000 277.000000 205.000000 -0.109809 227.000000 0.087527 254.000000 -0.065186 259.000000 -0.053806 19.000000 -0.011817 70.000000 0.070943 75.000000 0.012603
579171.000000 0.597224 282.000000 283.000000 204.000000 -0.128919 233.000000 0.036772 255.000000 -0.133680 264.000000 -0.132427 17.000000 -0.025063 83.000000 0.076869 122.000000 -0.082618
579735.000000 0.529707 281.000000 277.000000 204.000000 -0.078982 231.000000 0.062350 255.000000 -0.100092 265.000000 0.051287 18.000000 -0.086471 71.000000 0.056518 76.000000 0.032002
580012.000000 0.647727 277.000000 279.000000 149.000000 -0.057772 175.000000 -0.070516 206.000000 -0.255955 267.000000 -0.028915 17.000000 -0.036536 69.000000 0.142585 89.000000 0.072289
580291.000000 0.613655 279.000000 279.000000 199.000000 -0.107399 229.000000 0.013338 253.000000 -0.166171 257.000000 -0.131313 12.000000 -0.036376 76.000000 0.210251 109.000000 0.030237
580570.000000 0.609363 279.000000 277.000000 186.000000 -0.017864 228.000000 0.109642 249.000000 -0.068478 266.000000 0.096160 19.000000 -0.075936 78.000000 0.080125 115.000000 -0.061224
580847.000000 0.741442 277.000000 278.000000 190.000000 -0.181112 231.000000 0.068353 247.000000 -0.045332 252.000000 -0.038717 12.000000 -0.052448 78.000000 -0.062553 116.000000 -0.241818
581405.000000 0.809424 280.000000 271.000000 154.000000 -0.085109 225.000000 0.251599 243.000000 0.122180 254.000000 0.193888 20.000000 0.049219 90.000000 0.149720 154.000000 -0.085109
581676.000000 1.192289 271.000000 273.000000 107.000000 -0.381692 216.000000 0.119890 252.000000 -0.073136 255.000000 -0.003198 19.000000 0.229511 22.000000 0.282819 82.000000 -0.411112
581949.000000 0.706192 273.000000 273.000000 177.000000 -0.132287 221.000000 0.143697 238.000000 -0.013608 255.000000 -0.024017 37.000000 0.026711 53.000000 0.147809 64.000000 0.101994
582222.000000 0.845782 273.000000 275.000000 185.000000 -0.123103 210.000000 0.057040 217.000000 -0.162522 253.000000 -0.161568 18.000000 -0.032257 45.000000 0.064028 50.000000 -0.064655
582497.000000 0.784532 275.000000 270.000000 194.000000 0.008461 224.000000 0.253525 241.000000 -0.066493 247.000000 -0.050395 18.000000 0.005142 47.000000 0.042240 61.000000 -0.083027
583028.000000 0.776937 261.000000 265.000000 138.000000 -0.089181 159.000000 0.008169 170.000000 -0.113007 241.000000 -0.162427 18.000000 -0.024727 88.000000 0.076901 107.000000 -0.096737
583293.000000 0.671801 265.000000 264.000000 143.000000 -0.135832 221.000000 0.265614 239.000000 0.136490 244.000000 0.163764 19.000000 -0.083087 78.000000 0.015831 111.000000 -0.183510
583557.000000 0.883169 264.000000 261.000000 181.000000 -0.164137 210.000000 0.090753 232.000000 -0.060909 237.000000 -0.049311 19.000000 0.163841 29.000000 0.163213 45.000000 0.109261
584868.000000 0.692209 264.000000 256.000000 176.000000 -0.131598 208.000000 0.063419 234.000000 -0.067118 236.000000 -0.084641 19.000000 -0.027021 65.000000 0.099091 105.000000 -0.160519
585124.000000 0.720061 256.000000 271.000000 181.000000 -0.128742 226.000000 0.110019 246.000000 -0.064716 263.000000 0.367242 17.000000 -0.015581 47.000000 0.071927 54.000000 0.007429
585395.000000 0.674233 271.000000 258.000000 178.000000 -0.169592 211.000000 0.063967 232.000000 -0.086658 236.000000 -0.103774 17.000000 0.016114 53.000000 0.110129 75.000000 0.031116
585918.000000 0.765553 265.000000 258.000000 159.000000 -0.110958 209.000000 0.055941 216.000000 0.015927 229.000000 -0.104934 21.000000 0.001194 73.000000 0.067852 112.000000 -0.091741
586176.000000 0.630711 258.000000 272.000000 191.000000 -0.150158 223.000000 0.059574 249.000000 -0.104311 254.000000 -0.083652 19.000000 -0.062238 77.000000 0.095707 118.000000 -0.062803
586448.000000 0.703859 272.000000 267.000000 191.000000 -0.122148 223.000000 0.075159 244.000000 -0.084120 250.000000 -0.037584 18.000000 -0.033508 70.000000 0.063779 113.000000 -0.176208
586715.000000 0.755472 267.000000 269.000000 197.000000 -0.097038 222.000000 0.095596 247.000000 -0.059153 262.000000 0.430001 9.000000 0.260943 66.000000 0.097326 115.000000 -0.107318
586984.000000 0.770017 269.000000 272.000000 190.000000 -0.139451 231.000000 0.058545 247.000000 -0.096929 254.000000 -0.054029 16.000000 -0.007180 74.000000 0.012462 111.000000 -0.139980
587256.000000 0.758681 272.000000 279.000000 207.000000 -0.106553 229.000000 -0.007807 255.000000 -0.127963 260.000000 -0.125314 19.000000 -0.053671 81.000000 0.054153 119.000000 -0.120955
588638.000000 0.780312 277.000000 278.000000 197.000000 -0.012931 231.000000 0.154950 255.000000 0.007316 257.000000 0.021422 19.000000 -0.051631 75.000000 0.030581 113.000000 -0.093903
588916.000000 0.842597 278.000000 274.000000 201.000000 -0.168431 229.000000 0.066508 247.000000 -0.099241 257.000000 -0.032660 18.000000 -0.025993 63.000000 0.024783 72.000000 -0.003257
589190.000000 0.850866 274.000000 289.000000 189.000000 -0.102164 244.000000 0.075063 250.000000 -0.015500 262.000000 -0.123995 19.000000 0.013814 78.000000 0.091601 119.000000 -0.080391
589479.000000 0.725160 289.000000 284.000000 210.000000 -0.086318 237.000000 0.082176 264.000000 -0.061399 264.000000 -0.061399 21.000000 -0.062818 74.000000 0.061070 107.000000 -0.064038
589763.000000 0.733163 284.000000 288.000000 192.000000 -0.136190 237.000000 0.090975 262.000000 -0.060091 264.000000 -0.079590 19.000000 -0.024501 79.000000 0.088936 87.000000 0.012995
590051.000000 0.713776 288.000000 292.000000 215.000000 -0.060077 242.000000 0.086912 272.000000 -0.067353 282.000000 0.214073 19.000000 -0.023199 67.000000 0.051284 77.000000 0.037255
590919.000000 0.744699 286.000000 285.000000 208.000000 -0.090484 236.000000 0.113717 250.000000 0.005380 262.000000 -0.020967 18.000000 -0.030129 52.000000 0.078740 69.000000 0.046452
591204.000000 0.683846 285.000000 295.000000 214.000000 -0.058418 245.000000 0.134013 272.000000 -0.064103 286.000000 0.255191 22.000000 -0.007174 64.000000 0.068345 71.000000 0.036196
591499.000000 0.635066 295.000000 279.000000 200.000000 -0.043208 230.000000 0.173092 247.000000 -0.010921 249.000000 -0.004463 19.000000 -0.090592 76.000000 0.044889 115.000000 -0.099562
591778.000000 0.753812 279.000000 286.000000 204.000000 -0.047363 240.000000 0.210599 263.000000 -0.005939 265.000000 -0.001237 23.000000 0.000443 59.000000 0.028987 79.000000 -0.047236
592626.000000 0.781739 287.000000 288.000000 213.000000 -0.078979 239.000000 0.129456 264.000000 -0.028602 270.000000 -0.001801 19.000000 0.011912 49.000000 0.099639 68.000000 0.044937
593198.000000 0.660828 284.000000 297.000000 219.000000 -0.041612 246.000000 0.131287 264.000000 -0.044451 269.000000 -0.024452 19.000000 0.005013 67.000000 0.176600 109.000000 -0.031768
593495.000000 0.727567 297.000000 284.000000 170.000000 -0.126566 234.000000 0.139341 254.000000 -0.031803 262.000000 -0.016631 21.000000 0.081800 23.000000 0.099010 40.000000 -0.000472
593779.000000 0.812725 284.000000 292.000000 206.000000 -0.087305 245.000000 0.121367 259.000000 -0.011139 261.000000 -0.041265 20.000000 -0.033152 61.000000 0.045159 106.000000 -0.104751
596429.000000 0.722178 301.000000 300.000000 199.000000 -0.188902 252.000000 0.064766 274.000000 -0.073009 290.000000 0.383245 19.000000 0.027697 76.000000 0.173057 113.000000 -0.022945
597328.000000 0.654783 299.000000 310.000000 230.000000 -0.021172 258.000000 0.158669 272.000000 0.070096 295.000000 -0.003587 17.000000 -0.024840 75.000000 0.075470 110.000000 -0.091679
597638.000000 0.658606 310.000000 304.000000 230.000000 -0.038715 250.000000 0.124606 279.000000 -0.077134 295.000000 0.354418 17.000000 -0.090483 67.000000 0.121460 75.000000 0.075771
598240.000000 0.772553 298.000000 298.000000 159.000000 -0.201973 247.000000 0.185704 273.000000 -0.015661 288.000000 0.379890 8.000000 0.413683 66.000000 0.148310 110.000000 -0.114666
598838.000000 0.762936 300.000000 302.000000 223.000000 -0.044968 251.000000 0.126194 268.000000 -0.057553 274.000000 -0.049810 19.000000 0.016743 57.000000 0.103923 74.000000 0.058518
599448.000000 0.915544 308.000000 311.000000 224.000000 -0.070318 262.000000 0.099978 286.000000 -0.014991 290.000000 -0.040304 21.000000 0.180106 21.000000 0.180106 34.000000 0.153523
599759.000000 0.741357 311.000000 299.000000 217.000000 -0.098691 252.000000 0.069660 272.000000 -0.065516 290.000000 0.452900 20.000000 0.007849 73.000000 0.067228 117.000000 -0.118900
600988.000000 0.623353 308.000000 305.000000 210.000000 -0.083248 260.000000 0.102207 276.000000 -0.050222 283.000000 -0.067401 8.000000 0.303478 80.000000 0.137881 116.000000 -0.066695
601293.000000 0.683558 305.000000 307.000000 208.000000 -0.090600 255.000000 0.076126 269.000000 0.002946 283.000000 -0.045780 18.000000 0.010047 77.000000 0.067025 105.000000 -0.132850
602209.000000 0.722509 302.000000 314.000000 216.000000 -0.039813 266.000000 0.036697 282.000000 -0.058495 285.000000 -0.076646 19.000000 -0.029087 74.000000 0.114694 105.000000 -0.054667
603764.000000 0.751207 321.000000 314.000000 242.000000 -0.064280 271.000000 0.040373 287.000000 -0.036803 295.000000 0.004717 19.000000 -0.018229 74.000000 0.056033 110.000000 -0.123921
604078.000000 0.810255 314.000000 306.000000 231.000000 -0.124266 267.000000 -0.015519 282.000000 -0.073372 286.000000 -0.118011 20.000000 0.043279 77.000000 0.132617 119.000000 -0.091286
604384.000000 0.763024 306.000000 308.000000 202.000000 -0.090142 262.000000 0.035405 280.000000 -0.052948 287.000000 -0.023357 20.000000 -0.017303 68.000000 0.086524 111.000000 -0.156898
604692.000000 0.819262 308.000000 312.000000 232.000000 -0.078024 269.000000 0.030878 290.000000 -0.032650 304.000000 0.447756 19.000000 -0.003383 62.000000 0.123058 110.000000 -0.076720
605004.000000 0.756220 312.000000 314.000000 215.000000 -0.091928 255.000000 0.036392 279.000000 -0.000410 296.000000 -0.017838 6.000000 0.499011 78.000000 0.067213 112.000000 -0.061191
606260.000000 0.712120 313.000000 312.000000 242.000000 -0.033135 261.000000 0.036348 281.000000 -0.078557 290.000000 -0.084450 19.000000 0.012257 79.000000 0.096929 113.000000 -0.065942
606572.000000 0.741207 312.000000 316.000000 229.000000 -0.054173 271.000000 0.041957 281.000000 0.002288 287.000000 -0.072540 19.000000 -0.030674 82.000000 0.077546 113.000000 -0.108316
606888.000000 0.750953 316.000000 313.000000 235.000000 -0.078720 267.000000 0.042081 289.000000 -0.069218 302.000000 0.257946 24.000000 -0.001738 75.000000 0.112341 108.000000 -0.123378
607507.000000 0.750517 306.000000 314.000000 232.000000 -0.060648 264.000000 0.090291 290.000000 -0.045269 291.000000 -0.054297 20.000000 -0.010045 67.000000 0.072168 110.000000 -0.107752
607821.000000 0.772069 314.000000 301.000000 225.000000 -0.065927 258.000000 0.077460 276.000000 -0.052977 280.000000 -0.070375 20.000000 -0.004778 79.000000 0.045658 119.000000 -0.150208
608122.000000 0.770143 301.000000 309.000000 236.000000 -0.057869 261.000000 0.111329 272.000000 0.020545 293.000000 -0.019784 20.000000 0.001928 79.000000 0.079776 114.000000 -0.099219
608431.000000 0.727161 309.000000 309.000000 219.000000 -0.105200 261.000000 0.095329 285.000000 -0.056063 289.000000 -0.058900 19.000000 -0.048415 81.000000 0.055977 115.000000 -0.095563
608740.000000 0.772872 309.000000 308.000000 224.000000 -0.087740 264.000000 0.071975 285.000000 -0.102272 291.000000 -0.046018 19.000000 -0.045124 72.000000 0.067786 115.000000 -0.137899
609048.000000 0.724391 308.000000 313.000000 237.000000 -0.087056 262.000000 0.063086 287.000000 -0.069846 303.000000 0.324055 18.000000 -0.029604 66.000000 0.060489 118.000000 -0.078855
609673.000000 0.669230 312.000000 318.000000 237.000000 -0.119026 269.000000 0.055863 294.000000 -0.054297 311.000000 0.462271 26.000000 -0.014560 76.000000 0.100038 126.000000 -0.039607
610590.000000 0.629404 297.000000 309.000000 197.000000 -0.106519 266.000000 0.123935 274.000000 0.061129 281.000000 -0.017366 21.000000 -0.059090 84.000000 0.070799 116.000000 -0.076630
611197.000000 0.580784 298.000000 299.000000 209.000000 -0.062945 252.000000 0.070233 277.000000 -0.067726 290.000000 0.279656 9.000000 0.206332 77.000000 0.098243 111.000000 -0.069308
611496.000000 0.647008 299.000000 307.000000 227.000000 -0.085111 257.000000 0.085707 275.000000 -0.067647 284.000000 -0.042789 10.000000 0.179312 89.000000 0.077444 110.000000 -0.094453
612104.000000 0.716785 301.000000 301.000000 223.000000 -0.079293 252.000000 0.109124 275.000000 -0.109449 281.000000 -0.080389 23.000000 -0.011680 71.000000 0.079179 116.000000 -0.061477
612405.000000 0.645474 301.000000 307.000000 207.000000 -0.091145 250.000000 0.085688 261.000000 0.033322 275.000000 -0.061583 20.000000 -0.032364 76.000000 0.107324 112.000000 -0.094967
613015.000000 0.628255 303.000000 301.000000 211.000000 -0.138937 250.000000 0.108746 272.000000 -0.103857 284.000000 -0.034639 18.000000 -0.044222 72.000000 0.085526 109.000000 -0.047040
613316.000000 0.663777 301.000000 292.000000 217.000000 -0.084201 249.000000 0.065814 266.000000 -0.064031 269.000000 -0.113873 21.000000 -0.022068 83.000000 0.112900 121.000000 -0.079528
613908.000000 0.645863 300.000000 296.000000 216.000000 -0.088782 247.000000 0.160403 273.000000 -0.049284 276.000000 -0.039049 19.000000 -0.059795 79.000000 0.095221 87.000000 0.018089
614501.000000 0.711334 297.000000 300.000000 223.000000 -0.109905 254.000000 0.078639 277.000000 -0.084730 292.000000 0.354441 22.000000 -0.024657 76.000000 0.087959 116.000000 -0.088451
614801.000000 0.689144 300.000000 300.000000 205.000000 -0.064060 250.000000 0.095971 259.000000 0.007367 269.000000 -0.083447 18.000000 -0.041203 85.000000 0.097415 120.000000 -0.090031
615392.000000 0.718554 291.000000 298.000000 210.000000 -0.121395 249.000000 0.112538 260.000000 0.011377 269.000000 -0.058012 23.000000 -0.031648 62.000000 0.058554 73.000000 0.037113
616299.000000 0.658307 301.000000 297.000000 224.000000 -0.113997 248.000000 0.051883 269.000000 -0.118448 273.000000 -0.089655 17.000000 -0.025047 79.000000 0.119750 168.000000 -0.172334
616596.000000 0.662650 297.000000 310.000000 231.000000 -0.057269 259.000000 0.108562 285.000000 0.012073 289.000000 -0.001720 19.000000 -0.080187 82.000000 0.116774 116.000000 -0.056584
616906.000000 0.776695 310.000000 301.000000 187.000000 -0.477933 263.000000 0.023165 276.000000 -0.040847 277.000000 -0.036599 19.000000 0.076162 61.000000 0.187151 92.000000 0.103076
617207.000000 0.841677 301.000000 305.000000 226.000000 -0.057019 259.000000 0.100222 279.000000 -0.062053 284.000000 -0.090972 19.000000 0.068967 75.000000 0.182353 119.000000 -0.054949
617820.000000 0.851331 308.000000 307.000000 232.000000 -0.127870 262.000000 0.010518 283.000000 -0.073825 289.000000 -0.046113 21.000000 -0.054171 85.000000 0.069806 121.000000 -0.152541
618432.000000 0.816939 305.000000 300.000000 187.000000 -0.248276 262.000000 0.010422 270.000000 -0.106520 289.000000 0.196960 22.000000 0.049056 84.000000 0.093952 152.000000 -0.213982
619045.000000 0.810107 313.000000 310.000000 226.000000 -0.085298 266.000000 -0.001099 285.000000 -0.046416 290.000000 -0.074003 26.000000 0.018117 75.000000 0.202792 117.000000 -0.023746
619657.000000 0.696707 302.000000 315.000000 246.000000 -0.062290 263.000000 0.080264 269.000000 0.021034 306.000000 0.461880 18.000000 -0.098859 82.000000 0.130971 111.000000 -0.028761
620276.000000 0.830344 304.000000 311.000000 225.000000 -0.308199 270.000000 -0.058719 288.000000 -0.135945 302.000000 0.420623 22.000000 -0.012066 81.000000 0.139986 164.000000 -0.186144
621215.000000 0.834028 314.000000 311.000000 234.000000 -0.200439 266.000000 -0.024073 274.000000 -0.060499 284.000000 -0.084213 19.000000 0.002259 84.000000 0.128071 166.000000 -0.171395
622162.000000 0.784872 316.000000 315.000000 261.000000 -0.041580 277.000000 0.002071 291.000000 -0.060232 299.000000 -0.030937 21.000000 -0.068137 74.000000 0.149998 118.000000 -0.128449
624305.000000 0.823024 299.000000 303.000000 230.000000 -0.149120 250.000000 0.027606 282.000000 -0.086393 292.000000 0.128293 19.000000 -0.017884 73.000000 0.138922 113.000000 -0.114764
624608.000000 0.773181 303.000000 309.000000 223.000000 -0.060533 262.000000 0.096097 283.000000 -0.028512 287.000000 -0.072103 13.000000 0.019230 83.000000 0.120187 115.000000 -0.055736
624917.000000 0.876299 309.000000 309.000000 159.000000 -0.077650 187.000000 -0.045894 213.000000 -0.088292 284.000000 -0.234185 8.000000 0.430847 86.000000 0.138828 112.000000 -0.060312
625842.000000 0.940282 304.000000 318.000000 238.000000 -0.108575 269.000000 0.062035 282.000000 -0.062447 294.000000 -0.112930 25.000000 -0.058993 84.000000 0.109801 123.000000 -0.124574
627103.000000 0.736381 313.000000 310.000000 232.000000 -0.078624 259.000000 0.152033 285.000000 0.007553 285.000000 0.007553 21.000000 -0.111254 80.000000 0.093383 113.000000 -0.044247
627413.000000 0.870254 310.000000 301.000000 205.000000 -0.189152 260.000000 -0.011081 275.000000 -0.192711 281.000000 -0.152884 18.000000 0.081695 83.000000 0.163576 128.000000 -0.036283
627714.000000 0.722429 301.000000 317.000000 196.000000 0.001958 213.000000 0.050721 236.000000 -0.028402 296.000000 -0.123716 22.000000 -0.073527 92.000000 0.138654 114.000000 -0.019481
628031.000000 0.677318 317.000000 311.000000 229.000000 -0.026208 260.000000 0.077084 280.000000 -0.037149 288.000000 -0.034077 18.000000 -0.088216 78.000000 0.083447 85.000000 0.000486
628342.000000 0.769573 311.000000 309.000000 237.000000 -0.106600 258.000000 0.048415 266.000000 -0.014468 294.000000 0.013150 18.000000 0.003711 79.000000 0.148743 127.000000 -0.102243
628651.000000 0.751536 309.000000 313.000000 207.000000 -0.133228 273.000000 0.086350 290.000000 -0.028807 305.000000 0.459218 16.000000 -0.018198 58.000000 0.131095 70.000000 0.107507
629271.000000 0.708198 307.000000 312.000000 238.000000 -0.088228 264.000000 -0.005013 287.000000 -0.109008 293.000000 -0.114260 7.000000 0.466896 70.000000 0.178135 81.000000 0.145580
629901.000000 0.718028 318.000000 310.000000 239.000000 -0.109654 266.000000 0.022242 287.000000 -0.040456 295.000000 -0.075408 19.000000 -0.033902 79.000000 0.133259 121.000000 -0.107637
630828.000000 0.657023 305.000000 314.000000 242.000000 -0.036376 263.000000 0.043672 288.000000 -0.110466 294.000000 -0.081374 18.000000 -0.119544 88.000000 0.170393 123.000000 -0.053981
631749.000000 0.719122 301.000000 302.000000 230.000000 -0.042589 251.000000 0.089074 273.000000 -0.028292 283.000000 0.027086 22.000000 -0.072978 87.000000 0.089372 122.000000 -0.168232
632051.000000 0.761884 302.000000 303.000000 220.000000 -0.125094 257.000000 0.036346 276.000000 -0.158937 282.000000 -0.058279 23.000000 0.000317 65.000000 0.120583 119.000000 -0.118195
632658.000000 0.782972 304.000000 303.000000 214.000000 -0.096238 250.000000 -0.037663 272.000000 -0.148634 280.000000 -0.148414 22.000000 -0.064645 83.000000 0.115686 116.000000 -0.138058
633571.000000 0.793180 299.000000 299.000000 235.000000 -0.085972 259.000000 -0.045048 276.000000 -0.095595 280.000000 -0.101081 23.000000 0.032834 84.000000 0.162894 117.000000 -0.077668
634184.000000 0.778889 314.000000 302.000000 220.000000 -0.171959 259.000000 -0.007258 277.000000 -0.089500 281.000000 -0.088560 19.000000 0.010929 83.000000 0.179595 115.000000 -0.012365
634771.000000 0.821333 285.000000 281.000000 205.000000 -0.173196 240.000000 0.002553 244.000000 -0.016225 249.000000 -0.071789 14.000000 -0.052476 59.000000 0.056017 65.000000 -0.045535
635052.000000 0.878292 281.000000 295.000000 195.000000 -0.072384 244.000000 0.088150 266.000000 -0.087475 273.000000 -0.042115 25.000000 -0.001078 80.000000 0.177371 115.000000 -0.068352
635637.000000 0.717335 290.000000 289.000000 185.000000 -0.154609 238.000000 0.153041 260.000000 -0.006519 264.000000 -0.064201 19.000000 -0.068637 92.000000 0.146881 129.000000 -0.061614
635926.000000 0.757742 289.000000 288.000000 210.000000 -0.202492 241.000000 0.050000 246.000000 0.000237 261.000000 -0.046377 20.000000 -0.035110 81.000000 0.115409 163.000000 -0.176835
636503.000000 0.733102 289.000000 288.000000 210.000000 -0.111582 241.000000 0.096491 266.000000 -0.098024 271.000000 -0.059608 18.000000 -0.045486 80.000000 0.122739 122.000000 -0.056130
636791.000000 0.762726 288.000000 294.000000 209.000000 -0.154264 241.000000 0.051268 244.000000 0.011441 257.000000 -0.093105 18.000000 -0.061962 81.000000 0.093575 116.000000 -0.093183
637956.000000 0.746398 283.000000 296.000000 225.000000 -0.157227 248.000000 0.087790 265.000000 -0.083696 273.000000 -0.067222 19.000000 0.009766 44.000000 0.085234 52.000000 0.035220
638252.000000 0.678813 296.000000 291.000000 216.000000 -0.116612 247.000000 0.099313 266.000000 -0.037160 271.000000 -0.065279 22.000000 -0.068430 85.000000 0.162270 115.000000 -0.015740
638543.000000 0.752839 291.000000 293.000000 197.000000 -0.082446 239.000000 0.152162 269.000000 0.006849 276.000000 0.026895 19.000000 -0.124339 62.000000 0.057809 69.000000 0.007903
638836.000000 0.768088 293.000000 299.000000 228.000000 -0.133215 248.000000 0.035780 275.000000 -0.125566 282.000000 -0.009735 20.000000 -0.013887 133.000000 0.013215 147.000000 -0.056503
640029.000000 0.741004 299.000000 303.000000 220.000000 -0.152789 254.000000 0.022039 266.000000 -0.044028 272.000000 -0.115641 17.000000 -0.005578 87.000000 0.121086 123.000000 -0.069195
640332.000000 0.658607 303.000000 301.000000 218.000000 -0.058074 250.000000 0.109655 277.000000 0.050364 280.000000 -0.098946 22.000000 -0.029716 92.000000 0.177306 121.000000 -0.035607
640633.000000 0.671853 301.000000 296.000000 225.000000 -0.066411 251.000000 0.079638 266.000000 -0.121098 271.000000 -0.042274 20.000000 -0.075184 82.000000 0.061379 125.000000 -0.099154
640929.000000 0.780768 296.000000 304.000000 187.000000 -0.131928 245.000000 -0.018606 279.000000 -0.161032 284.000000 -0.153869 21.000000 0.003589 87.000000 0.161600 124.000000 -0.034686
641233.000000 0.666680 304.000000 302.000000 210.000000 -0.118603 250.000000 0.057884 259.000000 0.017397 271.000000 -0.036159 18.000000 -0.134055 81.000000 0.123168 120.000000 -0.093040
641535.000000 0.757431 302.000000 305.000000 229.000000 -0.176675 251.000000 -0.000752 257.000000 -0.031458 291.000000 -0.041786 21.000000 0.022447 83.000000 0.149748 120.000000 -0.025753
641840.000000 0.676490 305.000000 311.000000 211.000000 -0.121581 267.000000 0.064216 269.000000 0.035360 284.000000 -0.039185 18.000000 -0.057397 87.000000 0.154640 117.000000 -0.076114
642457.000000 0.693288 306.000000 307.000000 222.000000 -0.148604 252.000000 0.030375 258.000000 0.015090 283.000000 -0.072513 17.000000 -0.072212 72.000000 0.135376 121.000000 -0.060206
643069.000000 0.741524 305.000000 312.000000 221.000000 -0.079563 271.000000 0.029484 281.000000 -0.082020 295.000000 -0.053085 19.000000 -0.062986 81.000000 0.147089 133.000000 -0.052177
643381.000000 0.774235 312.000000 304.000000 194.000000 -0.180831 262.000000 0.055141 279.000000 -0.071270 286.000000 -0.052351 18.000000 -0.015075 59.000000 0.180455 81.000000 0.107022
643685.000000 0.770641 304.000000 294.000000 217.000000 -0.148593 247.000000 0.047899 266.000000 -0.090751 274.000000 -0.081175 21.000000 0.002400 82.000000 0.150990 155.000000 -0.084844
643979.000000 0.853134 294.000000 306.000000 233.000000 -0.098698 265.000000 0.027197 285.000000 -0.099635 286.000000 -0.085215 16.000000 -0.010269 72.000000 0.080154 160.000000 -0.133560
644285.000000 0.672794 306.000000 298.000000 224.000000 -0.020877 250.000000 0.054327 269.000000 -0.051313 275.000000 -0.007128 20.000000 -0.012803 81.000000 0.159058 115.000000 -0.010347
644583.000000 0.765501 298.000000 291.000000 203.000000 -0.138667 247.000000 0.010346 263.000000 -0.043180 268.000000 -0.106127 20.000000 -0.007103 88.000000 0.072176 122.000000 -0.171789
645172.000000 0.751159 298.000000 297.000000 227.000000 -0.138340 250.000000 0.025658 270.000000 -0.103559 273.000000 -0.110174 21.000000 -0.025409 85.000000 0.121971 125.000000 -0.127306
645469.000000 0.742851 297.000000 287.000000 185.000000 -0.122915 235.000000 0.074185 258.000000 -0.086740 265.000000 -0.095141 21.000000 -0.018809 80.000000 0.172413 185.000000 -0.122915
645756.000000 0.757052 287.000000 291.000000 202.000000 -0.127649 243.000000 0.034465 261.000000 -0.124406 273.000000 -0.058904 20.000000 -0.053775 84.000000 0.084233 118.000000 -0.090439
646047.000000 0.735531 291.000000 301.000000 214.000000 -0.085034 250.000000 0.073886 278.000000 -0.157035 285.000000 -0.038571 9.000000 0.346284 71.000000 0.133015 82.000000 0.092748
646348.000000 0.704579 301.000000 287.000000 209.000000 -0.117978 244.000000 0.051085 261.000000 -0.035296 267.000000 -0.042239 21.000000 -0.066000 82.000000 0.081051 152.000000 -0.192431
647518.000000 0.794371 291.000000 300.000000 205.000000 -0.063274 252.000000 0.074157 268.000000 0.004047 275.000000 -0.024450 22.000000 -0.042163 87.000000 0.068794 120.000000 -0.231615
648405.000000 0.875739 292.000000 300.000000 228.000000 -0.121302 246.000000 0.006676 256.000000 -0.033871 292.000000 0.424950 20.000000 0.087903 86.000000 0.128026 113.000000 -0.085752
648705.000000 0.719511 300.000000 292.000000 221.000000 -0.079275 246.000000 0.007995 271.000000 -0.083367 284.000000 0.406317 6.000000 0.488995 76.000000 0.201018 122.000000 -0.050361
649287.000000 0.777809 290.000000 301.000000 206.000000 -0.090502 242.000000 0.019232 249.000000 -0.124029 286.000000 0.080295 10.000000 0.299986 86.000000 0.156424 125.000000 -0.099451
